Time [s], RESP, II, V, AVR, PLETH
0,0.63328,0.43018,0.6001,0.53516,2.3109
0.008,0.65307,0.43506,0.6001,0.53516,2.2942
0.016,0.67286,0.43018,0.59521,0.52979,2.2737
0.024,0.69313,0.43994,0.58984,0.52002,2.2463
0.032,0.71366,0.44482,0.58496,0.51514,2.217
0.04,0.73223,0.46484,0.58496,0.5,2.1867
0.048,0.75079,0.47021,0.5752,0.49023,2.1466
0.056,0.76814,0.48486,0.56006,0.4751,2.0997
0.064,0.78549,0.50488,0.5498,0.45996,2.0489
0.072,0.8043,0.50977,0.54004,0.45996,1.999
0.08,0.82336,0.51514,0.52979,0.46484,1.9531
0.088,0.84339,0.53516,0.5249,0.43994,1.913
0.096,0.86367,0.53516,0.51514,0.43506,1.8788
0.104,0.88248,0.5249,0.52002,0.44482,1.8504
0.112,0.90154,0.52002,0.5249,0.45508,1.8289
0.12,0.91962,0.51514,0.53516,0.45996,1.8133
0.128,0.9377,0.51514,0.55518,0.46484,1.8045
0.136,0.95773,0.50977,0.56982,0.47021,1.8016
0.144,0.97777,0.50977,0.59521,0.46484,1.7986
0.152,0.98876,0.51514,0.60498,0.47021,1.7957
0.16,1,0.49512,0.62012,0.49023,1.7928
0.168,1,0.49023,0.625,0.49512,1.7879
0.176,1,0.48486,0.625,0.50488,1.7801
0.184,1,0.49023,0.62012,0.5,1.7713
0.192,1,0.48486,0.62012,0.51514,1.7625
0.2,1,0.49512,0.62988,0.50977,1.7527
0.208,1,0.48486,0.62012,0.51514,1.7419
0.216,1,0.50488,0.62988,0.50977,1.7292
0.224,1,0.50977,0.62988,0.49512,1.7165
0.232,1,0.52979,0.63477,0.48486,1.7077
0.24,1,0.54492,0.62988,0.4751,1.6989
0.248,1,0.5752,0.62988,0.4502,1.6872
0.256,1,0.59521,0.64502,0.43994,1.6745
0.264,1,0.60498,0.65479,0.43506,1.6608
0.272,1,0.625,0.65479,0.4248,1.6461
0.28,1,0.61475,0.6499,0.43018,1.6315
0.288,1,0.625,0.64502,0.41992,1.6168
0.296,1,0.65479,0.60498,0.3999,1.6031
0.304,1,0.6499,0.52979,0.39502,1.5924
0.312,1,0.6499,0.51514,0.39014,1.5836
0.32,1,0.66016,0.50488,0.38525,1.5728
0.328,1,0.61475,0.48486,0.41992,1.564
0.336,1,0.5249,0.47998,0.48486,1.5543
0.344,1,0.4502,0.47021,0.52979,1.5396
0.352,1,0.41504,0.45996,0.55518,1.5249
0.36,1,0.39014,0.4502,0.56982,1.5161
0.368,1,0.37988,0.44482,0.58008,1.5191
0.376,1,0.37012,0.44482,0.58496,1.5406
0.384,1,0.375,0.44482,0.5752,1.5865
0.392,1,0.33984,0.4751,0.59521,1.6588
0.4,1,0.29492,0.62988,0.62012,1.7566
0.408,1,0.4248,0.75,0.5249,1.8749
0.416,1,0.64014,0.60986,0.37012,2.0049
0.424,1,0.88477,0.18506,0.26514,2.1369
0.432,1,1.1396,-0.38965,0.22021,2.2473
0.44,1,0.6748,-0.49951,0.52979,2.3382
0.448,1,0.35498,-0.49951,0.68018,2.4213
0.456,1,0.30518,-0.49951,0.66016,2.4839
0.464,1,0.33496,-0.080078,0.61475,2.523
0.472,1,0.33008,0.29004,0.60986,2.5396
0.48,1,0.3501,0.4751,0.6001,2.5347
0.488,1,0.35986,0.55518,0.58496,2.5161
0.496,1,0.35986,0.5752,0.58008,2.4888
0.504,1,0.37012,0.58496,0.5752,2.4565
0.512,1,0.37988,0.59521,0.56494,2.4242
0.52,1,0.39502,0.6001,0.55518,2.3959
0.528,1,0.39014,0.58984,0.56006,2.3744
0.536,1,0.39014,0.59521,0.56494,2.3568
0.544,1,0.3999,0.59521,0.54492,2.3431
0.552,1,0.41504,0.59521,0.53516,2.3333
0.56,1,0.41992,0.59521,0.54004,2.3216
0.568,1,0.43994,0.58984,0.5249,2.3069
0.576,1,0.44482,0.58496,0.52979,2.2874
0.584,1,0.45996,0.58496,0.51514,2.26
0.592,1,0.46484,0.58008,0.50488,2.2239
0.6,1,0.47998,0.56982,0.49023,2.1789
0.608,1,0.5,0.56006,0.46484,2.1271
0.616,1,0.5249,0.5498,0.4502,2.0723
0.624,1,0.5249,0.53516,0.45508,2.0205
0.632,1,0.52979,0.5249,0.45508,1.9785
0.64,1,0.53516,0.52002,0.4502,1.9443
0.648,1,0.52979,0.52002,0.44482,1.912
0.656,1,0.54004,0.5249,0.43994,1.8856
0.664,1,0.53516,0.52979,0.45508,1.868
0.672,1,0.52002,0.54004,0.46484,1.8583
0.68,1,0.51514,0.56006,0.47021,1.8543
0.688,1,0.51514,0.58008,0.4751,1.8534
0.696,1,0.50977,0.60498,0.4751,1.8543
0.704,1,0.52002,0.62988,0.47998,1.8563
0.712,1,0.51514,0.64014,0.49023,1.8573
0.72,1,0.50488,0.63477,0.5,1.8553
0.728,1,0.50488,0.62988,0.5,1.8514
0.736,1,0.50977,0.62988,0.50488,1.8465
0.744,1,0.50488,0.62988,0.50977,1.8368
0.752,1,0.50977,0.62988,0.50488,1.8231
0.76,1,0.5249,0.64502,0.49512,1.8084
0.768,1,0.53516,0.64502,0.49023,1.7908
0.776,1,0.54004,0.64502,0.48486,1.7722
0.784,1,0.55518,0.64014,0.47021,1.7556
0.792,1,0.5752,0.63477,0.45508,1.741
0.8,1,0.58496,0.63477,0.45508,1.7263
0.808,1,0.60498,0.65479,0.43994,1.7126
0.816,1,0.62988,0.66016,0.4248,1.7009
0.824,1,0.625,0.66992,0.43018,1.6882
0.832,1,0.625,0.66992,0.43506,1.6794
0.84,1,0.63477,0.6499,0.4248,1.6725
0.848,1,0.6499,0.58984,0.40479,1.6637
0.856,1,0.6499,0.54492,0.41016,1.653
0.864,1,0.6499,0.52979,0.40479,1.6393
0.872,1,0.64014,0.51514,0.41016,1.6256
0.88,1,0.56494,0.5,0.45996,1.61
0.888,1,0.49512,0.49512,0.50977,1.5924
0.896,1,0.4502,0.49023,0.53516,1.5758
0.904,1,0.41016,0.4751,0.56006,1.564
0.912,1,0.39014,0.46484,0.58008,1.5601
0.92,1,0.38525,0.46484,0.58496,1.5709
0.928,1,0.39014,0.46484,0.58008,1.5953
0.936,1,0.375,0.46484,0.58984,1.6383
0.944,1,0.31982,0.56006,0.60986,1.7107
0.952,1,0.30518,0.73486,0.61475,1.8113
0.96,1,0.53516,0.77002,0.43994,1.9062
0.968,1,0.79492,0.39014,0.29004,2.0127
0.976,1,1.04,-0.1748,0.22998,2.1593
0.984,1,1.1548,-0.49951,0.20996,2.3128
0.992,1,0.46484,-0.49951,0.63477,2.4497
1,1,0.30518,-0.49951,0.68506,2.5591
1.008,1,0.30029,-0.35986,0.62988,2.6354
1.016,1,0.3501,0.13525,0.60498,2.6755
1.024,1,0.34521,0.41504,0.6001,2.6872
1.032,1,0.35986,0.54492,0.58496,2.6784
1.04,1,0.37012,0.6001,0.58496,2.652
1.048,1,0.37012,0.60986,0.5752,2.6158
1.056,1,0.37988,0.62012,0.5752,2.5748
1.064,1,0.38525,0.62988,0.56494,2.5347
1.072,1,0.39014,0.62988,0.56982,2.5024
1.08,0.99951,0.39502,0.62988,0.56494,2.478
1.088,0.99927,0.41016,0.62988,0.56006,2.4585
1.096,0.98925,0.43018,0.62988,0.53516,2.4428
1.104,0.97948,0.4248,0.62988,0.54004,2.4282
1.112,0.96873,0.43018,0.62988,0.54004,2.4106
1.12,0.95822,0.43994,0.62988,0.53516,2.3842
1.128,0.94723,0.45508,0.62988,0.52002,2.3529
1.136,0.93623,0.45996,0.62988,0.51514,2.3177
1.144,0.92524,0.47998,0.61475,0.49512,2.2717
1.152,0.91449,0.5,0.60986,0.47998,2.216
1.16,0.90472,0.50977,0.59521,0.4751,2.1544
1.168,0.89494,0.53516,0.58496,0.45996,2.0909
1.176,0.88566,0.5498,0.5752,0.44482,2.0274
1.184,0.87637,0.55518,0.56006,0.43018,1.9717
1.192,0.86636,0.56006,0.55518,0.43018,1.9257
1.2,0.85634,0.56982,0.55518,0.43506,1.8895
1.208,0.84559,0.55518,0.55518,0.43994,1.8651
1.216,0.83508,0.56006,0.56006,0.43994,1.8495
1.224,0.82531,0.55518,0.5752,0.4502,1.8416
1.232,0.81554,0.5498,0.6001,0.45996,1.8407
1.24,0.80625,0.54492,0.625,0.45508,1.8426
1.248,0.79721,0.55518,0.63477,0.45996,1.8436
1.256,0.78671,0.53516,0.64502,0.4751,1.8416
1.264,0.77645,0.53516,0.6499,0.47998,1.8377
1.272,0.76472,0.5249,0.64502,0.49023,1.8328
1.28,0.75299,0.5249,0.62988,0.49512,1.824
1.288,0.7398,0.53516,0.62988,0.49512,1.8123
1.296,0.72685,0.54004,0.62988,0.49023,1.8006
1.304,0.71244,0.5249,0.62988,0.50488,1.7849
1.312,0.69827,0.52979,0.62988,0.5,1.7654
1.32,0.68409,0.54492,0.64014,0.49023,1.7419
1.328,0.67017,0.55518,0.64502,0.47998,1.7224
1.336,0.656,0.56982,0.64502,0.47021,1.7048
1.344,0.64183,0.5752,0.63477,0.46484,1.6823
1.352,0.62595,0.60498,0.6499,0.44482,1.6598
1.36,0.61007,0.62988,0.66016,0.43018,1.6393
1.368,0.59296,0.64502,0.66992,0.43506,1.6207
1.376,0.57586,0.64014,0.6748,0.4248,1.6041
1.384,0.56047,0.64014,0.66992,0.43018,1.5894
1.392,0.54508,0.66504,0.64014,0.40479,1.5758
1.4,0.53115,0.6748,0.5752,0.39014,1.5621
1.408,0.51722,0.68018,0.54004,0.39014,1.5484
1.416,0.50208,0.6748,0.50977,0.39502,1.5357
1.424,0.48717,0.65479,0.49023,0.39014,1.5239
1.432,0.47105,0.58008,0.48486,0.4502,1.5122
1.44,0.45492,0.5,0.47998,0.49512,1.4976
1.448,0.4388,0.45508,0.46484,0.53516,1.4858
1.456,0.42292,0.43018,0.45996,0.56006,1.478
1.464,0.40728,0.41992,0.45996,0.56006,1.4819
1.472,0.39189,0.40479,0.46484,0.56982,1.5083
1.48,0.37845,0.3999,0.4502,0.5752,1.566
1.488,0.36526,0.37988,0.47021,0.58496,1.6608
1.496,0.35377,0.31494,0.60498,0.61475,1.7898
1.504,0.34254,0.39014,0.75977,0.56006,1.9472
1.512,0.33203,0.59521,0.66016,0.3999,2.1241
1.52,0.32152,0.84473,0.2251,0.27002,2.3079
1.528,0.312,1.1396,-0.37988,0.18506,2.4643
1.536,0.30247,1.165,-0.49951,0.375,2.5914
1.544,0.29441,0.45996,-0.49951,0.625,2.7097
1.552,0.28659,0.33008,-0.49951,0.66016,2.8025
1.56,0.27975,0.3501,-0.19482,0.60986,2.8622
1.568,0.27315,0.35498,0.24023,0.60498,2.8905
1.576,0.26655,0.35986,0.47021,0.59521,2.8935
1.584,0.25996,0.36523,0.5752,0.58984,2.8749
1.592,0.25336,0.37012,0.60498,0.58496,2.8407
1.6,0.24701,0.375,0.625,0.58008,2.8006
1.608,0.2409,0.39014,0.62988,0.56982,2.7625
1.616,0.23504,0.3999,0.64014,0.56494,2.7273
1.624,0.22942,0.39014,0.64014,0.5752,2.697
1.632,0.22404,0.3999,0.64014,0.56006,2.6716
1.64,0.2194,0.41504,0.63477,0.55518,2.6491
1.648,0.215,0.41504,0.64014,0.55518,2.6285
1.656,0.21109,0.43506,0.63477,0.54004,2.608
1.664,0.20743,0.44482,0.63477,0.52979,2.5846
1.672,0.20376,0.45996,0.62988,0.51514,2.5562
1.68,0.2001,0.45508,0.62988,0.5249,2.523
1.688,0.19643,0.46484,0.62988,0.51514,2.48
1.696,0.19277,0.49023,0.62012,0.49512,2.4272
1.704,0.18959,0.50977,0.60498,0.48486,2.3666
1.712,0.18666,0.50977,0.59521,0.4751,2.3001
1.72,0.18397,0.53516,0.58496,0.45996,2.2307
1.728,0.18153,0.54492,0.5752,0.44482,2.1701
1.736,0.17933,0.55518,0.56982,0.43506,2.1183
1.744,0.17713,0.56006,0.56494,0.43506,2.0674
1.752,0.17518,0.55518,0.56494,0.43994,2.0225
1.76,0.17322,0.56006,0.56982,0.44482,1.9853
1.768,0.17151,0.5498,0.58008,0.4502,1.957
1.776,0.1698,0.54492,0.6001,0.45508,1.9365
1.784,0.16834,0.55518,0.62012,0.4502,1.9208
1.792,0.16687,0.55518,0.63477,0.45508,1.912
1.8,0.1654,0.5498,0.6499,0.45508,1.9071
1.808,0.16418,0.54004,0.65479,0.47021,1.9052
1.816,0.16272,0.53516,0.65479,0.47998,1.9022
1.824,0.1615,0.53516,0.63477,0.49023,1.8993
1.832,0.15979,0.53516,0.62988,0.49023,1.8964
1.84,0.15832,0.52979,0.63477,0.49023,1.8895
1.848,0.15612,0.5249,0.62988,0.49512,1.8788
1.856,0.15417,0.53516,0.62988,0.49023,1.8631
1.864,0.15197,0.54004,0.63477,0.48486,1.8456
1.872,0.14977,0.53516,0.64014,0.49512,1.827
1.88,0.14708,0.5498,0.64502,0.48486,1.8074
1.888,0.14464,0.56006,0.6499,0.47998,1.7879
1.896,0.14097,0.5752,0.6499,0.46484,1.7664
1.904,0.13755,0.60498,0.66992,0.4502,1.7449
1.912,0.13291,0.62988,0.6748,0.4248,1.7253
1.92,0.12827,0.64014,0.68018,0.41992,1.7097
1.928,0.12265,0.64014,0.68506,0.41992,1.6979
1.936,0.11703,0.64502,0.6748,0.41504,1.6891
1.944,0.11068,0.66992,0.64014,0.39502,1.6784
1.952,0.10457,0.66992,0.56982,0.39014,1.6657
1.96,0.099194,0.6748,0.54492,0.39502,1.653
1.968,0.093819,0.66992,0.52979,0.38525,1.6403
1.976,0.089177,0.64014,0.50488,0.41016,1.6237
1.984,0.084535,0.56982,0.5,0.45996,1.6022
1.992,0.079648,0.5,0.49512,0.50488,1.5816
2,0.074762,0.45996,0.48486,0.53516,1.567
2.008,0.069631,0.43018,0.4751,0.55518,1.563
2.016,0.064745,0.41992,0.47021,0.56006,1.5787
2.024,0.060836,0.41504,0.46484,0.56006,1.6129
2.032,0.057171,0.41504,0.46484,0.56006,1.6716
2.04,0.054239,0.37988,0.5,0.58008,1.7674
2.048,0.051551,0.33008,0.64014,0.60498,1.9003
2.056,0.04862,0.41992,0.77002,0.53516,2.0616
2.064,0.045932,0.63477,0.61475,0.36523,2.2395
2.072,0.043,0.89502,0.18506,0.24023,2.4184
2.08,0.040068,1.21,-0.43457,0.16016,2.5846
2.088,0.036892,0.87012,-0.49951,0.41016,2.7273
2.096,0.033716,0.48486,-0.49951,0.60986,2.8377
2.104,0.03054,0.37988,-0.49951,0.62988,2.914
2.112,0.027608,0.39014,-0.080078,0.58496,2.957
2.12,0.025409,0.375,0.31494,0.58496,2.9707
2.128,0.02321,0.37988,0.50977,0.58496,2.9629
2.136,0.021744,0.375,0.58984,0.5752,2.9404
2.144,0.020523,0.37988,0.62012,0.5752,2.9101
2.152,0.019301,0.39014,0.62988,0.56494,2.8749
2.16,0.018324,0.39502,0.64014,0.55518,2.8377
2.168,0.017347,0.41016,0.64502,0.5498,2.7996
2.176,0.016369,0.41504,0.64502,0.55518,2.7634
2.184,0.016369,0.41504,0.64502,0.54492,2.7341
2.192,0.016369,0.41992,0.64014,0.54492,2.7097
2.2,0.017102,0.43994,0.6499,0.52979,2.6882
2.208,0.017835,0.44482,0.64502,0.52002,2.6657
2.216,0.018324,0.45996,0.64502,0.51514,2.6393
2.224,0.019057,0.45508,0.64502,0.52002,2.61
2.232,0.019301,0.45508,0.64014,0.50977,2.5738
2.24,0.019546,0.4751,0.62988,0.49512,2.5279
2.248,0.01979,0.49512,0.62988,0.4751,2.4741
2.256,0.020279,0.50977,0.62988,0.4751,2.4106
2.264,0.020767,0.50488,0.60986,0.45996,2.3412
2.272,0.021256,0.53516,0.58496,0.43994,2.2708
2.28,0.021989,0.5498,0.58008,0.43018,2.2023
2.288,0.022722,0.55518,0.56982,0.4248,2.1427
2.296,0.023455,0.56006,0.56494,0.43506,2.0909
2.304,0.024188,0.56982,0.56982,0.4248,2.0489
2.312,0.024432,0.55518,0.56982,0.43994,2.0166
2.32,0.024921,0.55518,0.58496,0.43506,1.9922
2.328,0.024921,0.5498,0.59521,0.43994,1.9746
2.336,0.024921,0.55518,0.62012,0.44482,1.9629
2.344,0.025165,0.54492,0.62988,0.45508,1.9521
2.352,0.025409,0.54004,0.6499,0.46484,1.9413
2.36,0.025654,0.53516,0.66016,0.46484,1.9316
2.368,0.026142,0.53516,0.65479,0.4751,1.9198
2.376,0.025654,0.52979,0.6499,0.48486,1.9101
2.384,0.025409,0.5249,0.64502,0.49023,1.9013
2.392,0.024188,0.52979,0.64502,0.49023,1.8925
2.4,0.022966,0.53516,0.64502,0.49512,1.8798
2.408,0.020767,0.5249,0.64502,0.50488,1.8631
2.416,0.018568,0.53516,0.6499,0.49023,1.8456
2.424,0.015636,0.5498,0.65479,0.48486,1.8299
2.432,0.012705,0.56006,0.65479,0.47021,1.8152
2.44,0.0097728,0.56006,0.65479,0.46484,1.7986
2.448,0.006841,0.5752,0.6499,0.46484,1.7781
2.456,0.0036648,0.60498,0.66992,0.44482,1.7566
2.464,0.00048864,0.60986,0.6748,0.43994,1.7361
2.472,0,0.64502,0.68018,0.41992,1.7175
2.48,-0.00048864,0.62988,0.68506,0.4248,1.7009
2.488,-0.00048864,0.64502,0.6748,0.41016,1.6823
2.496,-0.00048864,0.6748,0.64014,0.38525,1.6647
2.504,-0.00048864,0.66992,0.5752,0.39014,1.6461
2.512,-0.00048864,0.6748,0.54004,0.375,1.6256
2.52,-0.00048864,0.66992,0.52979,0.37988,1.6031
2.528,-0.00048864,0.62988,0.50488,0.41016,1.5846
2.536,-0.00048864,0.56006,0.49512,0.46484,1.567
2.544,-0.00048864,0.49023,0.49023,0.50977,1.5484
2.552,-0.00048864,0.44482,0.48486,0.54004,1.5357
2.56,-0.00048864,0.41504,0.47021,0.56006,1.5337
2.568,-0.00048864,0.41992,0.46484,0.56006,1.5523
2.576,-0.00048864,0.41016,0.46484,0.56494,1.6012
2.584,-0.00048864,0.3999,0.46484,0.5752,1.6852
2.592,-0.00048864,0.36523,0.49023,0.58984,1.8016
2.6,-0.00048864,0.31982,0.64502,0.61475,1.9472
2.608,-0.00048864,0.41016,0.76514,0.54004,2.1114
2.616,-0.00048864,0.61475,0.6001,0.37988,2.2825
2.624,-0.00048864,0.88477,0.1499,0.25488,2.4282
2.632,-0.00048864,1.1997,-0.44482,0.18018,2.5503
2.64,-0.00048864,0.83496,-0.49951,0.43994,2.6676
2.648,-0.00048864,0.48486,-0.49951,0.61475,2.7654
2.656,-0.00048864,0.38525,-0.49951,0.62988,2.8358
2.664,-0.00048864,0.39014,-0.060059,0.59521,2.8759
2.672,-0.00048864,0.37012,0.3252,0.60498,2.8895
2.68,-0.00048864,0.35986,0.50977,0.58984,2.8798
2.688,-0.00048864,0.35986,0.58496,0.58496,2.8504
2.696,-0.00048864,0.35498,0.60986,0.58496,2.8094
2.704,-0.00048864,0.37012,0.62988,0.5752,2.7654
2.712,-0.00048864,0.35498,0.62988,0.58496,2.7253
2.72,-0.00048864,0.37012,0.63477,0.58008,2.6911
2.728,-0.00048864,0.38525,0.63477,0.5752,2.6628
2.736,-0.00048864,0.3999,0.63477,0.56006,2.6383
2.744,-0.00048864,0.41016,0.64502,0.5498,2.6158
2.752,-0.00048864,0.41504,0.64014,0.55518,2.5953
2.76,-0.00048864,0.4248,0.63477,0.54004,2.5728
2.768,-0.00048864,0.43994,0.63477,0.53516,2.5474
2.776,-0.00048864,0.43994,0.63477,0.52979,2.5152
2.784,-0.00048864,0.4502,0.63477,0.5249,2.4721
2.792,-0.00048864,0.45508,0.64014,0.51514,2.4194
2.8,-0.00048864,0.47998,0.625,0.5,2.3587
2.808,-0.00048864,0.50488,0.61475,0.4751,2.2933
2.816,-0.00048864,0.51514,0.59521,0.46484,2.2239
2.824,-0.00048864,0.54004,0.58008,0.44482,2.1632
2.832,-0.00048864,0.5498,0.56006,0.43994,2.1095
2.84,-0.00048864,0.54004,0.56006,0.44482,2.0567
2.848,-0.00048864,0.5498,0.56006,0.43994,2.0088
2.856,-0.00048864,0.55518,0.56006,0.43994,1.9687
2.864,-0.00048864,0.54492,0.56006,0.44482,1.9384
2.872,-0.00048864,0.55518,0.56494,0.4502,1.9189
2.88,-0.00048864,0.56494,0.58008,0.43994,1.9062
2.888,-0.00048864,0.5498,0.59521,0.43994,1.8983
2.896,-0.00048864,0.5498,0.62012,0.44482,1.8925
2.904,-0.00048864,0.53516,0.64014,0.45508,1.8866
2.912,-0.00048864,0.54004,0.64502,0.46484,1.8798
2.92,-0.00048864,0.5498,0.64014,0.47021,1.8749
2.928,-0.00048864,0.53516,0.63477,0.46484,1.871
2.936,-0.00048864,0.51514,0.62988,0.5,1.8641
2.944,-0.00048864,0.53516,0.625,0.49023,1.8524
2.952,-0.00048864,0.5249,0.62988,0.49512,1.8368
2.96,-0.00048864,0.51514,0.62988,0.50977,1.8192
2.968,-0.00048864,0.53516,0.64014,0.49512,1.8006
2.976,-0.00048864,0.5498,0.64014,0.48486,1.7791
2.984,-0.00048864,0.54492,0.64502,0.47998,1.7537
2.992,-0.00048864,0.55518,0.64014,0.47998,1.7283
3,-0.00048864,0.56982,0.64014,0.46484,1.7058
3.008,-0.00048864,0.60498,0.65479,0.43506,1.6149
3.016,-0.00048864,0.60498,0.66992,0.43994,1.4917
3.024,-0.00048864,0.62012,0.6748,0.43994,1.4272
3.032,-0.00048864,0.60986,0.6748,0.43994,1.3881
3.04,-0.00048864,0.625,0.66504,0.4248,1.3578
3.048,-0.00048864,0.66016,0.63477,0.39502,1.3333
3.056,-0.00048864,0.66504,0.56982,0.38525,1.3109
3.064,-0.00048864,0.66504,0.53516,0.39502,1.2893
3.072,-0.00048864,0.6499,0.5249,0.3999,1.2678
3.08,-0.00048864,0.62012,0.5,0.41992,1.2473
3.088,-0.00048864,0.5498,0.49023,0.47021,1.2268
3.096,-0.00048864,0.47998,0.48486,0.51514,1.2092
3.104,-0.00048864,0.43506,0.47021,0.5498,1.1984
3.112,-0.00048864,0.41504,0.45996,0.56494,1.2004
3.12,-0.00048864,0.40479,0.45508,0.56982,1.217
3.128,-0.00048864,0.40479,0.45996,0.56494,1.2551
3.136,-0.00048864,0.38525,0.45508,0.58496,1.3265
3.144,-0.00048864,0.39014,0.48486,0.58984,1.436
3.152,-0.00048864,0.31982,0.62988,0.60986,1.5826
3.16,-0.00048864,0.3999,0.75,0.5498,1.7546
3.168,-0.00048864,0.58008,0.60498,0.40479,1.9404
3.176,-0.00048864,0.8501,0.18018,0.26025,2.1232
3.184,-0.00048864,1.1851,-0.42969,0.17529,2.2874
3.192,-0.00048864,0.85986,-0.49951,0.41504,2.4223
3.2,-0.00048864,0.50488,-0.49951,0.6001,2.522
3.208,-0.00048864,0.41504,-0.49951,0.61475,2.5865
3.216,-0.00048864,0.40479,-0.080078,0.58496,2.6188
3.224,-0.00048864,0.37012,0.30518,0.58984,2.6256
3.232,-0.00048864,0.3501,0.51514,0.6001,2.6119
3.24,-0.00048864,0.37012,0.58984,0.58496,2.5846
3.248,-0.00048864,0.36523,0.62012,0.58496,2.5494
3.256,0.00048864,0.37012,0.62988,0.5752,2.5132
3.264,0.0014659,0.37012,0.64502,0.58496,2.477
3.272,0.0031761,0.38525,0.64014,0.56982,2.4438
3.28,0.0048864,0.39014,0.64014,0.56006,2.4145
3.288,0.0065966,0.3999,0.64014,0.56006,2.39
3.296,0.0085512,0.41016,0.64502,0.55518,2.3656
3.304,0.010506,0.41504,0.6499,0.54492,2.3372
3.312,0.012705,0.4248,0.64502,0.54004,2.3079
3.32,0.015148,0.44482,0.64014,0.5249,2.2796
3.328,0.017591,0.4502,0.64014,0.52979,2.2463
3.336,0.01979,0.43994,0.63477,0.52002,2.2014
3.344,0.021989,0.45996,0.64014,0.50977,2.1476
3.352,0.023943,0.47021,0.62988,0.49512,2.086
3.36,0.025898,0.5,0.625,0.47998,2.0176
3.368,0.027608,0.51514,0.60986,0.46484,1.9462
3.376,0.029318,0.52979,0.59521,0.45508,1.8778
3.384,0.031029,0.54004,0.58496,0.44482,1.8143
3.392,0.032739,0.55518,0.58008,0.43506,1.7576
3.4,0.034449,0.55518,0.5752,0.43506,1.7107
3.408,0.036404,0.5498,0.56982,0.43994,1.6755
3.416,0.038602,0.55518,0.5752,0.43994,1.652
3.424,0.040801,0.5498,0.58496,0.43994,1.6403
3.432,0.042512,0.55518,0.59521,0.43994,1.6383
3.44,0.044466,0.54004,0.61475,0.4502,1.6403
3.448,0.046176,0.54004,0.63477,0.45996,1.6432
3.456,0.047887,0.53516,0.6499,0.46484,1.6432
3.464,0.049841,0.54004,0.64502,0.46484,1.6393
3.472,0.051796,0.52979,0.64014,0.4751,1.6325
3.48,0.05375,0.53516,0.62988,0.47998,1.6207
3.488,0.055949,0.52979,0.625,0.48486,1.6041
3.496,0.057171,0.5249,0.625,0.49023,1.5855
3.504,0.058392,0.52979,0.62988,0.49023,1.566
3.512,0.058881,0.5249,0.63477,0.49023,1.5455
3.52,0.05937,0.53516,0.64014,0.49023,1.5279
3.528,0.058881,0.52979,0.64014,0.49512,1.5122
3.536,0.058392,0.53516,0.64014,0.48486,1.4927
3.544,0.056926,0.5498,0.63477,0.4751,1.4692
3.552,0.055705,0.55518,0.62988,0.46484,1.4448
3.56,0.054239,0.58496,0.6499,0.4502,1.4223
3.568,0.052773,0.59521,0.66016,0.44482,1.4008
3.576,0.051307,0.62012,0.66504,0.43018,1.3812
3.584,0.049841,0.62988,0.6748,0.41992,1.3646
3.592,0.048375,0.62012,0.66504,0.43506,1.349
3.6,0.047154,0.6499,0.63477,0.3999,1.3314
3.608,0.045932,0.66504,0.56006,0.39014,1.3099
3.616,0.044955,0.65479,0.5249,0.39014,1.2874
3.624,0.045443,0.66504,0.50488,0.39502,1.2669
3.632,0.045932,0.625,0.48486,0.41504,1.2483
3.64,0.047642,0.56006,0.47998,0.45996,1.2268
3.648,0.049597,0.49023,0.47021,0.50488,1.2072
3.656,0.051796,0.43994,0.45996,0.54004,1.1945
3.664,0.054239,0.41504,0.4502,0.56006,1.1926
3.672,0.056926,0.40479,0.44482,0.5752,1.2092
3.68,0.059858,0.3999,0.43994,0.56982,1.2522
3.688,0.063034,0.3999,0.43994,0.56494,1.3294
3.696,0.066455,0.38525,0.45508,0.56006,1.4448
3.704,0.07012,0.30518,0.58496,0.62012,1.5963
3.712,0.074029,0.36523,0.72998,0.5752,1.7742
3.72,0.077938,0.54004,0.60986,0.43018,1.9374
3.728,0.082091,0.80469,0.20996,0.2749,2.087
3.736,0.086245,1.1548,-0.41992,0.16992,2.2434
3.744,0.090398,1.1699,-0.49951,0.35498,2.3842
3.752,0.094552,0.52002,-0.49951,0.59521,2.4946
3.76,0.098705,0.40479,-0.49951,0.61475,2.5689
3.768,0.10286,0.39014,-0.16992,0.58496,2.608
3.776,0.10701,0.37012,0.26025,0.59521,2.6149
3.784,0.11092,0.34521,0.48486,0.6001,2.5982
3.792,0.11483,0.34521,0.56982,0.59521,2.565
3.8,0.11874,0.33496,0.6001,0.6001,2.5239
3.808,0.12265,0.34521,0.61475,0.58984,2.4809
3.816,0.12631,0.34521,0.625,0.58984,2.4409
3.824,0.13022,0.36523,0.625,0.58496,2.4047
3.832,0.13389,0.375,0.62988,0.5752,2.3744
3.84,0.13755,0.37988,0.62988,0.56982,2.349
3.848,0.14097,0.39014,0.625,0.56006,2.3275
3.856,0.14439,0.40479,0.62988,0.56006,2.3099
3.864,0.14757,0.41504,0.62988,0.54004,2.2923
3.872,0.15099,0.43018,0.62988,0.52979,2.2698
3.88,0.15441,0.43994,0.62988,0.53516,2.2375
3.888,0.15807,0.43506,0.625,0.52979,2.1955
3.896,0.16198,0.43994,0.61475,0.51514,2.1427
3.904,0.16589,0.45996,0.60986,0.50488,2.0802
3.912,0.17078,0.47998,0.60498,0.49023,2.0108
3.92,0.17567,0.4751,0.59521,0.49023,1.9462
3.928,0.18129,0.5,0.58496,0.47021,1.8866
3.936,0.1869,0.51514,0.56494,0.45508,1.825
3.944,0.19252,0.52979,0.56006,0.44482,1.7664
3.952,0.19814,0.53516,0.55518,0.43994,1.7146
3.96,0.20376,0.52979,0.55518,0.45508,1.6755
3.968,0.20938,0.53516,0.56006,0.45996,1.6471
3.976,0.21647,0.52979,0.56494,0.46484,1.6276
3.984,0.2238,0.53516,0.58008,0.4502,1.6149
3.992,0.23235,0.5249,0.6001,0.45996,1.6031
4,0.24114,0.51514,0.60986,0.47021,1.5885
4.008,0.25116,0.51514,0.625,0.47021,1.5709
4.016,0.26118,0.52002,0.62988,0.47998,1.5513
4.024,0.27217,0.51514,0.62988,0.4751,1.5347
4.032,0.28317,0.50488,0.61475,0.49512,1.5181
4.04,0.29343,0.5,0.60986,0.50977,1.4936
4.048,0.30369,0.50488,0.60986,0.50488,1.4663
4.056,0.31322,0.5,0.61475,0.50977,1.4389
4.064,0.32299,0.50977,0.62012,0.49512,1.4106
4.072,0.33301,0.50977,0.62988,0.5,1.3832
4.08,0.34327,0.52002,0.62988,0.49512,1.3539
4.088,0.35353,0.5249,0.62988,0.48486,1.3216
4.096,0.36404,0.53516,0.62988,0.4751,1.2893
4.104,0.37308,0.5498,0.625,0.47021,1.26
4.112,0.38236,0.55518,0.63477,0.46484,1.2326
4.12,0.39067,0.58008,0.6499,0.4502,1.2141
4.128,0.39897,0.6001,0.65479,0.43994,1.1994
4.136,0.40777,0.58496,0.65479,0.4502,1.1818
4.144,0.41681,0.6001,0.6499,0.43506,1.1623
4.152,0.42634,0.62012,0.625,0.41992,1.1417
4.16,0.43611,0.625,0.55518,0.41016,1.1212
4.168,0.44613,0.63477,0.51514,0.39502,1.0978
4.176,0.45639,0.64014,0.5,0.3999,1.0684
4.184,0.46665,0.60986,0.47998,0.4248,1.0381
4.192,0.47716,0.53516,0.47021,0.4751,1.0068
4.2,0.48668,0.47021,0.46484,0.50977,0.97556
4.208,0.49646,0.4248,0.45508,0.5498,0.94819
4.216,0.50574,0.39014,0.44482,0.56494,0.9306
4.224,0.51527,0.37988,0.43994,0.58008,0.9306
4.232,0.52651,0.375,0.43994,0.5752,0.95112
4.24,0.53799,0.39014,0.43994,0.56494,1
4.248,0.5507,0.37012,0.44482,0.58496,1.0841
4.256,0.56365,0.29492,0.55518,0.62012,1.2072
4.264,0.57586,0.29004,0.70996,0.58008,1.3675
4.272,0.58808,0.51514,0.72998,0.4502,1.5523
4.28,0.60005,0.77979,0.33984,0.30029,1.7439
4.288,0.61202,1.0801,-0.17969,0.21484,1.9247
4.296,0.6257,1.1299,-0.49951,0.39502,2.0811
4.304,0.63963,0.47021,-0.49951,0.63477,2.2023
4.312,0.65527,0.35986,-0.49951,0.6499,2.2835
4.32,0.67115,0.34521,-0.23975,0.60986,2.3265
4.328,0.68923,0.36523,0.18994,0.6001,2.3372
4.336,0.70731,0.33984,0.4248,0.60498,2.3255
4.344,0.72685,0.34521,0.52979,0.59521,2.2952
4.352,0.7464,0.33984,0.56494,0.58496,2.2522
4.36,0.76472,0.3501,0.58496,0.58496,2.2023
4.368,0.78329,0.35498,0.58496,0.58496,2.1515
4.376,0.80088,0.37012,0.59521,0.56494,2.1056
4.384,0.81871,0.37012,0.58984,0.56982,2.0665
4.392,0.83802,0.375,0.59521,0.56494,2.0352
4.4,0.85732,0.37988,0.6001,0.56006,2.0088
4.408,0.87784,0.39014,0.60498,0.56006,1.9853
4.416,0.89836,0.3999,0.6001,0.5498,1.9619
4.424,0.91742,0.41016,0.60498,0.54004,1.9374
4.432,0.93672,0.41992,0.58984,0.52979,1.9101
4.44,0.9548,0.43018,0.59521,0.52002,1.8739
4.448,0.97312,0.44482,0.58496,0.50488,1.8289
4.456,0.98656,0.45508,0.58008,0.5,1.7752
4.464,1,0.4502,0.56006,0.50488,1.7146
4.472,1,0.47021,0.55518,0.49023,1.6481
4.48,1,0.49512,0.54004,0.47021,1.5767
4.488,1,0.50488,0.52002,0.45508,1.5064
4.496,1,0.5,0.51514,0.45996,1.4409
4.504,1,0.50977,0.51514,0.45996,1.3842
4.512,1,0.50977,0.51514,0.46484,1.3382
4.52,1,0.50488,0.51514,0.46484,1.3089
4.528,1,0.50977,0.52979,0.45996,1.2903
4.536,1,0.49023,0.54492,0.47998,1.2776
4.544,1,0.49512,0.56006,0.4751,1.2708
4.552,1,0.5,0.58008,0.47998,1.2678
4.56,1,0.50977,0.60498,0.46484,1.2659
4.568,1,0.50977,0.62012,0.4751,1.2649
4.576,1,0.5,0.62988,0.49023,1.263
4.584,1,0.50977,0.62988,0.48486,1.2571
4.592,1,0.49512,0.62988,0.5,1.2454
4.6,1,0.49023,0.62988,0.50977,1.2287
4.608,1,0.49512,0.64014,0.50488,1.2102
4.616,1,0.50977,0.64502,0.49512,1.1955
4.624,1,0.52002,0.6499,0.49023,1.1828
4.632,1,0.53516,0.65479,0.48486,1.1642
4.64,1,0.53516,0.64502,0.48486,1.1427
4.648,1,0.54492,0.62988,0.47021,1.1202
4.656,1,0.56006,0.62988,0.46484,1.0948
4.664,1,0.58496,0.63477,0.44482,1.0704
4.672,1,0.60498,0.6499,0.43994,1.0459
4.68,1,0.60498,0.65479,0.43994,1.0215
4.688,1,0.59521,0.64502,0.44482,1.001
4.696,1,0.60498,0.64014,0.43018,0.98338
4.704,1,0.64502,0.625,0.39502,0.96774
4.712,1,0.63477,0.56494,0.3999,0.95308
4.72,1,0.625,0.53516,0.41992,0.94233
4.728,1,0.64014,0.52979,0.40479,0.92962
4.736,1,0.62012,0.50488,0.4248,0.90909
4.744,1,0.53516,0.49023,0.47998,0.88563
4.752,1,0.4502,0.49023,0.53516,0.85924
4.76,1,0.41504,0.4751,0.56006,0.83284
4.768,1,0.39014,0.46484,0.56982,0.81036
4.776,1,0.375,0.46484,0.58496,0.80254
4.784,1,0.37012,0.46484,0.58496,0.81818
4.792,1,0.37012,0.45996,0.58496,0.86608
4.8,1,0.35498,0.47998,0.58496,0.9521
4.808,1,0.29492,0.60498,0.60986,1.0792
4.816,1,0.375,0.75488,0.55518,1.2151
4.824,1,0.58008,0.75977,0.41016,1.3597
4.832,1,0.83984,0.33496,0.27002,1.5308
4.84,1,1.1196,-0.21484,0.20996,1.7097
4.848,1,0.83008,-0.49951,0.43506,1.8778
4.856,1,0.40479,-0.49951,0.66504,2.0186
4.864,1,0.30029,-0.49951,0.68506,2.1271
4.872,1,0.33984,-0.18994,0.61475,2.1994
4.88,1,0.34521,0.2251,0.60498,2.2356
4.888,1,0.33984,0.46484,0.60498,2.2317
4.896,1,0.3501,0.56494,0.58496,2.2023
4.904,1,0.37012,0.58984,0.56494,2.1613
4.912,1,0.37012,0.60986,0.56982,2.0978
4.92,1,0.37988,0.625,0.56006,2.0596
4.928,1,0.37988,0.62988,0.56006,2.0215
4.936,1,0.38525,0.62012,0.56494,1.9853
4.944,1,0.39014,0.625,0.56006,1.9384
4.952,1,0.39502,0.62012,0.56006,1.9101
4.96,1,0.40479,0.61475,0.5498,1.8817
4.968,1,0.41016,0.61475,0.54492,1.8162
4.976,1,0.4248,0.61475,0.52979,1.7722
4.984,1,0.4248,0.62012,0.53516,1.7195
4.992,1,0.43018,0.60986,0.52979,1.6413
5,1,0.43994,0.60986,0.51514,1.5934
5.008,1,0.45508,0.6001,0.50977,1.5386
5.016,1,0.46484,0.59521,0.49512,1.4819
5.024,1,0.47998,0.58496,0.4751,1.4291
5.032,1,0.5,0.56982,0.46484,1.4604
5.04,1,0.50488,0.56006,0.46484,1.5406
5.048,1,0.50977,0.55518,0.46484,1.5758
5.056,1,0.50977,0.55518,0.46484,1.5973
5.064,1,0.51514,0.55518,0.45996,1.609
5.072,1,0.50977,0.56006,0.46484,1.6197
5.08,1,0.50977,0.56982,0.4751,1.6334
5.088,1,0.50977,0.58008,0.47021,1.6383
5.096,1,0.51514,0.6001,0.46484,1.6422
5.104,1,0.50977,0.62012,0.47021,1.6442
5.112,1,0.50977,0.64014,0.48486,1.6422
5.12,1,0.50977,0.65479,0.49023,1.6344
5.128,1,0.52002,0.65479,0.49023,1.6276
5.136,1,0.5249,0.6499,0.5,1.6207
5.144,1,0.49512,0.64502,0.51514,1.6109
5.152,1,0.5,0.64502,0.52002,1.5992
5.16,1,0.51514,0.65479,0.50488,1.5875
5.168,1,0.53516,0.65479,0.49023,1.5777
5.176,1,0.54492,0.65479,0.49023,1.5728
5.184,1,0.5498,0.65479,0.49023,1.5718
5.192,0.99316,0.55518,0.6499,0.47998,1.5738
5.2,0.98632,0.56982,0.64014,0.46484,1.5748
5.208,0.97044,0.58496,0.64014,0.4502,1.5748
5.216,0.95456,0.60986,0.6499,0.43994,1.5748
5.224,0.93941,0.62012,0.66504,0.43506,1.5748
5.232,0.92426,0.62988,0.66992,0.41992,1.5728
5.24,0.90985,0.60498,0.66016,0.4502,1.5689
5.248,0.89543,0.60986,0.66504,0.44482,1.5621
5.256,0.88028,0.6499,0.64502,0.41504,1.5523
5.264,0.86514,0.65479,0.58008,0.3999,1.5406
5.272,0.8495,0.6499,0.53516,0.40479,1.5288
5.28,0.83386,0.65479,0.52002,0.39502,1.5181
5.288,0.81847,0.625,0.50488,0.4248,1.5142
5.296,0.80332,0.54492,0.49512,0.47998,1.52
5.304,0.78866,0.4751,0.49023,0.52979,1.5406
5.312,0.774,0.43506,0.48486,0.55518,1.5904
5.32,0.76057,0.41504,0.46484,0.56494,1.6755
5.328,0.74737,0.3999,0.46484,0.56982,1.7957
5.336,0.73516,0.39014,0.46484,0.58496,1.9492
5.344,0.72294,0.39014,0.46484,0.58496,2.1261
5.352,0.71121,0.36523,0.47998,0.6001,2.3138
5.36,0.69949,0.30518,0.62012,0.62988,2.4956
5.368,0.688,0.39502,0.7749,0.56006,2.6588
5.376,0.67652,0.58984,0.66016,0.41016,2.7908
5.384,0.66626,0.8501,0.21484,0.26514,2.8778
5.392,0.65624,1.165,-0.41992,0.17529,2.9277
5.4,0.64696,0.89014,-0.49951,0.39502,2.9541
5.408,0.63767,0.45508,-0.49951,0.63477,2.956
5.416,0.62766,0.35498,-0.49951,0.65479,2.9374
5.424,0.61764,0.37012,-0.16992,0.60498,2.9032
5.432,0.60689,0.36523,0.27002,0.6001,2.8602
5.44,0.59638,0.37012,0.49023,0.60498,2.8133
5.448,0.58563,0.37012,0.5752,0.58496,2.7674
5.456,0.57513,0.375,0.60986,0.5752,2.7263
5.464,0.56462,0.37012,0.625,0.58496,2.6921
5.472,0.55436,0.375,0.62988,0.58008,2.6657
5.48,0.54483,0.39014,0.63477,0.56982,2.6422
5.488,0.53555,0.39014,0.64502,0.58008,2.6207
5.496,0.527,0.40479,0.64502,0.56006,2.5973
5.504,0.51845,0.41504,0.64014,0.55518,2.5689
5.512,0.50941,0.41992,0.64014,0.55518,2.5376
5.52,0.50061,0.43018,0.63477,0.54004,2.4985
5.528,0.49157,0.43994,0.63477,0.53516,2.4497
5.536,0.48278,0.45508,0.63477,0.5249,2.3949
5.544,0.47496,0.45996,0.62988,0.52002,2.3382
5.552,0.46738,0.45996,0.62988,0.52002,2.2805
5.56,0.46054,0.47021,0.62988,0.50977,2.2239
5.568,0.45395,0.48486,0.62012,0.49512,2.173
5.576,0.4471,0.50977,0.62012,0.4751,2.129
5.584,0.44026,0.52979,0.6001,0.45996,2.0958
5.592,0.43318,0.5498,0.59521,0.43994,2.0694
5.6,0.42609,0.55518,0.58496,0.43506,2.0459
5.608,0.41876,0.54492,0.58008,0.4502,2.0293
5.616,0.41168,0.55518,0.58496,0.44482,2.0196
5.624,0.40435,0.54492,0.58496,0.45508,2.0147
5.632,0.39726,0.5498,0.58984,0.45996,2.0088
5.64,0.39091,0.54492,0.6001,0.45508,2.001
5.648,0.3848,0.55518,0.60986,0.44482,1.9922
5.656,0.37894,0.54492,0.63477,0.45996,1.9814
5.664,0.37332,0.5498,0.6499,0.46484,1.9687
5.672,0.36624,0.56006,0.65479,0.45996,1.9521
5.68,0.35939,0.5498,0.65479,0.46484,1.9345
5.688,0.35133,0.54004,0.64502,0.47998,1.9189
5.696,0.34327,0.54004,0.63477,0.48486,1.9052
5.704,0.3357,0.53516,0.62988,0.49512,1.8866
5.712,0.32812,0.54004,0.63477,0.49023,1.8661
5.72,0.32079,0.5498,0.64502,0.49023,1.8465
5.728,0.31346,0.5498,0.6499,0.49023,1.825
5.736,0.30467,0.5498,0.64502,0.49023,1.8006
5.744,0.29587,0.55518,0.6499,0.4751,1.7771
5.752,0.28561,0.56982,0.64014,0.47021,1.7576
5.76,0.27535,0.5752,0.63477,0.46484,1.741
5.768,0.26435,0.6001,0.6499,0.44482,1.7263
5.776,0.25336,0.62012,0.66504,0.43994,1.7126
5.784,0.24188,0.625,0.66992,0.43506,1.7028
5.792,0.23064,0.62988,0.6748,0.43018,1.694
5.8,0.22038,0.625,0.66504,0.43506,1.6804
5.808,0.21036,0.66992,0.64502,0.39502,1.6618
5.816,0.20132,0.66992,0.5752,0.39014,1.6413
5.824,0.19228,0.6748,0.52979,0.39014,1.6197
5.832,0.18422,0.66504,0.52002,0.39502,1.6002
5.84,0.17615,0.66992,0.50488,0.41504,1.5894
5.848,0.16882,0.56494,0.49023,0.45996,1.5953
5.856,0.1615,0.5,0.48486,0.5,1.6276
5.864,0.15514,0.45508,0.47021,0.53516,1.694
5.872,0.14879,0.4248,0.46484,0.56006,1.7967
5.88,0.14317,0.41504,0.45996,0.56006,1.9326
5.888,0.1378,0.41016,0.46484,0.56494,2.0714
5.896,0.13267,0.41504,0.45996,0.56006,2.2131
5.904,0.12753,0.39014,0.47021,0.58008,2.3783
5.912,0.1224,0.33496,0.6001,0.60498,2.5445
5.92,0.11752,0.39014,0.75488,0.56006,2.6921
5.928,0.11312,0.56982,0.66016,0.41504,2.8104
5.936,0.10872,0.83496,0.25,0.26514,2.8925
5.944,0.10481,1.1597,-0.34473,0.16504,2.9365
5.952,0.10115,1.1851,-0.49951,0.35498,2.9472
5.96,0.098216,0.5249,-0.49951,0.59521,2.9326
5.968,0.095285,0.40479,-0.49951,0.62012,2.9013
5.976,0.093086,0.39014,-0.16992,0.58496,2.8592
5.984,0.091131,0.3999,0.25,0.58496,2.8162
5.992,0.089665,0.37012,0.47998,0.58496,2.7732
6,0.088199,0.37012,0.58008,0.58008,2.7322
6.008,0.086978,0.375,0.60498,0.5752,2.697
6.016,0.086,0.37988,0.625,0.56982,2.6676
6.024,0.085268,0.38525,0.62988,0.56006,2.6432
6.032,0.084535,0.39014,0.64014,0.56982,2.6217
6.04,0.084046,0.39502,0.63477,0.56006,2.5992
6.048,0.083557,0.41504,0.63477,0.54492,2.5748
6.056,0.083313,0.41504,0.64014,0.54492,2.5464
6.064,0.083069,0.41504,0.64502,0.5498,2.5093
6.072,0.083069,0.43018,0.63477,0.53516,2.4614
6.08,0.083069,0.45508,0.63477,0.52002,2.4057
6.088,0.083069,0.4502,0.63477,0.51514,2.3519
6.096,0.083069,0.45508,0.64014,0.51514,2.2972
6.104,0.083069,0.4751,0.63477,0.49512,2.2336
6.112,0.083069,0.47998,0.62988,0.49512,2.1672
6.12,0.083069,0.5,0.62012,0.4751,2.1046
6.128,0.083313,0.52002,0.60498,0.45508,2.0508
6.136,0.083557,0.5249,0.59521,0.45508,2.0078
6.144,0.083802,0.54004,0.58496,0.43994,1.9746
6.152,0.084535,0.55518,0.58008,0.43506,1.9541
6.16,0.085268,0.55518,0.56982,0.43506,1.9433
6.168,0.086245,0.5498,0.56982,0.43994,1.9384
6.176,0.087466,0.56006,0.56494,0.43506,1.9355
6.184,0.088444,0.5498,0.58008,0.43994,1.9345
6.192,0.089421,0.56006,0.58984,0.43506,1.9326
6.2,0.08991,0.55518,0.60986,0.43994,1.9267
6.208,0.090643,0.5498,0.62988,0.45508,1.9159
6.216,0.090643,0.55518,0.64014,0.4502,1.9003
6.224,0.090887,0.53516,0.65479,0.46484,1.8827
6.232,0.090154,0.53516,0.65479,0.47998,1.8622
6.24,0.089665,0.54004,0.63477,0.4751,1.8407
6.248,0.088199,0.53516,0.62988,0.47998,1.8201
6.256,0.086733,0.5249,0.62988,0.49023,1.8006
6.264,0.084535,0.53516,0.63477,0.48486,1.7791
6.272,0.08258,0.54004,0.64502,0.48486,1.7566
6.28,0.080625,0.54004,0.64502,0.49023,1.7341
6.288,0.078671,0.56006,0.64502,0.47021,1.7146
6.296,0.076472,0.5498,0.6499,0.47998,1.697
6.304,0.074517,0.56006,0.64014,0.48486,1.6764
6.312,0.071586,0.5752,0.64014,0.46484,1.6549
6.32,0.068654,0.58984,0.65479,0.45508,1.6344
6.328,0.064989,0.60498,0.66504,0.43994,1.6178
6.336,0.061324,0.625,0.6748,0.4248,1.6031
6.344,0.057904,0.62988,0.6748,0.4248,1.5894
6.352,0.054728,0.62012,0.66992,0.43506,1.5738
6.36,0.051796,0.6499,0.64502,0.40479,1.5562
6.368,0.049108,0.65479,0.58496,0.39502,1.5376
6.376,0.046665,0.65479,0.54492,0.39014,1.5191
6.384,0.044222,0.66504,0.52979,0.39014,1.5064
6.392,0.042023,0.64014,0.50488,0.3999,1.5015
6.4,0.040068,0.5752,0.49023,0.45508,1.5073
6.408,0.038114,0.5,0.49023,0.49512,1.5347
6.416,0.036159,0.44482,0.47998,0.54004,1.5924
6.424,0.034449,0.41992,0.45996,0.55518,1.6862
6.432,0.032983,0.41016,0.46484,0.56982,1.8182
6.44,0.031762,0.40479,0.46484,0.56494,1.9795
6.448,0.030784,0.41016,0.44482,0.56006,2.1574
6.456,0.030051,0.38525,0.45996,0.5752,2.3382
6.464,0.029563,0.33008,0.58008,0.6001,2.5054
6.472,0.029318,0.37988,0.73486,0.56494,2.6471
6.48,0.029318,0.53516,0.73975,0.43018,2.7468
6.488,0.029563,0.80469,0.30518,0.26514,2.8104
6.496,0.030051,1.1348,-0.29004,0.17529,2.8514
6.504,0.031029,1.1997,-0.49951,0.3252,2.8651
6.512,0.032006,0.56494,-0.49951,0.5752,2.8524
6.52,0.033472,0.4248,-0.49951,0.60986,2.8221
6.528,0.034938,0.40479,-0.21484,0.58008,2.783
6.536,0.036404,0.37988,0.23486,0.58496,2.74
6.544,0.03787,0.37012,0.46484,0.58496,2.6979
6.552,0.039091,0.375,0.56982,0.58496,2.6588
6.56,0.040313,0.37012,0.60498,0.58008,2.6266
6.568,0.040801,0.375,0.625,0.5752,2.6002
6.576,0.041534,0.37988,0.62988,0.5752,2.5777
6.584,0.041779,0.375,0.63477,0.56982,2.5582
6.592,0.042023,0.39014,0.63477,0.56494,2.5386
6.6,0.042267,0.40479,0.64014,0.56006,2.5152
6.608,0.042756,0.41504,0.64014,0.54492,2.4878
6.616,0.043,0.41992,0.64014,0.54492,2.4506
6.624,0.043489,0.4248,0.64014,0.53516,2.4047
6.632,0.043489,0.43506,0.63477,0.53516,2.349
6.64,0.043733,0.4502,0.64014,0.52002,2.2854
6.648,0.043489,0.46484,0.62988,0.51514,2.2199
6.656,0.043245,0.45996,0.62988,0.51514,2.1544
6.664,0.043245,0.47998,0.62012,0.49023,2.0919
6.672,0.043245,0.5,0.61475,0.4751,2.0352
6.68,0.043489,0.51514,0.60498,0.45996,1.9883
6.688,0.043733,0.5249,0.59521,0.4502,1.9541
6.696,0.043978,0.5498,0.58496,0.43994,1.9277
6.704,0.044466,0.55518,0.5752,0.4248,1.9091
6.712,0.044955,0.56006,0.56494,0.43018,1.8983
6.72,0.045688,0.5498,0.56982,0.43994,1.8944
6.728,0.046665,0.55518,0.56494,0.43994,1.8964
6.736,0.047887,0.5498,0.5752,0.43994,1.8974
6.744,0.049353,0.5498,0.58496,0.44482,1.8944
6.752,0.051063,0.55518,0.60498,0.44482,1.8895
6.76,0.052773,0.55518,0.625,0.4502,1.8807
6.768,0.054728,0.54004,0.64014,0.46484,1.8661
6.776,0.056682,0.54492,0.64502,0.46484,1.8495
6.784,0.058881,0.53516,0.64502,0.46484,1.8328
6.792,0.060103,0.53516,0.63477,0.47998,1.8162
6.8,0.061324,0.53516,0.62988,0.48486,1.7967
6.808,0.061813,0.52979,0.62988,0.48486,1.7742
6.816,0.062301,0.5249,0.63477,0.49512,1.7527
6.824,0.06279,0.54004,0.64014,0.49023,1.7351
6.832,0.063279,0.53516,0.6499,0.49023,1.7165
6.84,0.063523,0.53516,0.65479,0.49023,1.6979
6.848,0.064012,0.54492,0.65479,0.48486,1.6823
6.856,0.063523,0.55518,0.64502,0.47021,1.6647
6.864,0.063034,0.5498,0.64014,0.46484,1.6461
6.872,0.061569,0.58984,0.65479,0.44482,1.6305
6.88,0.060347,0.60498,0.66504,0.43994,1.6188
6.888,0.058148,0.625,0.66016,0.43018,1.607
6.896,0.056194,0.62988,0.6748,0.4248,1.5894
6.904,0.05375,0.62012,0.6748,0.43506,1.5689
6.912,0.051551,0.64014,0.65479,0.41504,1.5474
6.92,0.049841,0.66016,0.58984,0.39502,1.5269
6.928,0.048375,0.66504,0.54004,0.39014,1.5073
6.936,0.047154,0.65479,0.52002,0.39502,1.4888
6.944,0.045932,0.64502,0.5,0.40479,1.48
6.952,0.044222,0.56494,0.49023,0.45996,1.4897
6.96,0.042756,0.49023,0.48486,0.50488,1.5259
6.968,0.040801,0.45508,0.47998,0.53516,1.5934
6.976,0.039091,0.43018,0.46484,0.5498,1.695
6.984,0.038114,0.41504,0.46484,0.56494,1.8055
6.992,0.037381,0.41016,0.45996,0.56006,1.9277
7,0.037381,0.39502,0.45508,0.5752,2.0831
7.008,0.037625,0.38525,0.45508,0.58496,2.2551
7.016,0.038114,0.33008,0.56494,0.60986,2.4262
7.024,0.038602,0.31982,0.7251,0.61475,2.5777
7.032,0.039091,0.5249,0.73486,0.43994,2.6989
7.04,0.039824,0.77979,0.3252,0.29004,2.7859
7.048,0.040801,1.0898,-0.22998,0.19531,2.8358
7.056,0.042023,1.1997,-0.49951,0.18994,2.8524
7.064,0.043489,0.56494,-0.49951,0.56982,2.8436
7.072,0.045199,0.43506,-0.49951,0.60498,2.7781
7.08,0.047154,0.41504,-0.25488,0.58008,2.6852
7.088,0.049353,0.38525,0.20996,0.58496,2.6139
7.096,0.051551,0.3501,0.45508,0.6001,2.5523
7.104,0.05375,0.35498,0.56006,0.60498,2.4995
7.112,0.055461,0.34521,0.6001,0.59521,2.4555
7.12,0.057415,0.34521,0.60986,0.58984,2.4203
7.128,0.059125,0.35498,0.62012,0.58496,2.3939
7.136,0.060836,0.37012,0.61475,0.58496,2.3734
7.144,0.062546,0.37012,0.62988,0.58008,2.3519
7.152,0.0645,0.38525,0.62988,0.56982,2.3236
7.16,0.066455,0.39014,0.63477,0.56006,2.2874
7.168,0.068654,0.40479,0.62012,0.55518,2.2414
7.176,0.070853,0.3999,0.62988,0.56006,2.1867
7.184,0.073052,0.41504,0.63477,0.54004,2.131
7.192,0.07525,0.43506,0.625,0.53516,2.0714
7.2,0.077449,0.43994,0.62012,0.52979,2.002
7.208,0.07916,0.45996,0.62012,0.51514,1.9296
7.216,0.081114,0.46484,0.61475,0.50977,1.8583
7.224,0.082336,0.48486,0.60498,0.49023,1.7908
7.232,0.083802,0.5,0.6001,0.4751,1.7312
7.24,0.084779,0.50977,0.58008,0.46484,1.6833
7.248,0.086,0.52979,0.56982,0.45508,1.6481
7.256,0.086978,0.53516,0.56006,0.44482,1.6246
7.264,0.087955,0.5498,0.56006,0.4502,1.6129
7.272,0.089177,0.54004,0.55518,0.44482,1.6109
7.28,0.090643,0.54492,0.55518,0.43994,1.6139
7.288,0.092108,0.53516,0.56006,0.4502,1.6168
7.296,0.093574,0.54492,0.5752,0.44482,1.6168
7.304,0.094796,0.54004,0.59521,0.45508,1.6129
7.312,0.096018,0.53516,0.60986,0.45996,1.6031
7.32,0.096995,0.53516,0.625,0.46484,1.5865
7.328,0.097972,0.54004,0.62988,0.46484,1.567
7.336,0.099194,0.5249,0.62012,0.47998,1.5464
7.344,0.10042,0.52002,0.60986,0.49023,1.523
7.352,0.10164,0.50977,0.60986,0.5,1.4946
7.36,0.1031,0.51514,0.60498,0.5,1.4633
7.368,0.10359,0.52002,0.61475,0.50488,1.435
7.376,0.10408,0.53516,0.62012,0.49023,1.4096
7.384,0.10384,0.53516,0.625,0.49023,1.391
7.392,0.10384,0.54492,0.62012,0.48486,1.3783
7.4,0.1031,0.5498,0.62012,0.48486,1.3646
7.408,0.10261,0.54492,0.61475,0.4751,1.35
7.416,0.10139,0.55518,0.60986,0.4751,1.3353
7.424,0.10042,0.5752,0.61475,0.45996,1.3206
7.432,0.098949,0.60498,0.62988,0.43994,1.305
7.44,0.097728,0.60986,0.63477,0.43506,1.2903
7.448,0.096262,0.61475,0.64502,0.43994,1.2737
7.456,0.094796,0.60498,0.63477,0.43506,1.2522
7.464,0.093574,0.63477,0.625,0.41504,1.2258
7.472,0.092597,0.65479,0.56494,0.39502,1.1965
7.48,0.091864,0.6499,0.51514,0.39502,1.172
7.488,0.091131,0.66016,0.5,0.39014,1.1544
7.496,0.08991,0.64502,0.4751,0.40479,1.1398
7.504,0.088932,0.56982,0.46484,0.45508,1.1398
7.512,0.087711,0.49512,0.46484,0.50488,1.1623
7.52,0.086489,0.43994,0.45508,0.54492,1.217
7.528,0.085512,0.41016,0.44482,0.56006,1.3118
7.536,0.084779,0.39502,0.43994,0.56982,1.4467
7.544,0.084046,0.375,0.43994,0.58496,1.6168
7.552,0.083557,0.37012,0.43994,0.58496,1.8104
7.56,0.083557,0.35986,0.4502,0.58984,2.0117
7.568,0.083802,0.30518,0.5498,0.62012,2.2043
7.576,0.084535,0.29004,0.70508,0.62988,2.3715
7.584,0.085512,0.46484,0.73486,0.47998,2.4927
7.592,0.087222,0.71484,0.37988,0.31982,2.5738
7.6,0.088932,1.0249,-0.19971,0.22021,2.6315
7.608,0.091131,1.1597,-0.49951,0.20508,2.6579
7.616,0.093574,0.56494,-0.49951,0.58496,2.653
7.624,0.096262,0.41504,-0.49951,0.625,2.6227
7.632,0.099194,0.39502,-0.2998,0.58984,2.5758
7.64,0.10261,0.37012,0.16504,0.58496,2.5181
7.648,0.10603,0.34521,0.43506,0.60498,2.4594
7.656,0.11068,0.33984,0.5498,0.6001,2.4076
7.664,0.11532,0.34521,0.58496,0.58984,2.3646
7.672,0.12094,0.34521,0.6001,0.58496,2.3304
7.68,0.1268,0.34521,0.60498,0.58496,2.304
7.688,0.13413,0.35498,0.60986,0.58496,2.2835
7.696,0.14146,0.36523,0.61475,0.58008,2.2639
7.704,0.15001,0.37012,0.60986,0.56982,2.2405
7.712,0.15856,0.38525,0.60986,0.56006,2.2102
7.72,0.1676,0.39014,0.62012,0.56006,2.173
7.728,0.17664,0.39502,0.625,0.56006,2.1281
7.736,0.18593,0.3999,0.61475,0.55518,2.0733
7.744,0.19546,0.41504,0.60498,0.53516,2.0088
7.752,0.20645,0.43018,0.60498,0.5249,1.9355
7.76,0.21744,0.43994,0.60498,0.51514,1.8553
7.768,0.22966,0.43994,0.6001,0.51514,1.7742
7.776,0.24212,0.45996,0.58984,0.5,1.6989
7.784,0.25458,0.47021,0.58496,0.49023,1.6364
7.792,0.26704,0.48486,0.56982,0.4751,1.5846
7.8,0.27975,0.49512,0.55518,0.46484,1.5367
7.808,0.29245,0.50488,0.54492,0.45996,1.4976
7.816,0.30711,0.50977,0.54492,0.46484,1.4682
7.824,0.32177,0.50977,0.5498,0.45508,1.4506
7.832,0.33814,0.5,0.56006,0.46484,1.4399
7.84,0.35451,0.49023,0.56006,0.4751,1.4282
7.848,0.3721,0.49512,0.56494,0.4751,1.4154
7.856,0.38969,0.50488,0.58496,0.47021,1.4018
7.864,0.40801,0.5,0.60498,0.4751,1.3871
7.872,0.42634,0.50977,0.62012,0.47998,1.3705
7.88,0.44295,0.49512,0.62988,0.49023,1.3548
7.888,0.45957,0.49023,0.62988,0.49512,1.3372
7.896,0.47471,0.49512,0.625,0.50488,1.3118
7.904,0.48986,0.48486,0.62012,0.51514,1.2786
7.912,0.5055,0.48486,0.625,0.51514,1.2414
7.92,0.52138,0.47998,0.62988,0.51514,1.2043
7.928,0.5375,0.49023,0.62988,0.51514,1.1681
7.936,0.55363,0.5,0.64014,0.50977,1.1359
7.944,0.5678,0.50488,0.62988,0.5,1.1046
7.952,0.58197,0.50977,0.62988,0.49512,1.0743
7.96,0.59467,0.50977,0.62988,0.5,1.044
7.968,0.60738,0.53516,0.62012,0.4751,1.0137
7.976,0.62008,0.54004,0.62988,0.47021,0.98729
7.984,0.63303,0.56982,0.63477,0.4502,0.97067
7.992,0.64598,0.59521,0.64014,0.43994,0.95797
8,0.65917,0.5752,0.64502,0.45508,0.94428
8.008,0.67286,0.58008,0.62988,0.45996,0.92669
8.016,0.68678,0.61475,0.62012,0.41504,0.90225
8.024,0.70095,0.62988,0.55518,0.3999,0.87488
8.032,0.71512,0.62988,0.52002,0.40479,0.84457
8.04,0.72807,0.64502,0.50488,0.39502,0.81329
8.048,0.74127,0.625,0.47998,0.41016,0.78592
8.056,0.75348,0.54492,0.47021,0.46484,0.77224
8.064,0.76594,0.47021,0.46484,0.51514,0.78201
8.072,0.77938,0.41992,0.4502,0.5498,0.826
8.08,0.79306,0.39014,0.43994,0.56494,0.89541
8.088,0.80748,0.375,0.43994,0.5752,0.99413
8.096,0.82214,0.36523,0.43994,0.58496,1.1369
8.104,0.83533,0.36523,0.43506,0.58984,1.3148
8.112,0.84877,0.3501,0.43994,0.58496,1.5132
8.12,0.86147,0.28516,0.54492,0.63477,1.7155
8.128,0.87418,0.27002,0.70508,0.64014,1.9042
8.136,0.88957,0.47998,0.73486,0.46484,2.0684
8.144,0.90496,0.75,0.40479,0.30518,2.1975
8.152,0.9228,1.04,-0.10498,0.22998,2.2845
8.16,0.94063,1.1299,-0.49951,0.37012,2.3294
8.168,0.96018,0.44482,-0.49951,0.65479,2.3392
8.176,0.97997,0.31494,-0.49951,0.68506,2.3255
8.184,0.98998,0.30029,-0.31494,0.63477,2.2923
8.192,1,0.33496,0.1499,0.60986,2.2395
8.2,1,0.31982,0.40479,0.60986,2.1799
8.208,1,0.33008,0.5249,0.59521,2.1222
8.216,1,0.31982,0.56006,0.6001,2.0684
8.224,1,0.33008,0.5752,0.59521,2.0215
8.232,1,0.33984,0.58496,0.58008,1.9795
8.24,1,0.35498,0.59521,0.5752,1.9413
8.248,1,0.36523,0.59521,0.56982,1.9071
8.256,1,0.38525,0.59521,0.56006,1.8749
8.264,1,0.39014,0.59521,0.56006,1.8426
8.272,1,0.39014,0.6001,0.5498,1.8016
8.28,1,0.40479,0.58984,0.54004,1.7586
8.288,1,0.41504,0.58496,0.53516,1.7155
8.296,1,0.43018,0.58496,0.5249,1.6618
8.304,1,0.43994,0.58496,0.5249,1.6012
8.312,1,0.43994,0.5752,0.51514,1.5357
8.32,1,0.45996,0.56006,0.49512,1.4692
8.328,1,0.4751,0.5498,0.47998,1.4076
8.336,1,0.49512,0.54004,0.47021,1.3529
8.344,1,0.50977,0.52979,0.45508,1.3069
8.352,1,0.51514,0.51514,0.44482,1.2708
8.36,1,0.52002,0.50977,0.44482,1.2434
8.368,1,0.51514,0.51514,0.4502,1.2239
8.376,1,0.52002,0.51514,0.4502,1.2121
8.384,1,0.50977,0.5249,0.45996,1.2063
8.392,1,0.50488,0.5249,0.46484,1.2014
8.4,1,0.50488,0.54004,0.4751,1.1955
8.408,1,0.50977,0.56494,0.47021,1.1887
8.416,1,0.5,0.58496,0.47998,1.1818
8.424,1,0.50488,0.60986,0.47998,1.172
8.432,1,0.50488,0.62012,0.48486,1.1584
8.44,1,0.50977,0.62988,0.49023,1.1398
8.448,1,0.48486,0.63477,0.50488,1.1193
8.456,1,0.49023,0.64014,0.50488,1.0978
8.464,1,0.49512,0.64502,0.51514,1.0762
8.472,1,0.5,0.6499,0.51514,1.0538
8.48,1,0.51514,0.6499,0.50488,1.0371
8.488,1,0.54004,0.65479,0.49023,1.0215
8.496,1,0.5498,0.64502,0.4751,1
8.504,1,0.55518,0.62988,0.46484,0.97849
8.512,1,0.56982,0.62988,0.45508,0.95601
8.52,1,0.59521,0.62988,0.43506,0.93548
8.528,1,0.61475,0.62988,0.43018,0.91789
8.536,1,0.625,0.63477,0.43506,0.90225
8.544,1,0.62988,0.62988,0.4248,0.88661
8.552,1,0.625,0.64014,0.43506,0.87097
8.56,1,0.62988,0.62988,0.41992,0.85239
8.568,1,0.65479,0.60986,0.3999,0.82796
8.576,1,0.66504,0.5498,0.38525,0.80841
8.584,1,0.66992,0.52002,0.38525,0.79081
8.592,1,0.66992,0.50488,0.39014,0.76931
8.6,1,0.63477,0.49023,0.41016,0.75073
8.608,1,0.55518,0.48486,0.46484,0.74194
8.616,1,0.49023,0.47021,0.50977,0.74878
8.624,1,0.43994,0.45996,0.53516,0.78201
8.632,1,0.40479,0.4502,0.56494,0.85044
8.64,1,0.40479,0.44482,0.56006,0.96188
8.648,1,0.39014,0.44482,0.5752,1.1124
8.656,1,0.3999,0.43994,0.56982,1.2933
8.664,1,0.36523,0.4751,0.58496,1.4897
8.672,1,0.30518,0.62012,0.60498,1.6891
8.68,1,0.41504,0.76514,0.52979,1.8563
8.688,1,0.64014,0.64014,0.37012,1.9902
8.696,1,0.88477,0.23486,0.25488,2.1114
8.704,1,1.1499,-0.32471,0.20508,2.2033
8.712,1,0.74512,-0.49951,0.47998,2.259
8.72,1,0.37988,-0.49951,0.66992,2.2776
8.728,1,0.30518,-0.49951,0.6748,2.2639
8.736,1,0.34521,-0.13477,0.60986,2.2258
8.744,1,0.34521,0.26025,0.60498,2.1711
8.752,1,0.35498,0.47021,0.58984,2.1095
8.76,1,0.36523,0.56006,0.58496,2.0489
8.768,1,0.37012,0.58496,0.58496,1.9951
8.776,1,0.36523,0.6001,0.5752,1.9511
8.784,1,0.37012,0.60498,0.58496,1.9159
8.792,1,0.39014,0.60986,0.56494,1.8837
8.8,1,0.39014,0.61475,0.56006,1.8524
8.808,1,0.40479,0.61475,0.55518,1.8211
8.816,1,0.41504,0.62012,0.5498,1.7869
8.824,1,0.4248,0.62012,0.53516,1.7478
8.832,1,0.4248,0.61475,0.54004,1.7038
8.84,1,0.43506,0.61475,0.53516,1.6559
8.848,1,0.43994,0.60986,0.53516,1.6041
8.856,1,0.45508,0.60498,0.52002,1.5503
8.864,1,0.47021,0.60498,0.51514,1.4985
8.872,1,0.4751,0.6001,0.50488,1.4526
8.88,1,0.50488,0.58496,0.48486,1.4184
8.888,1,0.50977,0.58008,0.4751,1.3939
8.896,1,0.5249,0.56006,0.45996,1.3724
8.904,1,0.54004,0.5498,0.44482,1.3558
8.912,1,0.54004,0.54492,0.43994,1.346
8.92,1,0.54004,0.5498,0.4502,1.3412
8.928,1,0.54492,0.54492,0.4502,1.3421
8.936,1,0.53516,0.5498,0.45996,1.35
8.944,1,0.54004,0.56006,0.4502,1.3607
8.952,1,0.55518,0.58008,0.43994,1.3744
8.96,1,0.53516,0.6001,0.46484,1.3881
8.968,1,0.53516,0.62012,0.47021,1.4027
8.976,1,0.53516,0.62988,0.47021,1.4154
8.984,1,0.53516,0.64502,0.47021,1.4242
8.992,1,0.53516,0.64502,0.4751,1.4282
9,1,0.53516,0.64014,0.49023,1.4282
9.008,1,0.52979,0.64014,0.49512,1.4242
9.016,1,0.53516,0.64014,0.5,1.4194
9.024,1,0.54004,0.6499,0.49023,1.4125
9.032,1,0.54492,0.65479,0.49023,1.4057
9.04,1,0.56494,0.6499,0.4751,1.4008
9.048,0.99194,0.56006,0.64502,0.4751,1.3959
9.056,0.98412,0.58008,0.64014,0.45996,1.39
9.064,0.96897,0.58496,0.63477,0.45996,1.3851
9.072,0.95382,0.59521,0.62988,0.44482,1.3822
9.08,0.93843,0.62012,0.6499,0.43506,1.3832
9.088,0.92328,0.64502,0.65479,0.41992,1.3832
9.096,0.90545,0.64014,0.66504,0.4248,1.3812
9.104,0.88761,0.625,0.66504,0.43994,1.3763
9.112,0.86733,0.63477,0.65479,0.43506,1.3685
9.12,0.84706,0.6748,0.60498,0.39502,1.4418
9.128,0.8258,0.6748,0.5498,0.375,1.5533
9.136,0.80479,0.68506,0.5249,0.37012,1.6022
9.144,0.78353,0.6748,0.50977,0.39502,1.6217
9.152,0.76228,0.625,0.49023,0.43018,1.6315
9.16,0.74322,0.54492,0.49023,0.47998,1.6481
9.168,0.72416,0.48486,0.4751,0.5249,1.6833
9.176,0.70682,0.45508,0.46484,0.54004,1.7302
9.184,0.68971,0.4248,0.45996,0.56006,1.8025
9.192,0.67286,0.43018,0.45508,0.56006,1.9179
9.2,0.65624,0.41504,0.45508,0.56982,2.0704
9.208,0.63987,0.41504,0.45508,0.56494,2.2502
9.216,0.62375,0.36523,0.50488,0.59521,2.4418
9.224,0.60933,0.33008,0.66016,0.60498,2.6276
9.232,0.59492,0.43994,0.76514,0.52002,2.7947
9.24,0.58172,0.68506,0.5498,0.33984,2.9355
9.248,0.56878,0.9248,0.050293,0.24023,3.0411
9.256,0.55583,1.1851,-0.49951,0.18994,3.1085
9.264,0.54288,0.71973,-0.49951,0.49512,3.1408
9.272,0.52993,0.41992,-0.49951,0.64014,3.1417
9.28,0.51698,0.36523,-0.49951,0.61475,3.1202
9.288,0.50354,0.39014,-0.029785,0.58496,3.0831
9.296,0.49035,0.37012,0.33496,0.6001,3.0362
9.304,0.47667,0.37012,0.51514,0.58984,2.9863
9.312,0.46323,0.37988,0.58496,0.58496,2.9374
9.32,0.45126,0.375,0.61475,0.58984,2.8935
9.328,0.43953,0.37988,0.61475,0.56982,2.8534
9.336,0.42903,0.39014,0.62012,0.56494,2.8201
9.344,0.41852,0.3999,0.625,0.56006,2.7928
9.352,0.40826,0.40479,0.62988,0.56494,2.7674
9.36,0.398,0.4248,0.62988,0.54004,2.74
9.368,0.38798,0.43506,0.62988,0.53516,2.7067
9.376,0.37796,0.43018,0.62988,0.54004,2.6676
9.384,0.36892,0.43994,0.63477,0.53516,2.6237
9.392,0.35988,0.44482,0.62988,0.52979,2.5699
9.4,0.35158,0.45996,0.62988,0.51514,2.5103
9.408,0.34351,0.47021,0.625,0.51514,2.4487
9.416,0.3357,0.47998,0.62012,0.5,2.3871
9.424,0.32788,0.5,0.62012,0.48486,2.3265
9.432,0.32006,0.51514,0.60498,0.4751,2.2698
9.44,0.31224,0.5249,0.59521,0.46484,2.2219
9.448,0.30442,0.52979,0.58496,0.45508,2.1828
9.456,0.2966,0.5498,0.5752,0.43994,2.1535
9.464,0.28903,0.55518,0.56494,0.43994,2.1329
9.472,0.2817,0.56006,0.56494,0.43506,2.1212
9.48,0.27535,0.56006,0.56006,0.43994,2.1153
9.488,0.269,0.55518,0.56006,0.43994,2.1105
9.496,0.26338,0.5498,0.58008,0.4502,2.1036
9.504,0.258,0.54492,0.59521,0.45508,2.0938
9.512,0.25238,0.55518,0.61475,0.44482,2.0821
9.52,0.24676,0.55518,0.64014,0.45508,2.0674
9.528,0.2409,0.5498,0.64502,0.45996,2.0489
9.536,0.23528,0.55518,0.64502,0.45508,2.0264
9.544,0.23039,0.55518,0.64014,0.46484,2.002
9.552,0.22551,0.54004,0.63477,0.47998,1.9775
9.56,0.22111,0.53516,0.62988,0.49023,1.956
9.568,0.21696,0.53516,0.62988,0.49512,1.9335
9.576,0.21134,0.54004,0.64014,0.49023,1.914
9.584,0.20596,0.54004,0.63477,0.49023,1.8974
9.592,0.19912,0.5498,0.64502,0.49023,1.8788
9.6,0.19228,0.56006,0.64502,0.47021,1.8602
9.608,0.18422,0.56982,0.64014,0.46484,1.8407
9.616,0.17615,0.56006,0.63477,0.4751,1.8211
9.624,0.16711,0.58984,0.63477,0.45508,1.8016
9.632,0.15832,0.60986,0.65479,0.43994,1.781
9.64,0.15026,0.60498,0.66504,0.43994,1.7625
9.648,0.14219,0.63477,0.66992,0.4248,1.7468
9.656,0.13462,0.62988,0.6748,0.43018,1.7312
9.664,0.12705,0.64502,0.66016,0.41992,1.7116
9.672,0.11874,0.66504,0.60986,0.39502,1.6882
9.68,0.11068,0.68018,0.55518,0.38525,1.6676
9.688,0.10188,0.69482,0.52979,0.37012,1.6491
9.696,0.09333,0.68018,0.50977,0.39014,1.6285
9.704,0.086,0.62012,0.49023,0.43018,1.6119
9.712,0.078915,0.52979,0.49023,0.49023,1.61
9.72,0.073052,0.4751,0.48486,0.52979,1.6344
9.728,0.067188,0.44482,0.46484,0.54492,1.6911
9.736,0.061813,0.41504,0.46484,0.56006,1.7879
9.744,0.056682,0.41016,0.46484,0.56494,1.9238
9.752,0.051796,0.3999,0.45996,0.56982,2.0938
9.76,0.046909,0.40479,0.45996,0.56494,2.2835
9.768,0.042267,0.35986,0.50977,0.58496,2.4751
9.776,0.03787,0.31982,0.6748,0.60498,2.6305
9.784,0.033716,0.45508,0.75977,0.50488,2.7527
9.792,0.029563,0.68506,0.53516,0.33984,2.8622
9.8,0.026631,0.95508,0.030273,0.23486,2.9443
9.808,0.023943,1.1997,-0.49951,0.18506,2.9932
9.816,0.021989,0.71484,-0.49951,0.50977,3.0098
9.824,0.020279,0.44482,-0.49951,0.625,2.998
9.832,0.019057,0.39014,-0.49951,0.62988,2.9668
9.84,0.01808,0.39502,0.044922,0.58496,2.9218
9.848,0.017591,0.37012,0.375,0.58496,2.8671
9.856,0.017347,0.36523,0.52979,0.58496,2.8133
9.864,0.017102,0.35986,0.58984,0.59521,2.7664
9.872,0.017102,0.37012,0.61475,0.58008,2.7283
9.88,0.017347,0.37012,0.62988,0.5752,2.697
9.888,0.017591,0.39014,0.62988,0.56982,2.6716
9.896,0.017591,0.39014,0.63477,0.56006,2.6491
9.904,0.017591,0.39502,0.63477,0.56006,2.6256
9.912,0.017347,0.41016,0.63477,0.56006,2.6012
9.92,0.017102,0.41504,0.63477,0.5498,2.5718
9.928,0.016614,0.4248,0.62988,0.53516,2.5337
9.936,0.016369,0.43506,0.62988,0.52979,2.4848
9.944,0.015881,0.4502,0.62988,0.52002,2.4252
9.952,0.015636,0.45508,0.62988,0.51514,2.3587
9.96,0.016125,0.4502,0.63477,0.51514,2.2893
9.968,0.016614,0.48486,0.62012,0.5,2.2199
9.976,0.017591,0.49023,0.62012,0.48486,2.1613
9.984,0.018568,0.51514,0.61475,0.46484,2.1124
9.992,0.019057,0.5249,0.59521,0.45508,2.0645
10,0.01979,0.5249,0.58008,0.4502,2.0225
10.008,0.020034,0.53516,0.56982,0.44482,1.9883
10.016,0.020279,0.5498,0.56982,0.43994,1.9648
10.024,0.020767,0.55518,0.56006,0.43994,1.9492
10.032,0.021256,0.54004,0.56006,0.44482,1.9413
10.04,0.021989,0.54492,0.56494,0.43994,1.9394
10.048,0.022722,0.5498,0.58008,0.44482,1.9365
10.056,0.023455,0.53516,0.58984,0.45508,1.9316
10.064,0.024188,0.53516,0.61475,0.45996,1.9267
10.072,0.024921,0.54492,0.62988,0.4502,1.9228
10.08,0.025898,0.56006,0.64014,0.43994,1.915
10.088,0.025654,0.53516,0.6499,0.46484,1.9013
10.096,0.025654,0.53516,0.64502,0.4751,1.8847
10.104,0.024676,0.52979,0.64014,0.47998,1.8641
10.112,0.023943,0.5249,0.63477,0.49023,1.8407
10.12,0.022966,0.5249,0.62988,0.49512,1.8162
10.128,0.021989,0.52979,0.63477,0.5,1.7908
10.136,0.020767,0.52002,0.64502,0.5,1.7664
10.144,0.01979,0.54004,0.65479,0.49023,1.7458
10.152,0.017835,0.5498,0.65479,0.48486,1.7283
10.16,0.015881,0.55518,0.6499,0.47998,1.7136
10.168,0.012949,0.56006,0.65479,0.46484,1.696
10.176,0.010261,0.58008,0.66016,0.4502,1.6804
10.184,0.0073296,0.60498,0.6748,0.43994,1.6696
10.192,0.0043977,0.62988,0.6748,0.4248,1.654
10.2,0.0019546,0.64502,0.68018,0.41992,1.6344
10.208,-0.00048864,0.625,0.68506,0.4248,1.6129
10.216,-0.00048864,0.64502,0.66992,0.40479,1.5904
10.224,-0.00048864,0.6748,0.61475,0.37988,1.5689
10.232,-0.00048864,0.66992,0.56006,0.375,1.5484
10.24,-0.00048864,0.6748,0.53516,0.38525,1.5318
10.248,-0.00048864,0.68018,0.51514,0.375,1.522
10.256,-0.00048864,0.61475,0.50488,0.4248,1.523
10.264,-0.00048864,0.5249,0.5,0.49023,1.5425
10.272,-0.00048864,0.46484,0.49512,0.53516,1.5758
10.28,-0.00048864,0.43506,0.47998,0.5498,1.6315
10.288,-0.00048864,0.41992,0.4751,0.55518,1.7263
10.296,-0.00048864,0.41504,0.46484,0.56006,1.8583
10.304,-0.00048864,0.41016,0.45996,0.56494,2.0205
10.312,-0.00048864,0.41504,0.47021,0.56494,2.2014
10.32,-0.00048864,0.3501,0.5498,0.59521,2.3851
10.328,-0.00048864,0.33008,0.71484,0.60498,2.5552
10.336,-0.00048864,0.47998,0.75977,0.47998,2.7009
10.344,-0.00048864,0.73975,0.43506,0.30029,2.8133
10.352,-0.00048864,1.0249,-0.089844,0.20508,2.8895
10.36,-0.00048864,1.1851,-0.49951,0.17529,2.9306
10.368,-0.00048864,0.6499,-0.49951,0.54004,2.9413
10.376,-0.00048864,0.4751,-0.49951,0.6001,2.9306
10.384,-0.00048864,0.4248,-0.38965,0.58008,2.9032
10.392,-0.00048864,0.40479,0.12988,0.5752,2.8631
10.4,-0.00048864,0.39014,0.41504,0.58008,2.8182
10.408,-0.00048864,0.375,0.5498,0.58496,2.7722
10.416,-0.00048864,0.37012,0.58984,0.58008,2.7263
10.424,-0.00048864,0.37012,0.60986,0.58496,2.6833
10.432,-0.00048864,0.38525,0.61475,0.5752,2.6461
10.44,-0.00048864,0.39014,0.625,0.56982,2.6158
10.448,-0.00048864,0.39502,0.62988,0.56494,2.5894
10.456,-0.00048864,0.3999,0.625,0.56006,2.563
10.464,-0.00048864,0.41016,0.62988,0.55518,2.5367
10.472,-0.00048864,0.41504,0.62988,0.5498,2.5093
10.48,-0.00048864,0.43994,0.62988,0.52979,2.479
10.488,-0.00048864,0.43018,0.62988,0.53516,2.4409
10.496,-0.00048864,0.44482,0.625,0.5249,2.3939
10.504,-0.00048864,0.45996,0.625,0.51514,2.3402
10.512,-0.00048864,0.45996,0.62012,0.50977,2.2796
10.52,-0.00048864,0.48486,0.61475,0.49512,2.218
10.528,-0.00048864,0.49512,0.60986,0.47998,2.1603
10.536,-0.00048864,0.52002,0.6001,0.45996,2.1056
10.544,-0.00048864,0.5249,0.58496,0.4502,2.0547
10.552,-0.00048864,0.5498,0.58008,0.43506,2.0127
10.56,-0.00048864,0.55518,0.56006,0.43506,1.9814
10.568,-0.00048864,0.5752,0.5498,0.41992,1.9609
10.576,-0.00048864,0.55518,0.56006,0.43506,1.9492
10.584,-0.00048864,0.5498,0.56006,0.43994,1.9433
10.592,-0.00048864,0.56006,0.56494,0.43506,1.9404
10.6,-0.00048864,0.56494,0.5752,0.43994,1.9394
10.608,-0.00048864,0.56006,0.58984,0.43018,1.9384
10.616,-0.00048864,0.5498,0.61475,0.45508,1.9365
10.624,-0.00048864,0.54004,0.62988,0.45996,1.9316
10.632,-0.00048864,0.53516,0.63477,0.46484,1.9267
10.64,-0.00048864,0.55518,0.62988,0.45996,1.9169
10.648,-0.00048864,0.5498,0.63477,0.46484,1.9022
10.656,-0.00048864,0.54004,0.625,0.4751,1.8837
10.664,-0.00048864,0.54004,0.62988,0.48486,1.8592
10.672,-0.00048864,0.53516,0.64014,0.49023,1.8348
10.68,-0.00048864,0.53516,0.62988,0.49023,1.8113
10.688,-0.00048864,0.54492,0.62988,0.49023,1.7849
10.696,-0.00048864,0.55518,0.64502,0.47998,1.7595
10.704,-0.00048864,0.56982,0.6499,0.46484,1.737
10.712,-0.00048864,0.5752,0.64014,0.47021,1.7175
10.72,-0.00048864,0.5752,0.64014,0.46484,1.7009
10.728,-0.00048864,0.58008,0.6499,0.45996,1.6862
10.736,-0.00048864,0.60986,0.66016,0.43994,1.6725
10.744,-0.00048864,0.62988,0.66992,0.4248,1.6588
10.752,-0.00048864,0.63477,0.6748,0.43018,1.6452
10.76,-0.00048864,0.625,0.6748,0.43994,1.6285
10.768,-0.00048864,0.64502,0.65479,0.40479,1.607
10.776,-0.00048864,0.6748,0.58008,0.38525,1.5875
10.784,-0.00048864,0.68018,0.54492,0.37988,1.5709
10.792,-0.00048864,0.6748,0.5249,0.39014,1.5543
10.8,-0.00048864,0.6499,0.5,0.3999,1.5415
10.808,-0.00048864,0.58984,0.48486,0.44482,1.5386
10.816,-0.00048864,0.50488,0.49023,0.5,1.5533
10.824,-0.00048864,0.45996,0.47998,0.52979,1.5953
10.832,-0.00048864,0.43506,0.47021,0.54492,1.6716
10.84,-0.00048864,0.41992,0.46484,0.56006,1.783
10.848,-0.00048864,0.41504,0.45508,0.56494,1.9267
10.856,-0.00048864,0.41016,0.4502,0.56006,2.0929
10.864,-0.00048864,0.41504,0.45996,0.5752,2.2708
10.872,-0.00048864,0.34521,0.56006,0.6001,2.4252
10.88,-0.00048864,0.33496,0.71484,0.56982,2.5552
10.888,-0.00048864,0.51514,0.73486,0.45508,2.6804
10.896,-0.00048864,0.77002,0.37012,0.29004,2.783
10.904,-0.00048864,1.0898,-0.18994,0.18506,2.8543
10.912,-0.00048864,1.2197,-0.49951,0.16992,2.8935
10.92,-0.00048864,0.63477,-0.49951,0.54492,2.9032
10.928,-0.00048864,0.4751,-0.49951,0.58984,2.8876
10.936,-0.00048864,0.45508,-0.27979,0.55518,2.8553
10.944,-0.00048864,0.41992,0.18994,0.5498,2.8123
10.952,-0.00048864,0.39502,0.43994,0.5752,2.7654
10.96,-0.00048864,0.39014,0.55518,0.5752,2.7195
10.968,-0.00048864,0.38525,0.6001,0.5752,2.6764
10.976,-0.00048864,0.39014,0.62012,0.5752,2.6393
10.984,-0.00048864,0.39502,0.61475,0.55518,2.6109
10.992,-0.00048864,0.39502,0.625,0.5498,2.5904
11,-0.00048864,0.41016,0.62988,0.5498,2.5738
11.008,-0.00048864,0.41992,0.62988,0.54004,2.5552
11.016,-0.00048864,0.43994,0.63477,0.53516,2.5308
11.024,-0.00048864,0.43994,0.63477,0.53516,2.4985
11.032,-0.00048864,0.44482,0.63477,0.52979,2.4555
11.04,-0.00048864,0.46484,0.63477,0.51514,2.4047
11.048,-0.00048864,0.47021,0.62988,0.51514,2.347
11.056,-0.00048864,0.46484,0.62988,0.50488,2.2835
11.064,-0.00048864,0.49023,0.62988,0.49512,2.2199
11.072,-0.00048864,0.50488,0.625,0.48486,2.1681
11.08,-0.00048864,0.51514,0.61475,0.46484,2.1222
11.088,-0.00048864,0.52979,0.60498,0.45996,2.0723
11.096,-0.00048864,0.54004,0.58984,0.44482,2.0244
11.104,-0.00048864,0.55518,0.58008,0.43506,1.9863
11.112,-0.00048864,0.56006,0.5752,0.43018,1.9589
11.12,-0.00048864,0.58008,0.56494,0.41992,1.9404
11.128,-0.00048864,0.5752,0.56006,0.4248,1.9296
11.136,-0.00048864,0.56494,0.56982,0.41992,1.9257
11.144,-0.00048864,0.55518,0.5752,0.43994,1.9267
11.152,-0.00048864,0.5498,0.58496,0.4502,1.9267
11.16,-0.00048864,0.56006,0.6001,0.43994,1.9257
11.168,-0.00048864,0.56494,0.62012,0.43018,1.8319
11.176,-0.00048864,0.55518,0.625,0.43994,1.6921
11.184,-0.00048864,0.55518,0.62988,0.45508,1.6197
11.192,-0.00048864,0.55518,0.62988,0.45508,1.5767
11.2,-0.00048864,0.55518,0.62012,0.46484,1.5445
11.208,-0.00048864,0.53516,0.61475,0.47998,1.5181
11.216,-0.00048864,0.53516,0.60986,0.49023,1.4927
11.224,-0.00048864,0.54492,0.60986,0.47998,1.4682
11.232,-0.00048864,0.54492,0.61475,0.47998,1.4418
11.24,-0.00048864,0.55518,0.62012,0.48486,1.4145
11.248,-0.00048864,0.55518,0.625,0.47998,1.392
11.256,-0.00048864,0.56006,0.62988,0.4751,1.3705
11.264,-0.00048864,0.55518,0.62012,0.4751,1.349
11.272,-0.00048864,0.5752,0.61475,0.45996,1.3353
11.28,-0.00048864,0.6001,0.625,0.44482,1.3216
11.288,-0.00048864,0.61475,0.64014,0.43994,1.304
11.296,-0.00048864,0.625,0.64014,0.43018,1.2864
11.304,-0.00048864,0.62012,0.64502,0.43994,1.2669
11.312,-0.00048864,0.625,0.64014,0.43994,1.2454
11.32,-0.00048864,0.64502,0.625,0.41504,1.2219
11.328,-0.00048864,0.65479,0.5498,0.3999,1.1984
11.336,-0.00048864,0.65479,0.50977,0.39502,1.176
11.344,-0.00048864,0.66992,0.49023,0.39502,1.1593
11.352,-0.00048864,0.63477,0.47021,0.41016,1.1496
11.36,-0.00048864,0.56494,0.45508,0.46484,1.1535
11.368,-0.00048864,0.49512,0.45996,0.51514,1.1799
11.376,-0.00048864,0.43506,0.43994,0.54492,1.2229
11.384,-0.00048864,0.40479,0.43506,0.56494,1.2893
11.392,-0.00048864,0.39502,0.43018,0.5752,1.3959
11.4,-0.00048864,0.39502,0.43506,0.58008,1.5415
11.408,-0.00048864,0.39502,0.43506,0.5752,1.7146
11.416,-0.00048864,0.37988,0.4502,0.58496,1.9013
11.424,-0.00048864,0.31982,0.55518,0.61475,2.085
11.432,-0.00048864,0.31006,0.70996,0.625,2.2502
11.44,-0.00048864,0.5,0.64014,0.46484,2.3851
11.448,-0.00048864,0.77979,0.29004,0.29004,2.4839
11.456,-0.00048864,1.1147,-0.32471,0.17529,2.5455
11.464,-0.00048864,1.1997,-0.49951,0.31982,2.5728
11.472,-0.00048864,0.5752,-0.49951,0.56982,2.5728
11.48,-0.00048864,0.43994,-0.49951,0.60498,2.5523
11.488,-0.00048864,0.41992,-0.25,0.58008,2.5152
11.496,0.0017102,0.38525,0.20996,0.58496,2.4712
11.504,0.0041534,0.35986,0.45508,0.59521,2.4242
11.512,0.0087955,0.35498,0.5498,0.58984,2.3763
11.52,0.013682,0.35986,0.58496,0.58496,2.3294
11.528,0.020034,0.35498,0.6001,0.58496,2.2903
11.536,0.026631,0.36523,0.60498,0.5752,2.262
11.544,0.034449,0.37012,0.60986,0.56982,2.2414
11.552,0.042267,0.375,0.60498,0.5752,2.2199
11.56,0.05033,0.38525,0.60986,0.56494,2.1955
11.568,0.058637,0.3999,0.60498,0.55518,2.1662
11.576,0.067188,0.41504,0.61475,0.54492,2.132
11.584,0.075983,0.41992,0.60498,0.5498,2.0919
11.592,0.086733,0.43506,0.60498,0.52979,2.043
11.6,0.097728,0.43506,0.60498,0.52979,1.9853
11.608,0.11019,0.4502,0.6001,0.51514,1.9198
11.616,0.12289,0.45996,0.6001,0.51514,1.8504
11.624,0.1356,0.4751,0.6001,0.5,1.781
11.632,0.1483,0.47998,0.58984,0.49512,1.7107
11.64,0.16125,0.5,0.5752,0.4751,1.6461
11.648,0.1742,0.50977,0.56006,0.46484,1.5904
11.656,0.18959,0.5249,0.55518,0.44482,1.5415
11.664,0.20498,0.53516,0.5498,0.43994,1.4995
11.672,0.22258,0.52979,0.5498,0.44482,1.4663
11.68,0.24017,0.53516,0.5498,0.4502,1.437
11.688,0.25996,0.53516,0.5498,0.4502,1.4106
11.696,0.27975,0.53516,0.55518,0.4502,1.39
11.704,0.30076,0.52979,0.56982,0.4502,1.3695
11.712,0.32177,0.52002,0.58496,0.45996,1.349
11.72,0.34034,0.50977,0.59521,0.47021,1.3284
11.728,0.35915,0.52979,0.60986,0.46484,1.304
11.736,0.37601,0.52002,0.61475,0.46484,1.2776
11.744,0.39287,0.50977,0.60986,0.47998,1.2502
11.752,0.40997,0.50488,0.6001,0.49023,1.219
11.76,0.42731,0.50488,0.59521,0.49512,1.1848
11.768,0.44442,0.50488,0.58984,0.49512,1.1496
11.776,0.46176,0.50977,0.6001,0.5,1.1222
11.784,0.47691,0.52002,0.60498,0.49023,1.0978
11.792,0.49206,0.5249,0.60986,0.49023,1.0684
11.8,0.5055,0.52002,0.61475,0.49512,1.0362
11.808,0.51893,0.53516,0.62012,0.47021,1.002
11.816,0.53213,0.54004,0.61475,0.4751,0.9697
11.824,0.54557,0.5498,0.60498,0.46484,0.93939
11.832,0.559,0.56494,0.625,0.45508,0.91007
11.84,0.57244,0.58496,0.63477,0.44482,0.88172
11.848,0.58612,0.60986,0.63477,0.43018,0.85337
11.856,0.5998,0.60498,0.63477,0.43994,0.82502
11.864,0.61324,0.61475,0.62988,0.4248,0.79765
11.872,0.62668,0.64502,0.60498,0.3999,0.77713
11.88,0.63865,0.6499,0.54004,0.39014,0.75953
11.888,0.65087,0.6499,0.50977,0.39014,0.73803
11.896,0.66211,0.65479,0.49023,0.38525,0.7175
11.904,0.67334,0.625,0.46484,0.41016,0.6999
11.912,0.68654,0.54492,0.46484,0.46484,0.69306
11.92,0.69973,0.4751,0.45508,0.51514,0.70186
11.928,0.71439,0.4248,0.4502,0.54492,0.73607
11.936,0.72929,0.41016,0.43994,0.56006,0.80547
11.944,0.74346,0.39014,0.43506,0.56006,0.91496
11.952,0.75763,0.37988,0.4248,0.5752,1.0635
11.96,0.77156,0.375,0.41992,0.58008,1.2395
11.968,0.78573,0.37988,0.43994,0.58008,1.4018
11.976,0.80259,0.30029,0.56982,0.60986,1.5543
11.984,0.81945,0.36523,0.71484,0.56982,1.7165
11.992,0.83924,0.5498,0.64014,0.41992,1.8641
12,0.85903,0.81982,0.2749,0.28516,1.9814
12.008,0.88175,1.125,-0.25488,0.21484,2.0626
12.016,0.90472,0.7998,-0.49951,0.45996,2.1085
12.024,0.92939,0.43994,-0.49951,0.64014,2.1212
12.032,0.95407,0.33984,-0.49951,0.66016,2.1046
12.04,0.97703,0.36523,-0.15967,0.6001,2.0665
12.048,1,0.37012,0.2251,0.58496,2.0196
12.056,1,0.37012,0.43994,0.58008,1.9717
12.064,1,0.36523,0.52979,0.56494,1.9238
12.072,1,0.37988,0.56006,0.56982,1.8817
12.08,1,0.375,0.58496,0.56006,1.8485
12.088,1,0.38525,0.59521,0.56494,1.8182
12.096,1,0.37012,0.58984,0.56006,1.7889
12.104,1,0.38525,0.58984,0.55518,1.7605
12.112,1,0.41016,0.59521,0.54004,1.7322
12.12,1,0.41504,0.59521,0.53516,1.7009
12.128,1,0.41504,0.6001,0.53516,1.6628
12.136,1,0.41016,0.58496,0.54004,1.6188
12.144,1,0.4248,0.58984,0.53516,1.5689
12.152,1,0.43994,0.58496,0.51514,1.5132
12.16,1,0.45508,0.58008,0.50977,1.4516
12.168,1,0.47021,0.5752,0.49023,1.3969
12.176,1,0.47998,0.56982,0.48486,1.3451
12.184,1,0.49023,0.55518,0.4751,1.2864
12.192,1,0.50488,0.53516,0.46484,1.2287
12.2,1,0.50977,0.52002,0.4502,1.1769
12.208,1,0.5249,0.51514,0.43994,1.1339
12.216,1,0.52979,0.51514,0.43994,1.0997
12.224,1,0.5249,0.51514,0.44482,1.0762
12.232,1,0.52979,0.52002,0.43994,1.0606
12.24,1,0.50977,0.52979,0.46484,1.0499
12.248,1,0.5249,0.53516,0.44482,1.0401
12.256,1,0.52979,0.55518,0.45508,1.0323
12.264,1,0.51514,0.5752,0.45996,1.0215
12.272,1,0.5249,0.59521,0.45508,1.0127
12.28,1,0.51514,0.625,0.46484,1.0049
12.288,1,0.51514,0.64014,0.4751,0.99022
12.296,1,0.50977,0.64502,0.49023,0.97263
12.304,1,0.50977,0.6499,0.48486,0.95503
12.312,1,0.5,0.65479,0.5,0.93939
12.32,1,0.50488,0.6499,0.49512,0.92473
12.328,1,0.52002,0.65479,0.48486,0.91202
12.336,1,0.54004,0.66016,0.47021,0.90225
12.344,1,0.54492,0.65479,0.4751,0.89345
12.352,1,0.56494,0.65479,0.45996,0.88563
12.36,1,0.58008,0.64502,0.43994,0.87683
12.368,1,0.58496,0.62988,0.44482,0.86999
12.376,1,0.625,0.62988,0.41992,0.8651
12.384,1,0.64014,0.64502,0.41504,0.85435
12.392,1,0.64502,0.6499,0.41992,0.83675
12.4,1,0.65479,0.65479,0.40479,0.81329
12.408,1,0.64014,0.65479,0.41992,0.78788
12.416,1,0.66504,0.63477,0.39502,0.76442
12.424,1,0.68018,0.58008,0.37012,0.74389
12.432,1,0.66992,0.54492,0.375,0.72336
12.44,1,0.68018,0.52979,0.37988,0.70283
12.448,1,0.66504,0.51514,0.39014,0.68524
12.456,1,0.6001,0.49512,0.43506,0.67546
12.464,1,0.5249,0.49023,0.47998,0.67546
12.472,1,0.47021,0.48486,0.52002,0.6911
12.48,1,0.43506,0.4751,0.5498,0.72727
12.488,1,0.41504,0.46484,0.55518,0.79374
12.496,1,0.40479,0.46484,0.56494,0.90225
12.504,1,0.40479,0.46484,0.56006,1.0508
12.512,1,0.41504,0.45508,0.56006,1.2317
12.52,1,0.3501,0.54492,0.6001,1.433
12.528,1,0.31982,0.71484,0.60498,1.6422
12.536,1,0.51514,0.76514,0.45996,1.8426
12.544,1,0.78516,0.43994,0.29004,2.0196
12.552,1,1.0298,-0.054688,0.2251,2.1623
12.56,1,1.145,-0.49951,0.21484,2.2669
12.568,1,0.4751,-0.49951,0.64014,2.3314
12.576,1,0.31982,-0.49951,0.69482,2.3617
12.584,1,0.31006,-0.37988,0.62988,2.3675
12.592,1,0.3501,0.10986,0.60498,2.3519
12.6,1,0.35498,0.39502,0.58984,2.3177
12.608,1,0.35986,0.54004,0.58496,2.2727
12.616,1,0.35498,0.58496,0.58496,2.2258
12.624,1,0.35498,0.6001,0.58496,2.1808
12.632,1,0.35986,0.60498,0.58496,2.1378
12.64,1,0.375,0.60498,0.56982,2.0987
12.648,1,0.38525,0.60986,0.56982,2.0655
12.656,1,0.37988,0.60498,0.56494,2.0332
12.664,1,0.40479,0.60498,0.55518,1.999
12.672,1,0.41504,0.60498,0.54492,1.9668
12.68,1,0.4248,0.60986,0.53516,1.9296
12.688,1,0.43506,0.60498,0.52979,1.8798
12.696,1,0.44482,0.6001,0.52002,1.8201
12.704,1,0.45508,0.60498,0.51514,1.7546
12.712,1,0.47021,0.60498,0.50488,1.6891
12.72,1,0.47998,0.59521,0.49512,1.6285
12.728,1,0.49023,0.58008,0.48486,1.5777
12.736,1,0.50977,0.58008,0.46484,1.5406
12.744,1,0.50488,0.58008,0.46484,1.52
12.752,1,0.52979,0.56006,0.45508,1.5181
12.76,1,0.54004,0.5498,0.43994,1.5347
12.768,1,0.54492,0.54492,0.44482,1.5582
12.776,1,0.52979,0.54492,0.45508,1.5855
12.784,1,0.52979,0.55518,0.46484,1.6197
12.792,1,0.5249,0.55518,0.45996,1.6579
12.8,1,0.52979,0.56982,0.45508,1.697
12.808,0.99731,0.52002,0.58496,0.46484,1.7302
12.816,0.99487,0.53516,0.60498,0.45508,1.7556
12.824,0.98339,0.53516,0.625,0.46484,1.7713
12.832,0.97215,0.53516,0.64502,0.46484,1.7761
12.84,0.96164,0.52979,0.64502,0.48486,1.7713
12.848,0.95114,0.5249,0.64502,0.49023,1.7586
12.856,0.94136,0.53516,0.64014,0.48486,1.738
12.864,0.93159,0.52979,0.6499,0.49023,1.7136
12.872,0.9206,0.53516,0.64502,0.49512,1.6911
12.88,0.90985,0.54004,0.65479,0.48486,1.6696
12.888,0.89787,0.55518,0.66016,0.49023,1.6452
12.896,0.8859,0.56494,0.65479,0.4751,1.6188
12.904,0.87442,0.5752,0.6499,0.46484,1.5934
12.912,0.86318,0.56006,0.6499,0.47998,1.5709
12.92,0.85194,0.5752,0.64014,0.46484,1.5484
12.928,0.84095,0.59521,0.6499,0.4502,1.5269
12.936,0.82727,0.60986,0.66504,0.43994,1.5073
12.944,0.81383,0.625,0.6748,0.43506,1.4888
12.952,0.79795,0.62012,0.6748,0.43506,1.4692
12.96,0.78231,0.60986,0.66992,0.43994,1.4487
12.968,0.7657,0.64502,0.64014,0.41504,1.4321
12.976,0.74933,0.66016,0.5752,0.40479,1.4145
12.984,0.73271,0.66016,0.53516,0.39502,1.392
12.992,0.71634,0.66504,0.5249,0.38525,1.3666
13,0.70144,0.64014,0.5,0.40479,1.3421
13.008,0.68678,0.56006,0.49512,0.45996,1.3245
13.016,0.67334,0.4751,0.49023,0.5249,1.3245
13.024,0.65991,0.4502,0.4751,0.54004,1.3509
13.032,0.64671,0.41504,0.46484,0.56006,1.4106
13.04,0.63352,0.40479,0.46484,0.56982,1.5103
13.048,0.62057,0.39502,0.46484,0.5752,1.6491
13.056,0.60762,0.39014,0.45996,0.58496,1.8172
13.064,0.59614,0.36523,0.48486,0.58984,2.0029
13.072,0.5849,0.31006,0.62988,0.61475,2.1672
13.08,0.57488,0.39502,0.79004,0.55518,2.3109
13.088,0.56511,0.60498,0.60498,0.39014,2.4536
13.096,0.55656,0.86475,0.080078,0.25,2.5758
13.104,0.54825,1.1797,-0.49951,0.16016,2.6647
13.112,0.54117,0.88477,-0.49951,0.39502,2.7165
13.12,0.53408,0.4502,-0.49951,0.61475,2.7302
13.128,0.52797,0.3501,-0.49951,0.64014,2.7146
13.136,0.52187,0.375,-0.14502,0.58984,2.6764
13.144,0.51649,0.35986,0.29492,0.59521,2.6227
13.152,0.51136,0.35498,0.50977,0.6001,2.5611
13.16,0.50647,0.36523,0.6001,0.58496,2.4976
13.168,0.50183,0.37012,0.62988,0.58008,2.4409
13.176,0.49743,0.37988,0.64502,0.58008,2.392
13.184,0.49304,0.39014,0.64502,0.56982,2.346
13.192,0.48839,0.3999,0.6499,0.56006,2.306
13.2,0.484,0.41504,0.6499,0.56006,2.2717
13.208,0.47935,0.41992,0.65479,0.56006,2.2444
13.216,0.47471,0.41992,0.66016,0.54492,2.2698
13.224,0.47032,0.43018,0.6499,0.53516,2.3196
13.232,0.46616,0.44482,0.6499,0.52979,2.3265
13.24,0.46201,0.45508,0.65479,0.52979,2.3069
13.248,0.45785,0.4502,0.6499,0.52979,2.2708
13.256,0.45297,0.47021,0.65479,0.50977,2.2268
13.264,0.44808,0.47998,0.64014,0.5,2.1789
13.272,0.44246,0.49023,0.64502,0.49023,2.1349
13.28,0.43709,0.49512,0.64014,0.48486,2.0938
13.288,0.43171,0.50977,0.63477,0.4751,2.0518
13.296,0.42634,0.51514,0.625,0.46484,2.0127
13.304,0.42096,0.52979,0.62012,0.45508,1.9804
13.312,0.41559,0.52979,0.60986,0.45996,1.956
13.32,0.4107,0.54004,0.61475,0.4502,1.9374
13.328,0.40606,0.54492,0.61475,0.45508,1.9257
13.336,0.40166,0.52979,0.62012,0.46484,1.9198
13.344,0.39751,0.51514,0.62988,0.4751,1.915
13.352,0.3936,0.5249,0.6499,0.47021,1.9081
13.36,0.38969,0.52002,0.66504,0.4751,1.9013
13.368,0.38602,0.5249,0.6748,0.47998,1.8964
13.376,0.3826,0.52002,0.68018,0.48486,1.8895
13.384,0.37967,0.5249,0.6748,0.47998,1.8778
13.392,0.37699,0.52002,0.66504,0.49512,1.8612
13.4,0.37454,0.5249,0.65479,0.49512,1.8397
13.408,0.3721,0.51514,0.64502,0.5,1.8182
13.416,0.36917,0.5249,0.64014,0.50488,1.7957
13.424,0.36624,0.53516,0.6499,0.50977,1.7722
13.432,0.36257,0.53516,0.64014,0.5,1.7517
13.44,0.35891,0.54492,0.64502,0.49023,1.7341
13.448,0.35377,0.5498,0.6499,0.49023,1.7204
13.456,0.34889,0.53516,0.65479,0.49512,1.7077
13.464,0.34278,0.56006,0.6499,0.47998,1.695
13.472,0.33692,0.56494,0.65479,0.48486,1.6862
13.48,0.33032,0.56006,0.6748,0.47021,1.6804
13.488,0.32397,0.60986,0.6748,0.4502,1.6725
13.496,0.31713,0.625,0.6748,0.43994,1.6628
13.504,0.31029,0.60986,0.68018,0.44482,1.652
13.512,0.30222,0.62012,0.6748,0.43506,1.6413
13.52,0.29416,0.64502,0.63477,0.41504,1.6276
13.528,0.28537,0.6499,0.5752,0.3999,1.609
13.536,0.27657,0.65479,0.54004,0.3999,1.5875
13.544,0.26875,0.66016,0.5249,0.40479,1.567
13.552,0.26093,0.62012,0.50488,0.4248,1.5523
13.56,0.2536,0.54004,0.5,0.48486,1.5494
13.568,0.24627,0.47021,0.50977,0.52979,1.5591
13.576,0.23846,0.4248,0.49023,0.56006,1.5914
13.584,0.23064,0.3999,0.47998,0.58008,1.6559
13.592,0.22209,0.40479,0.47021,0.58496,1.7517
13.6,0.21354,0.41016,0.46484,0.5752,1.8759
13.608,0.20547,0.39014,0.47021,0.58008,2.0225
13.616,0.19765,0.36523,0.52002,0.58984,2.1828
13.624,0.19032,0.30518,0.68018,0.62012,2.3441
13.632,0.183,0.41992,0.77979,0.5249,2.4917
13.64,0.17664,0.6499,0.52979,0.35498,2.6139
13.648,0.17029,0.93506,-0.034668,0.22998,2.7048
13.656,0.16467,1.2349,-0.49951,0.16016,2.7605
13.664,0.1593,0.7998,-0.49951,0.44482,2.784
13.672,0.15392,0.47998,-0.49951,0.59521,2.782
13.68,0.14855,0.41504,-0.49951,0.60498,2.7625
13.688,0.14342,0.43018,0.02002,0.56494,2.7263
13.696,0.13828,0.39014,0.375,0.5752,2.6813
13.704,0.13413,0.3999,0.54492,0.56982,2.6354
13.712,0.13022,0.37012,0.60498,0.58496,2.5924
13.72,0.1268,0.38525,0.62988,0.58008,2.5533
13.728,0.12338,0.39014,0.64502,0.56494,2.521
13.736,0.11947,0.3999,0.6499,0.56006,2.4946
13.744,0.11556,0.3999,0.65479,0.56982,2.4721
13.752,0.11068,0.41504,0.65479,0.5498,2.4526
13.76,0.10603,0.41992,0.65479,0.54492,2.4321
13.768,0.1009,0.41504,0.66016,0.54492,2.4106
13.776,0.095773,0.4248,0.65479,0.5498,2.3842
13.784,0.090398,0.43994,0.65479,0.53516,2.349
13.792,0.085023,0.45508,0.66016,0.5249,2.3069
13.8,0.079893,0.4502,0.66016,0.51514,2.2581
13.808,0.074762,0.47998,0.6499,0.50977,2.2033
13.816,0.069631,0.48486,0.64014,0.5,2.1457
13.824,0.064745,0.47998,0.64502,0.50977,2.089
13.832,0.059125,0.48486,0.6499,0.49023,2.0362
13.84,0.053506,0.50977,0.62012,0.47021,1.9863
13.848,0.047398,0.50977,0.60986,0.4751,1.9433
13.856,0.04129,0.51514,0.6001,0.46484,1.9101
13.864,0.035671,0.51514,0.6001,0.46484,1.8895
13.872,0.030296,0.52979,0.59521,0.46484,1.8778
13.88,0.025165,0.51514,0.60498,0.4751,1.8719
13.888,0.020279,0.50488,0.60498,0.48486,1.8719
13.896,0.015148,0.49512,0.62988,0.49023,1.8749
13.904,0.010261,0.49023,0.65479,0.49512,1.8788
13.912,0.0051307,0.50977,0.6748,0.49023,1.8837
13.92,0,0.49023,0.68506,0.48486,1.8876
13.928,-0.00024432,0.50977,0.68506,0.47998,1.8886
13.936,-0.00048864,0.50488,0.6748,0.49512,1.8856
13.944,-0.00048864,0.51514,0.6748,0.49023,1.8788
13.952,-0.00048864,0.50977,0.66504,0.5,1.8661
13.96,-0.00048864,0.51514,0.65479,0.51514,1.8514
13.968,-0.00048864,0.50977,0.66992,0.50977,1.8377
13.976,-0.00048864,0.5249,0.66016,0.50977,1.824
13.984,-0.00048864,0.52002,0.6748,0.50488,1.8045
13.992,-0.00048864,0.51514,0.66016,0.5,1.783
14,-0.00048864,0.54004,0.66016,0.49023,1.7615
14.008,-0.00048864,0.54004,0.66504,0.49023,1.741
14.016,-0.00048864,0.55518,0.65479,0.48486,1.7234
14.024,-0.00048864,0.56982,0.66016,0.46484,1.7087
14.032,-0.00048864,0.59521,0.66504,0.45508,1.696
14.04,-0.00048864,0.60498,0.68018,0.44482,1.6833
14.048,-0.00048864,0.625,0.68506,0.43506,1.6716
14.056,-0.00048864,0.6001,0.68994,0.45508,1.6569
14.064,-0.00048864,0.625,0.6748,0.43506,1.6442
14.072,-0.00048864,0.63477,0.62988,0.41992,1.6315
14.08,-0.00048864,0.65479,0.56006,0.39014,1.6149
14.088,-0.00048864,0.66504,0.53516,0.39502,1.5982
14.096,-0.00048864,0.66016,0.51514,0.39502,1.5826
14.104,-0.00048864,0.60498,0.5,0.43994,1.5728
14.112,-0.00048864,0.5249,0.49023,0.49512,1.5767
14.12,-0.00048864,0.45996,0.48486,0.53516,1.6002
14.128,-0.00048864,0.43994,0.46484,0.55518,1.6481
14.136,-0.00048864,0.40479,0.46484,0.58008,1.7243
14.144,-0.00048864,0.41016,0.45996,0.58496,1.8289
14.152,0.0012216,0.39502,0.4502,0.58008,1.957
14.16,0.0031761,0.37988,0.45996,0.58984,2.0978
14.168,0.010994,0.38525,0.52002,0.58496,2.2229
14.176,0.019057,0.31006,0.70508,0.625,2.3353
14.184,0.025898,0.43994,0.75977,0.5,2.4487
14.192,0.032983,0.70996,0.375,0.3252,2.5494
14.2,0.038847,1.0146,-0.25488,0.20508,2.6256
14.208,0.04471,1.1851,-0.49951,0.15527,2.6745
14.216,0.049353,0.66504,-0.49951,0.51514,2.696
14.224,0.053995,0.4751,-0.49951,0.6001,2.6931
14.232,0.057415,0.44482,-0.43457,0.5752,2.6716
14.24,0.060836,0.41504,0.12012,0.56982,2.6373
14.248,0.062057,0.38525,0.41504,0.58496,2.5992
14.256,0.063279,0.375,0.56006,0.58496,2.5591
14.264,0.06279,0.37988,0.60498,0.58496,2.5239
14.272,0.062301,0.36523,0.62012,0.58008,2.4927
14.28,0.060836,0.35986,0.63477,0.59521,2.4673
14.288,0.05937,0.38525,0.64014,0.56982,2.4487
14.296,0.057171,0.39014,0.64502,0.56982,2.433
14.304,0.055216,0.3999,0.64014,0.56006,2.4203
14.312,0.052284,0.39502,0.65479,0.5498,2.4047
14.32,0.049353,0.41504,0.64502,0.5498,2.3851
14.328,0.045688,0.4248,0.6499,0.54492,2.3607
14.336,0.042267,0.41992,0.64502,0.5498,2.3304
14.344,0.03958,0.45508,0.64502,0.52002,2.2933
14.352,0.037137,0.45996,0.64014,0.51514,2.2502
14.36,0.035426,0.4502,0.64014,0.52002,2.2004
14.368,0.03396,0.47021,0.63477,0.50488,2.1525
14.376,0.032495,0.48486,0.63477,0.5,2.1056
14.384,0.031029,0.50488,0.62988,0.48486,2.0557
14.392,0.029563,0.51514,0.62012,0.46484,2.0098
14.4,0.028341,0.52002,0.60986,0.45996,1.9687
14.408,0.027364,0.53516,0.60498,0.4502,1.9365
14.416,0.026631,0.51514,0.60498,0.46484,1.915
14.424,0.026142,0.52002,0.60986,0.46484,1.9032
14.432,0.025898,0.52002,0.60986,0.46484,1.8983
14.44,0.025898,0.51514,0.625,0.47021,1.8974
14.448,0.026142,0.50977,0.64502,0.4751,1.8974
14.456,0.026387,0.50977,0.65479,0.47998,1.8954
14.464,0.026631,0.5249,0.68506,0.45996,1.8935
14.472,0.026631,0.5498,0.68506,0.43994,1.8886
14.48,0.026875,0.51514,0.6748,0.48486,1.8768
14.488,0.026631,0.50488,0.66504,0.5,1.8592
14.496,0.026387,0.49512,0.66016,0.51514,1.8358
14.504,0.026387,0.5249,0.65479,0.49023,1.8104
14.512,0.026631,0.52002,0.66992,0.49512,1.783
14.52,0.026631,0.50977,0.66504,0.50488,1.7556
14.528,0.026875,0.52002,0.65479,0.50977,1.7312
14.536,0.026387,0.55518,0.65479,0.48486,1.7067
14.544,0.025898,0.53516,0.65479,0.5,1.6833
14.552,0.024432,0.5498,0.64502,0.47998,1.6598
14.56,0.02321,0.56006,0.63477,0.4751,1.6383
14.568,0.021011,0.55518,0.62988,0.4751,1.6227
14.576,0.018813,0.58008,0.63477,0.45996,1.6139
14.584,0.015881,0.60498,0.6499,0.43994,1.608
14.592,0.012949,0.63477,0.64014,0.4248,1.6051
14.6,0.010261,0.62012,0.6499,0.44482,1.6031
14.608,0.0078182,0.6001,0.65479,0.46484,1.6022
14.616,0.0056194,0.63477,0.63477,0.41992,1.6022
14.624,0.0034205,0.82471,0.625,0.2251,1.5992
14.632,0.0014659,0.86475,0.56982,0.18506,1.5914
14.64,-0.00048864,0.6748,0.51514,0.38525,1.5816
14.648,-0.00048864,0.81006,0.55518,0.24023,1.5738
14.656,-0.00048864,0.47998,0.44482,0.55518,1.5718
14.664,-0.00048864,0.37988,0.43506,0.62988,1.5777
14.672,-0.00048864,0.3501,0.43018,0.64502,1.5992
14.68,-0.00048864,0.34521,0.4248,0.63477,1.6452
14.688,-0.00048864,0.36523,0.41992,0.62012,1.7204
14.696,-0.00048864,0.3501,0.43018,0.62988,1.826
14.704,-0.00048864,0.36523,0.4248,0.60498,1.957
14.712,-0.00048864,0.375,0.43994,0.60498,2.1036
14.72,-0.00048864,0.28516,0.55518,0.6499,2.2551
14.728,-0.00048864,0.2749,0.72998,0.65479,2.4008
14.736,-0.00048864,0.47998,0.73486,0.47998,2.5298
14.744,0.00073296,0.77002,0.22021,0.30029,2.6344
14.752,0.0019546,1.0947,-0.45996,0.19531,2.7087
14.76,0.0051307,1.1899,-0.49951,0.18506,2.7517
14.768,0.0085512,0.56982,-0.49951,0.56494,2.7693
14.776,0.012705,0.43994,-0.49951,0.6001,2.7664
14.784,0.016858,0.43018,-0.19971,0.58008,2.7478
14.792,0.022233,0.39014,0.27002,0.58984,2.7165
14.8,0.027852,0.38525,0.52979,0.5752,2.6774
14.808,0.034205,0.3501,0.62012,0.6001,2.6364
14.816,0.040801,0.375,0.66504,0.5752,2.5953
14.824,0.047398,0.37988,0.6748,0.56982,2.5562
14.832,0.054239,0.35986,0.66992,0.6001,2.521
14.84,0.060836,0.35498,0.6748,0.58984,2.4888
14.848,0.067677,0.375,0.66992,0.58496,2.4594
14.856,0.073296,0.37012,0.6748,0.58008,2.433
14.864,0.07916,0.43994,0.66992,0.5249,2.4086
14.872,0.083557,0.45996,0.68018,0.50977,2.3803
14.88,0.087955,0.41504,0.65479,0.56006,2.3441
14.888,0.087711,0.4248,0.65479,0.54492,2.3011
14.896,0.087711,0.45508,0.65479,0.52002,2.2542
14.904,0.083802,0.43994,0.6499,0.54004,2.2023
14.912,0.080137,0.4502,0.64502,0.5249,2.1505
14.92,0.074273,0.45996,0.64014,0.52002,2.1017
14.928,0.068654,0.44482,0.64502,0.52979,2.0538
14.936,0.06108,0.4751,0.62988,0.5,2.0068
14.944,0.05375,0.45508,0.64014,0.50488,1.9619
14.952,0.041046,0.45996,0.62988,0.49512,1.9189
14.96,0.028585,0.45996,0.62988,0.5,1.8817
14.968,0.013926,0.48486,0.625,0.49023,1.8563
14.976,-0.00048864,0.48486,0.62988,0.49023,1.8387
14.984,-0.00048864,0.4751,0.64014,0.49512,1.827
14.992,-0.00048864,0.49023,0.64502,0.49023,1.824
15,-0.00048864,0.48486,0.65479,0.48486,1.8299
15.008,-0.00048864,0.50488,0.66504,0.49023,1.8387
15.016,-0.00048864,0.47998,0.68506,0.5,1.8436
15.024,-0.00048864,0.50488,0.68018,0.49023,1.8358
15.032,-0.00048864,0.49512,0.68506,0.50488,1.8084
15.04,-0.00048864,0.49023,0.6748,0.50977,1.7595
15.048,-0.00048864,0.50488,0.66504,0.49512,1.6872
15.056,-0.00048864,0.50488,0.66504,0.50488,1.5924
15.064,-0.00048864,0.50977,0.6748,0.50977,1.4985
15.072,-0.00048864,0.51514,0.68018,0.5,1.4008
15.08,-0.00048864,0.52979,0.66992,0.49023,1.2747
15.088,-0.00048864,0.53516,0.66016,0.48486,1.1261
15.096,-0.00048864,0.54004,0.65479,0.48486,0.9609
15.104,-0.00048864,0.52979,0.63477,0.47998,0.78201
15.112,-0.00048864,0.54004,0.62988,0.48486,0.59238
15.12,-0.00048864,0.54492,0.60986,0.47021,0.39687
15.128,-0.00048864,0.56006,0.625,0.4751,0.22287
15.136,-0.00048864,0.58984,0.62012,0.44482,0.11144
15.144,-0.00048864,0.60986,0.62988,0.43506,0.055718
15.152,-0.00048864,0.62012,0.62988,0.43018,0.02737
15.16,-0.00048864,0.59521,0.62988,0.4502,0.013685
15.168,-0.00048864,0.62988,0.60986,0.41504,0.0068426
15.176,-0.00048864,0.64014,0.5498,0.40479,0.0029325
15.184,-0.00048864,0.63477,0.50977,0.39014,0.00097752
15.192,-0.00048864,0.66504,0.49512,0.38525,0
15.2,-0.00048864,0.62988,0.46484,0.41504,0
15.208,-0.00048864,0.5498,0.45508,0.46484,0
15.216,-0.00048864,0.4751,0.45996,0.50977,0
15.224,-0.00048864,0.43994,0.43506,0.54492,0
15.232,-0.00048864,0.41504,0.43994,0.56006,0
15.24,-0.00048864,0.40479,0.41504,0.56494,0
15.248,-0.00048864,0.41016,0.41504,0.56006,0
15.256,-0.00048864,0.3999,0.41016,0.56006,0.043011
15.264,-0.00048864,0.41016,0.4248,0.56982,0.51124
15.272,0.0097728,0.31494,0.54492,0.60498,1.1789
15.28,0.020279,0.375,0.68994,0.56006,1.5728
15.288,0.032495,0.55518,0.6001,0.41504,1.826
15.296,0.044955,0.83496,0.20996,0.27002,2.001
15.304,0.055949,1.165,-0.38965,0.18506,2.129
15.312,0.067188,0.83984,-0.49951,0.43018,2.2258
15.32,0.077205,0.4751,-0.49951,0.62012,2.2991
15.328,0.087466,0.41016,-0.49951,0.63477,2.3558
15.336,0.096995,0.43994,-0.13965,0.56006,2.3988
15.344,0.10677,0.41504,0.26025,0.56006,2.4321
15.352,0.11605,0.38525,0.45508,0.58008,2.4575
15.36,0.12558,0.375,0.5249,0.58008,2.48
15.368,0.13413,0.37012,0.55518,0.5752,2.4966
15.376,0.14268,0.38525,0.56494,0.56006,2.5122
15.384,0.1505,0.37988,0.5752,0.56982,2.5318
15.392,0.15832,0.37988,0.58984,0.56982,2.5513
15.4,0.16492,0.40479,0.58496,0.5498,2.5699
15.408,0.17176,0.41504,0.58008,0.54492,2.5865
15.416,0.17762,0.40479,0.58496,0.55518,2.6012
15.424,0.18348,0.41504,0.58496,0.55518,2.6139
15.432,0.18837,0.4248,0.58008,0.54492,2.6237
15.44,0.1935,0.41504,0.5752,0.5498,2.6315
15.448,0.19814,0.44482,0.5752,0.52002,2.6373
15.456,0.20279,0.45508,0.56982,0.51514,2.6432
15.464,0.20743,0.44482,0.5752,0.51514,2.6471
15.472,0.21207,0.47998,0.56006,0.49023,2.65
15.48,0.21671,0.49023,0.54492,0.47998,2.652
15.488,0.2216,0.50977,0.52979,0.46484,2.6549
15.496,0.22673,0.50977,0.52979,0.47021,2.6569
15.504,0.2321,0.5249,0.51514,0.45508,2.6598
15.512,0.23797,0.52002,0.5249,0.44482,2.6637
15.52,0.24383,0.53516,0.51514,0.4502,2.6676
15.528,0.25043,0.52979,0.51514,0.45508,2.6716
15.536,0.25727,0.54004,0.51514,0.4502,2.6755
15.544,0.2646,0.53516,0.53516,0.45996,2.6774
15.552,0.27193,0.54492,0.5498,0.4502,2.6784
15.56,0.27926,0.53516,0.5752,0.45996,2.6764
15.568,0.28659,0.55518,0.59521,0.4502,2.6735
15.576,0.29392,0.54492,0.60986,0.46484,2.6696
15.584,0.30149,0.53516,0.625,0.47021,2.6647
15.592,0.30931,0.53516,0.64014,0.47998,2.6588
15.6,0.31737,0.52979,0.6499,0.48486,2.653
15.608,0.32543,0.55518,0.64502,0.47998,2.6461
15.616,0.3335,0.55518,0.64014,0.47021,2.6393
15.624,0.34034,0.55518,0.64014,0.4751,2.6315
15.632,0.34718,0.56494,0.62988,0.46484,2.6237
15.64,0.35304,0.58008,0.62988,0.45508,2.6158
15.648,0.35891,0.56982,0.62988,0.46484,2.607
15.656,0.36379,0.56006,0.60986,0.45508,2.5973
15.664,0.36868,0.58496,0.58496,0.4502,2.5885
15.672,0.37283,0.5752,0.58496,0.45996,2.5816
15.68,0.37699,0.59521,0.6001,0.44482,2.5748
15.688,0.38016,0.60986,0.59521,0.43994,2.567
15.696,0.38334,0.58984,0.60986,0.45508,2.5572
15.704,0.38578,0.58008,0.61475,0.45996,2.5464
15.712,0.38822,0.59521,0.62012,0.4502,2.5347
15.72,0.39042,0.62012,0.58496,0.41992,2.523
15.728,0.39262,0.62988,0.53516,0.41016,2.5122
15.736,0.39482,0.6499,0.51514,0.40479,2.5015
15.744,0.39726,0.64502,0.49023,0.41016,2.4917
15.752,0.39995,0.59521,0.4751,0.44482,2.4819
15.76,0.40288,0.49512,0.46484,0.50488,2.4751
15.768,0.40606,0.43994,0.45996,0.54492,2.4712
15.776,0.40924,0.41016,0.4502,0.56982,2.4741
15.784,0.41266,0.39014,0.43506,0.56494,2.4868
15.792,0.41632,0.37012,0.4248,0.58496,2.5103
15.8,0.42023,0.375,0.43018,0.58496,2.5445
15.808,0.42438,0.37988,0.43506,0.58008,2.5894
15.816,0.43049,0.31494,0.48486,0.60498,2.6413
15.824,0.43684,0.28027,0.6499,0.625,2.697
15.832,0.44515,0.41504,0.7251,0.51514,2.7517
15.84,0.45346,0.6499,0.50977,0.35986,2.7996
15.848,0.46347,0.9248,0.024902,0.26514,2.8387
15.856,0.47374,1.105,-0.49951,0.20996,2.8651
15.864,0.48522,0.58496,-0.49951,0.58008,2.8768
15.872,0.4967,0.375,-0.49951,0.66504,2.8778
15.88,0.50721,0.3501,-0.49951,0.62012,2.87
15.888,0.51771,0.39502,0.044922,0.58984,2.8534
15.896,0.52749,0.35986,0.35986,0.59521,2.8309
15.904,0.5375,0.34521,0.50488,0.6001,2.8055
15.912,0.54825,0.34521,0.56006,0.60498,2.7781
15.92,0.559,0.34521,0.58008,0.6001,2.7498
15.928,0.57024,0.34521,0.58984,0.58984,2.7243
15.936,0.58148,0.3501,0.60498,0.59521,2.7009
15.944,0.59223,0.37012,0.60498,0.5752,2.6794
15.952,0.60323,0.375,0.6001,0.56494,2.6588
15.96,0.61373,0.38525,0.59521,0.56006,2.6413
15.968,0.62448,0.39014,0.59521,0.56006,2.6246
15.976,0.63621,0.40479,0.59521,0.5498,2.6061
15.984,0.64818,0.41504,0.59521,0.54492,2.5875
15.992,0.66113,0.41504,0.59521,0.54004,2.5699
16,0.67408,0.4248,0.58984,0.52979,2.5533
16.008,0.68776,0.4502,0.58008,0.51514,2.5357
16.016,0.70144,0.45996,0.58496,0.51514,2.52
16.024,0.71537,0.47021,0.5752,0.49023,2.5064
16.032,0.72954,0.48486,0.56006,0.47021,2.4946
16.04,0.74249,0.49023,0.5498,0.46484,2.4848
16.048,0.75568,0.50488,0.54492,0.45996,2.477
16.056,0.7679,0.51514,0.54004,0.45508,2.4702
16.064,0.78011,0.51514,0.53516,0.45996,2.4653
16.072,0.79306,0.52002,0.53516,0.45508,2.4604
16.08,0.80601,0.51514,0.54492,0.45996,2.4545
16.088,0.81945,0.52002,0.56006,0.45508,2.4487
16.096,0.83289,0.53516,0.56982,0.44482,2.4409
16.104,0.84412,0.53516,0.58496,0.45508,2.433
16.112,0.85561,0.52979,0.60986,0.46484,2.4252
16.12,0.86514,0.5498,0.62988,0.45996,2.4164
16.128,0.87491,0.55518,0.65479,0.45996,2.4066
16.136,0.88346,0.54004,0.66992,0.47998,2.3969
16.144,0.89226,0.5498,0.68018,0.47021,2.3861
16.152,0.90007,0.56006,0.68018,0.46484,2.3754
16.16,0.90814,0.56982,0.68018,0.45996,2.3656
16.168,0.914,0.59521,0.6748,0.4502,2.3587
16.176,0.91986,0.60498,0.6748,0.44482,2.3529
16.184,0.92402,0.60986,0.66992,0.4502,2.347
16.192,0.92817,0.62012,0.65479,0.43506,2.3421
16.2,0.93037,0.625,0.64502,0.4248,2.3372
16.208,0.93281,0.625,0.62988,0.4248,2.3324
16.216,0.93355,0.60986,0.625,0.43994,2.3275
16.224,0.93428,0.625,0.625,0.4248,2.3226
16.232,0.93281,0.65479,0.62988,0.40479,2.3177
16.24,0.93135,0.6499,0.63477,0.41504,2.3148
16.248,0.92817,0.64502,0.64502,0.41992,2.3138
16.256,0.92524,0.62988,0.64502,0.43018,2.3128
16.264,0.92133,0.66016,0.62988,0.39502,2.3128
16.272,0.91766,0.6748,0.58008,0.38525,2.3138
16.28,0.91327,0.69482,0.53516,0.37012,2.3138
16.288,0.90887,0.70996,0.52979,0.36523,2.3118
16.296,0.90447,0.68994,0.51514,0.37988,2.3089
16.304,0.90032,0.58984,0.50977,0.4502,2.305
16.312,0.89641,0.50977,0.50977,0.5,2.3021
16.32,0.8925,0.45996,0.48486,0.52979,2.304
16.328,0.89006,0.43018,0.47021,0.56006,2.3148
16.336,0.88786,0.41504,0.47021,0.56494,2.3363
16.344,0.88688,0.41016,0.46484,0.56982,2.3705
16.352,0.8859,0.41016,0.46484,0.56494,2.4164
16.36,0.88541,0.41504,0.45996,0.56006,2.4643
16.368,0.88517,0.31982,0.58008,0.60498,2.5132
16.376,0.88541,0.31494,0.75,0.56982,2.5699
16.384,0.88566,0.54004,0.7749,0.43018,2.6276
16.392,0.88761,0.80469,0.3501,0.28027,2.6804
16.4,0.88957,1.0947,-0.20459,0.19531,2.7224
16.408,0.89299,1.145,-0.49951,0.375,2.7527
16.416,0.89641,0.45996,-0.49951,0.62988,2.7703
16.424,0.90032,0.35498,-0.49951,0.65479,2.7752
16.432,0.90447,0.39502,-0.21973,0.58984,2.7674
16.44,0.90911,0.3999,0.22021,0.58008,2.7507
16.448,0.914,0.38525,0.45996,0.58008,2.7292
16.456,0.9206,0.38525,0.56006,0.5752,2.7048
16.464,0.92719,0.39014,0.59521,0.56494,2.6823
16.472,0.9355,0.39014,0.60498,0.56982,2.6618
16.48,0.94381,0.39014,0.61475,0.56006,2.6403
16.488,0.95382,0.39014,0.62012,0.56006,2.6217
16.496,0.96384,0.41504,0.62012,0.5498,2.6051
16.504,0.97484,0.41504,0.62012,0.55518,2.5894
16.512,0.98583,0.4248,0.625,0.53516,2.5758
16.52,0.99291,0.43994,0.62012,0.52979,2.5621
16.528,1,0.43994,0.62012,0.53516,2.5484
16.536,1,0.43994,0.61475,0.52979,2.5337
16.544,1,0.45996,0.60498,0.50977,2.5191
16.552,1,0.45996,0.60498,0.50977,2.5064
16.56,1,0.4751,0.60498,0.5,2.4966
16.568,1,0.47998,0.59521,0.49512,2.4878
16.576,1,0.49023,0.58496,0.48486,2.479
16.584,1,0.50977,0.56982,0.47021,2.4692
16.592,1,0.52002,0.55518,0.46484,2.4604
16.6,1,0.52002,0.55518,0.45508,2.4526
16.608,1,0.53516,0.5498,0.4502,2.4477
16.616,1,0.54492,0.5498,0.44482,2.4448
16.624,1,0.53516,0.54492,0.4502,2.4418
16.632,1,0.53516,0.5498,0.45508,2.4379
16.64,1,0.52979,0.56006,0.46484,2.434
16.648,1,0.54492,0.58008,0.4502,2.4291
16.656,1,0.54004,0.6001,0.45508,2.4233
16.664,1,0.54492,0.62012,0.45996,2.4164
16.672,1,0.54004,0.64014,0.46484,2.4086
16.68,1,0.54492,0.6499,0.4751,2.3988
16.688,1,0.53516,0.66016,0.47998,2.3881
16.696,1,0.52979,0.66992,0.49023,2.3773
16.704,1,0.5249,0.6748,0.49023,2.3685
16.712,1,0.53516,0.6748,0.49023,2.3597
16.72,1,0.53516,0.6748,0.49512,2.3529
16.728,1,0.54004,0.6748,0.49023,2.347
16.736,1,0.5498,0.66504,0.47998,2.3421
16.744,1,0.55518,0.6499,0.4751,2.3372
16.752,1,0.54492,0.65479,0.47998,2.3324
16.76,1,0.53516,0.63477,0.49023,2.3284
16.768,1,0.55518,0.62988,0.4751,2.3255
16.776,1,0.56982,0.63477,0.46484,2.3216
16.784,1,0.58008,0.65479,0.46484,2.3167
16.792,1,0.5752,0.66016,0.45996,2.3118
16.8,1,0.59521,0.6499,0.45508,2.3069
16.808,1,0.58008,0.6499,0.46484,2.3021
16.816,1,0.62012,0.63477,0.43506,2.2972
16.824,1,0.63477,0.56982,0.41504,2.2923
16.832,1,0.625,0.54492,0.41992,2.2864
16.84,1,0.63477,0.52979,0.41992,2.2796
16.848,1,0.60498,0.5249,0.44482,2.2747
16.856,1,0.52002,0.52979,0.50488,2.2717
16.864,1,0.43018,0.51514,0.56494,2.2727
16.872,1,0.39502,0.48486,0.5752,2.2796
16.88,1,0.36523,0.49023,0.59521,2.2952
16.888,1,0.37988,0.4751,0.58496,2.3206
16.896,1,0.3501,0.48486,0.6001,2.3587
16.904,1,0.38525,0.4751,0.56982,2.4086
16.912,1,0.34521,0.52979,0.58496,2.4673
16.92,1,0.28516,0.6748,0.62012,2.5308
16.928,1,0.3999,0.7998,0.52979,2.5943
16.936,1,0.66016,0.58984,0.34521,2.652
16.944,1,0.91504,0.095215,0.24023,2.7009
16.952,1,1.1348,-0.49463,0.19531,2.738
16.96,1,0.60498,-0.49951,0.55518,2.7605
16.968,1,0.375,-0.49951,0.65479,2.7703
16.976,1,0.3252,-0.49951,0.62988,2.7722
16.984,1,0.37012,0.060059,0.58496,2.7644
16.992,1,0.35498,0.3999,0.58984,2.7488
17,1,0.35986,0.56982,0.58008,2.7292
17.008,1,0.35986,0.62988,0.58008,2.7077
17.016,1,0.37012,0.65479,0.5752,2.6862
17.024,1,0.35986,0.66992,0.58496,2.6657
17.032,1,0.37988,0.65479,0.56494,2.6471
17.04,1,0.37012,0.66016,0.56982,2.6305
17.048,1,0.40479,0.65479,0.5498,2.6149
17.056,1,0.41016,0.65479,0.54492,2.6002
17.064,1,0.41016,0.65479,0.54492,2.5875
17.072,1,0.43506,0.65479,0.53516,2.5758
17.08,1,0.4502,0.65479,0.52002,2.564
17.088,1,0.43018,0.64014,0.52979,2.5513
17.096,1,0.45508,0.63477,0.50977,2.5367
17.104,1,0.47021,0.63477,0.49023,2.522
17.112,1,0.48486,0.625,0.48486,2.5083
17.12,1,0.49512,0.61475,0.4751,2.4956
17.128,1,0.5,0.60986,0.46484,2.4848
17.136,1,0.49023,0.61475,0.47021,2.4751
17.144,1,0.5,0.60498,0.46484,2.4653
17.152,1,0.50977,0.58984,0.45508,2.4565
17.16,1,0.50488,0.58496,0.46484,2.4497
17.168,1,0.49512,0.58496,0.46484,2.4457
17.176,1,0.5,0.58984,0.46484,2.4438
17.184,1,0.49512,0.59521,0.4751,2.4428
17.192,1,0.49512,0.60986,0.47998,2.4428
17.2,1,0.50977,0.62012,0.46484,2.4428
17.208,1,0.5,0.64014,0.4751,2.4428
17.216,1,0.52002,0.6499,0.47021,2.4428
17.224,0.99414,0.5249,0.66992,0.47998,2.4428
17.232,0.98852,0.52979,0.6748,0.49023,2.4438
17.24,0.98216,0.50977,0.6748,0.5,2.4477
17.248,0.97606,0.50488,0.68018,0.50977,2.4536
17.256,0.96873,0.52002,0.6748,0.49023,2.4624
17.264,0.9614,0.53516,0.69482,0.48486,2.4702
17.272,0.95333,0.55518,0.68506,0.4751,2.478
17.28,0.94527,0.56006,0.68994,0.46484,2.4868
17.288,0.93745,0.55518,0.6748,0.4751,2.4946
17.296,0.92988,0.56494,0.66016,0.46484,2.5005
17.304,0.92255,0.56982,0.6499,0.46484,2.5015
17.312,0.91547,0.56982,0.64014,0.45996,2.4321
17.32,0.91009,0.58496,0.63477,0.4502,2.3245
17.328,0.90472,0.60498,0.66016,0.43506,2.263
17.336,0.90081,0.62012,0.66016,0.43994,2.2219
17.344,0.89714,0.63477,0.66504,0.41992,2.1926
17.352,0.89494,0.60986,0.6748,0.43994,2.1711
17.36,0.89299,0.60498,0.66016,0.43506,2.1544
17.368,0.89226,0.64502,0.59521,0.41016,2.1408
17.376,0.89152,0.6499,0.55518,0.40479,2.1261
17.384,0.89177,0.64014,0.52979,0.41992,2.1114
17.392,0.89201,0.68018,0.49512,0.39502,2.0978
17.4,0.89323,0.58984,0.49023,0.4502,2.086
17.408,0.89445,0.50977,0.48486,0.50488,2.0782
17.416,0.89665,0.45996,0.47998,0.54004,2.0811
17.424,0.89885,0.4248,0.46484,0.56494,2.0968
17.432,0.90178,0.41504,0.45508,0.56982,2.129
17.44,0.90496,0.4248,0.44482,0.55518,2.1779
17.448,0.90814,0.43994,0.43994,0.54492,2.2424
17.456,0.91131,0.41504,0.45996,0.56006,2.3079
17.464,0.91449,0.33008,0.56494,0.60986,2.3754
17.472,0.91766,0.31494,0.73975,0.5752,2.4545
17.48,0.91913,0.5249,0.75977,0.44482,2.5376
17.488,0.92084,0.7998,0.28516,0.28027,2.6139
17.496,0.92108,1.1147,-0.39502,0.16992,2.6764
17.504,0.92133,1.1997,-0.49951,0.31006,2.7253
17.512,0.91962,0.51514,-0.49951,0.58984,2.7576
17.52,0.91791,0.375,-0.49951,0.63477,2.7732
17.528,0.91449,0.36523,-0.27002,0.58984,2.7742
17.536,0.91131,0.40479,0.21484,0.5752,2.7625
17.544,0.90667,0.37012,0.47998,0.58984,2.7429
17.552,0.90203,0.38525,0.5752,0.5752,2.7175
17.56,0.89616,0.39014,0.60986,0.58008,2.6921
17.568,0.8903,0.39502,0.625,0.56494,2.6657
17.576,0.88151,0.3999,0.62988,0.56006,2.6383
17.584,0.87271,0.39014,0.63477,0.56494,2.6109
17.592,0.86123,0.41992,0.62988,0.55518,2.5875
17.6,0.84999,0.43994,0.62988,0.53516,2.567
17.608,0.83606,0.43994,0.62988,0.53516,2.5464
17.616,0.82238,0.45996,0.625,0.52002,2.5249
17.624,0.80699,0.47021,0.62988,0.51514,2.5015
17.632,0.7916,0.47998,0.625,0.50977,2.478
17.64,0.77742,0.48486,0.62988,0.50488,2.4555
17.648,0.76325,0.47998,0.625,0.5,2.434
17.656,0.75006,0.50488,0.62988,0.47998,2.4154
17.664,0.73711,0.5,0.61475,0.47998,2.3998
17.672,0.72441,0.50977,0.60986,0.47021,2.3851
17.68,0.71195,0.50977,0.60498,0.46484,2.3715
17.688,0.69973,0.51514,0.59521,0.46484,2.3587
17.696,0.68776,0.52002,0.58496,0.45508,2.348
17.704,0.67799,0.53516,0.58496,0.44482,2.3392
17.712,0.66821,0.54004,0.6001,0.45996,2.3314
17.72,0.6604,0.51514,0.58496,0.4502,2.3236
17.728,0.65258,0.52979,0.58984,0.46484,2.3167
17.736,0.64623,0.5249,0.60498,0.45996,2.3089
17.744,0.64012,0.53516,0.62012,0.46484,2.2991
17.752,0.63499,0.54492,0.63477,0.45996,2.2893
17.76,0.62986,0.54004,0.6499,0.4502,2.2796
17.768,0.62546,0.55518,0.65479,0.45508,2.2698
17.776,0.6213,0.5498,0.65479,0.46484,2.2581
17.784,0.6174,0.55518,0.65479,0.46484,2.2463
17.792,0.61373,0.54492,0.65479,0.47998,2.2336
17.8,0.61007,0.55518,0.6499,0.47021,2.2199
17.808,0.6064,0.56494,0.65479,0.46484,2.2063
17.816,0.60249,0.58008,0.6499,0.46484,2.1916
17.824,0.59883,0.58008,0.6499,0.47021,2.1779
17.832,0.59394,0.58496,0.6499,0.45996,2.1632
17.84,0.58905,0.5752,0.65479,0.46484,2.1505
17.848,0.58344,0.58496,0.62988,0.45996,2.1388
17.856,0.57782,0.58496,0.625,0.45508,2.13
17.864,0.57195,0.58008,0.62012,0.4502,2.1212
17.872,0.56633,0.62012,0.61475,0.43506,2.1134
17.88,0.56022,0.62988,0.64014,0.4248,2.1065
17.888,0.55436,0.6499,0.63477,0.41992,2.0978
17.896,0.54776,0.62988,0.65479,0.4248,2.088
17.904,0.54141,0.62012,0.65479,0.43994,2.0772
17.912,0.53457,0.6499,0.62988,0.41016,2.0665
17.92,0.52773,0.66504,0.56982,0.3999,2.0547
17.928,0.52113,0.66016,0.54004,0.39014,2.0401
17.936,0.51454,0.66992,0.53516,0.39502,2.0264
17.944,0.50818,0.625,0.51514,0.41992,2.0137
17.952,0.50183,0.54492,0.52002,0.47998,2.0049
17.96,0.4967,0.47021,0.5,0.5249,2.002
17.968,0.49157,0.41992,0.49023,0.56006,2.0088
17.976,0.48717,0.39502,0.4751,0.5752,2.0293
17.984,0.48302,0.39502,0.47021,0.58008,2.0665
17.992,0.47911,0.38525,0.4751,0.58496,2.1222
18,0.4752,0.39502,0.46484,0.56982,2.1955
18.008,0.47129,0.36523,0.5,0.58496,2.2805
18.016,0.46763,0.31006,0.64502,0.60986,2.3705
18.024,0.46445,0.3999,0.77002,0.54004,2.4565
18.032,0.46152,0.61475,0.5752,0.375,2.5327
18.04,0.45859,0.8999,0.02002,0.24023,2.5963
18.048,0.4559,1.21,-0.49951,0.16016,2.6413
18.056,0.45199,0.7998,-0.49951,0.43994,2.6647
18.064,0.44833,0.47998,-0.49951,0.59521,2.6725
18.072,0.4432,0.41016,-0.49951,0.61475,2.6676
18.08,0.43831,0.43994,-0.040039,0.56006,2.651
18.088,0.43171,0.41992,0.33496,0.56494,2.6246
18.096,0.42512,0.39502,0.51514,0.5752,2.5924
18.104,0.41705,0.39502,0.58008,0.56006,2.5572
18.112,0.40924,0.3999,0.60498,0.56494,2.523
18.12,0.40117,0.39014,0.61475,0.56006,2.4907
18.128,0.39311,0.40479,0.61475,0.56494,2.4624
18.136,0.3848,0.41504,0.62012,0.54492,2.437
18.144,0.37674,0.43994,0.61475,0.53516,2.4145
18.152,0.3677,0.41992,0.62988,0.54004,2.392
18.16,0.35866,0.4502,0.60986,0.5249,2.3724
18.168,0.34889,0.43994,0.625,0.52002,2.3558
18.176,0.33936,0.4502,0.62988,0.52979,2.3382
18.184,0.33056,0.43994,0.625,0.51514,2.3177
18.192,0.32177,0.45996,0.625,0.51514,2.2952
18.2,0.31395,0.45996,0.62988,0.51514,2.2717
18.208,0.30613,0.47021,0.62988,0.5,2.2493
18.216,0.2988,0.47998,0.62012,0.49023,2.2278
18.224,0.29172,0.49023,0.625,0.47998,2.2063
18.232,0.28512,0.50977,0.60498,0.46484,2.1857
18.24,0.27852,0.51514,0.58984,0.45996,2.1672
18.248,0.2729,0.52002,0.58984,0.45508,2.1525
18.256,0.26729,0.51514,0.58496,0.45508,2.1427
18.264,0.26264,0.52979,0.58008,0.4502,2.1369
18.272,0.258,0.5249,0.58496,0.45996,2.132
18.28,0.25434,0.50977,0.6001,0.47021,2.1281
18.288,0.25067,0.5249,0.60986,0.46484,2.1241
18.296,0.24798,0.52979,0.62988,0.45508,2.1202
18.304,0.2453,0.52002,0.6499,0.46484,2.1144
18.312,0.24285,0.53516,0.65479,0.45996,2.1065
18.32,0.24041,0.52979,0.66504,0.4751,2.0978
18.328,0.23797,0.53516,0.66504,0.47021,2.088
18.336,0.23552,0.54004,0.66504,0.4751,2.0772
18.344,0.23259,0.53516,0.65479,0.48486,2.0655
18.352,0.2299,0.55518,0.66504,0.4751,2.0538
18.36,0.22648,0.54492,0.66992,0.47998,2.044
18.368,0.22331,0.54492,0.6748,0.4751,2.0362
18.376,0.21793,0.54004,0.66992,0.48486,2.0274
18.384,0.21256,0.55518,0.6748,0.46484,2.0196
18.392,0.20498,0.54004,0.66016,0.48486,2.0108
18.4,0.19765,0.56982,0.64014,0.46484,2.001
18.408,0.18813,0.56006,0.625,0.46484,1.9912
18.416,0.1786,0.56982,0.625,0.46484,1.9814
18.424,0.1676,0.6001,0.63477,0.44482,1.9717
18.432,0.15661,0.62988,0.64014,0.4248,1.9629
18.44,0.14684,0.60986,0.65479,0.44482,1.955
18.448,0.13706,0.59521,0.66016,0.46484,1.9482
18.456,0.12827,0.60986,0.64014,0.43994,1.9433
18.464,0.11972,0.6499,0.58984,0.3999,1.9365
18.472,0.11043,0.66016,0.54004,0.39502,1.9267
18.48,0.10139,0.66992,0.5249,0.38525,1.9169
18.488,0.092108,0.6748,0.5,0.39502,1.9062
18.496,0.082824,0.60986,0.49512,0.43506,1.8974
18.504,0.07525,0.5,0.5,0.50488,1.8944
18.512,0.067677,0.45508,0.4751,0.54004,1.8993
18.52,0.061324,0.41992,0.46484,0.56006,1.915
18.528,0.055216,0.3999,0.45996,0.56494,1.9462
18.536,0.049353,0.39014,0.4502,0.58008,1.998
18.544,0.043489,0.39502,0.44482,0.5752,2.0674
18.552,0.037625,0.37988,0.46484,0.58984,2.1515
18.56,0.032006,0.31006,0.52979,0.62012,2.2317
18.568,0.026631,0.28516,0.70508,0.62988,2.3099
18.576,0.0215,0.43506,0.75977,0.50977,2.3949
18.584,0.016858,0.70996,0.3999,0.31982,2.4741
18.592,0.012216,0.98975,-0.16504,0.22998,2.5386
18.6,0.0087955,1.1597,-0.49951,0.19531,2.5836
18.608,0.0056194,0.58984,-0.49951,0.5752,2.609
18.616,0.0034205,0.41992,-0.49951,0.63477,2.6168
18.624,0.0012216,0.40479,-0.32471,0.58984,2.608
18.632,0.00024432,0.41504,0.18506,0.5752,2.5865
18.64,-0.00048864,0.375,0.45508,0.58496,2.5572
18.648,-0.00048864,0.37012,0.58008,0.58008,2.523
18.656,-0.00048864,0.37988,0.625,0.5752,2.4907
18.664,-0.00048864,0.37012,0.6499,0.58008,2.4614
18.672,-0.00048864,0.37012,0.65479,0.58496,2.4311
18.68,-0.00048864,0.37988,0.65479,0.56982,2.4037
18.688,-0.00048864,0.3999,0.66016,0.56006,2.3803
18.696,-0.00048864,0.39502,0.66992,0.56494,2.3617
18.704,-0.00048864,0.41504,0.66504,0.55518,2.347
18.712,-0.00048864,0.4248,0.65479,0.54004,2.3324
18.72,-0.00048864,0.40479,0.66016,0.5498,2.3167
18.728,-0.00048864,0.41504,0.66016,0.54492,2.2991
18.736,-0.00048864,0.41992,0.66504,0.54004,2.2786
18.744,-0.00048864,0.43506,0.65479,0.53516,2.2571
18.752,-0.00048864,0.44482,0.65479,0.52002,2.2346
18.76,-0.00048864,0.43506,0.66016,0.52979,2.2141
18.768,-0.00048864,0.46484,0.64502,0.50488,2.1965
18.776,-0.00048864,0.48486,0.63477,0.48486,2.1769
18.784,-0.00048864,0.50488,0.62012,0.46484,2.1584
18.792,-0.00048864,0.50488,0.60986,0.46484,2.1427
18.8,-0.00048864,0.50977,0.60986,0.45996,2.131
18.808,-0.00048864,0.5249,0.60498,0.45996,2.1222
18.816,-0.00048864,0.52979,0.60498,0.45508,2.1163
18.824,-0.00048864,0.54004,0.60498,0.4502,2.1114
18.832,-0.00048864,0.54004,0.60986,0.45508,2.1065
18.84,-0.00048864,0.52979,0.625,0.4502,2.1007
18.848,-0.00048864,0.54492,0.64014,0.4502,2.0929
18.856,-0.00048864,0.54004,0.65479,0.45508,2.085
18.864,-0.00048864,0.55518,0.66992,0.4502,2.0772
18.872,-0.00048864,0.54004,0.6748,0.4751,2.0684
18.88,-0.00048864,0.5498,0.66992,0.47021,2.0587
18.888,-0.00048864,0.53516,0.66016,0.4751,2.0489
18.896,-0.00048864,0.54004,0.66992,0.4751,2.0381
18.904,-0.00048864,0.53516,0.6748,0.48486,2.0283
18.912,-0.00048864,0.5498,0.66504,0.47998,2.0205
18.92,-0.00048864,0.56494,0.66992,0.46484,2.0127
18.928,-0.00048864,0.56006,0.66016,0.4751,2.0039
18.936,-0.00048864,0.56494,0.65479,0.46484,1.9951
18.944,-0.00048864,0.56982,0.6499,0.46484,1.9873
18.952,-0.00048864,0.56494,0.62988,0.46484,1.9804
18.96,-0.00048864,0.56494,0.62988,0.46484,1.9746
18.968,-0.00048864,0.58008,0.63477,0.45996,1.9697
18.976,-0.00048864,0.60986,0.64502,0.43994,1.9638
18.984,-0.00048864,0.625,0.65479,0.43018,1.958
18.992,-0.00048864,0.60986,0.66504,0.43994,1.9511
19,-0.00048864,0.60498,0.65479,0.4502,1.9443
19.008,-0.00048864,0.63477,0.62988,0.41992,1.9374
19.016,-0.00048864,0.64014,0.58008,0.41016,1.9286
19.024,-0.00048864,0.62988,0.54004,0.41992,1.9179
19.032,-0.00048864,0.66504,0.52002,0.39502,1.9071
19.04,-0.00048864,0.62988,0.49512,0.41992,1.8964
19.048,-0.00048864,0.54004,0.49512,0.47998,1.8866
19.056,-0.00048864,0.45996,0.49023,0.54004,1.8817
19.064,-0.00048864,0.41504,0.47021,0.5752,1.8866
19.072,-0.00048864,0.39014,0.45508,0.58496,1.9042
19.08,-0.00048864,0.375,0.45996,0.6001,1.9384
19.088,-0.00048864,0.37012,0.45508,0.59521,1.9922
19.096,-0.00048864,0.36523,0.45508,0.6001,2.0635
19.104,-0.00048864,0.3501,0.47998,0.59521,2.1505
19.112,-0.00048864,0.27002,0.60986,0.64014,2.2463
19.12,-0.00048864,0.3252,0.75,0.59521,2.3402
19.128,-0.00048864,0.5249,0.60498,0.43018,2.4262
19.136,-0.00048864,0.79004,0.16016,0.29492,2.4995
19.144,-0.00048864,1.1348,-0.47461,0.20508,2.5543
19.152,-0.00048864,0.84473,-0.49951,0.4248,2.5875
19.16,-0.00048864,0.49512,-0.49951,0.60986,2.6022
19.168,-0.00048864,0.4248,-0.49951,0.62012,2.6031
19.176,-0.00048864,0.41504,-0.089844,0.58496,2.5914
19.184,-0.00048864,0.37988,0.30518,0.59521,2.5689
19.192,-0.00048864,0.36523,0.5,0.6001,2.5396
19.2,-0.00048864,0.34521,0.56982,0.59521,2.5054
19.208,-0.00048864,0.3501,0.59521,0.58984,2.4692
19.216,-0.00048864,0.35986,0.60498,0.58496,2.434
19.224,-0.00048864,0.35986,0.61475,0.58496,2.3998
19.232,-0.00048864,0.37012,0.60498,0.5752,2.3695
19.24,-0.00048864,0.38525,0.60986,0.56982,2.3441
19.248,-0.00048864,0.37988,0.61475,0.56982,2.3226
19.256,-0.00048864,0.39502,0.61475,0.56006,2.304
19.264,-0.00048864,0.41016,0.60498,0.56494,2.2884
19.272,-0.00048864,0.41504,0.60986,0.54492,2.2717
19.28,-0.00048864,0.41992,0.60498,0.54004,2.2542
19.288,-0.00048864,0.4248,0.60498,0.54004,2.2356
19.296,-0.00048864,0.43994,0.6001,0.52979,2.216
19.304,-0.00048864,0.45508,0.6001,0.51514,2.1965
19.312,-0.00048864,0.45996,0.58496,0.50977,2.1779
19.32,-0.00048864,0.47021,0.5752,0.49023,2.1623
19.328,-0.00048864,0.48486,0.56006,0.48486,2.1486
19.336,-0.00048864,0.50488,0.56006,0.46484,2.1369
19.344,-0.00048864,0.50977,0.54492,0.46484,2.129
19.352,-0.00048864,0.50977,0.54004,0.46484,2.1241
19.36,-0.00048864,0.50977,0.54004,0.46484,1.9951
19.368,0.00048864,0.51514,0.5498,0.45996,1.8025
19.376,0.0017102,0.51514,0.5498,0.45996,1.7009
19.384,0.0036648,0.52979,0.56494,0.45508,1.6452
19.392,0.0056194,0.53516,0.58008,0.45508,1.6129
19.4,0.0073296,0.54004,0.58984,0.45508,1.5924
19.408,0.0090398,0.54492,0.60498,0.45996,1.5777
19.416,0.010506,0.54004,0.62012,0.45996,1.564
19.424,0.012216,0.52979,0.62988,0.47998,1.5474
19.432,0.012705,0.53516,0.63477,0.4751,1.5298
19.44,0.013193,0.54004,0.64502,0.48486,1.5112
19.448,0.012705,0.5498,0.64502,0.47021,1.4927
19.456,0.01246,0.5498,0.6499,0.47021,1.477
19.464,0.011972,0.56006,0.65479,0.46484,1.4643
19.472,0.011483,0.56494,0.6499,0.47021,1.4506
19.48,0.01075,0.5498,0.64014,0.4751,1.436
19.488,0.010017,0.55518,0.64014,0.47021,1.4203
19.496,0.0083069,0.55518,0.62988,0.47021,1.4037
19.504,0.0065966,0.55518,0.62012,0.46484,1.3851
19.512,0.0039091,0.56982,0.60986,0.46484,1.3666
19.52,0.0014659,0.58496,0.62012,0.44482,1.35
19.528,0.00048864,0.6001,0.62988,0.43994,1.3353
19.536,-0.00048864,0.60498,0.62988,0.43994,1.3216
19.544,-0.00048864,0.6001,0.62988,0.43994,1.3079
19.552,-0.00048864,0.61475,0.62988,0.43018,1.2981
19.56,-0.00048864,0.64014,0.58496,0.41016,1.2903
19.568,-0.00048864,0.6499,0.52979,0.39014,1.2805
19.576,-0.00048864,0.66504,0.50977,0.38525,1.2688
19.584,-0.00048864,0.66992,0.48486,0.39502,1.2571
19.592,-0.00048864,0.6001,0.46484,0.43018,1.2463
19.6,-0.00048864,0.50977,0.46484,0.49512,1.2395
19.608,-0.00048864,0.44482,0.45508,0.54492,1.2424
19.616,-0.00048864,0.41504,0.44482,0.56006,1.2639
19.624,-0.00048864,0.3999,0.43506,0.56982,1.3128
19.632,-0.00048864,0.375,0.4248,0.58496,1.393
19.64,0.0014659,0.37012,0.43018,0.58496,1.5054
19.648,0.0034205,0.38525,0.43994,0.58496,1.6452
19.656,0.0092841,0.31006,0.49023,0.62012,1.781
19.664,0.015392,0.29004,0.64014,0.61475,1.911
19.672,0.023455,0.41992,0.7002,0.51514,2.0518
19.68,0.031762,0.64014,0.47998,0.36523,2.1848
19.688,0.042267,0.92969,-0.0097656,0.26514,2.2952
19.696,0.053017,1.1001,-0.49951,0.22021,2.3724
19.704,0.065233,0.58496,-0.49951,0.59521,2.4145
19.712,0.077694,0.39014,-0.49951,0.66992,2.4223
19.72,0.08991,0.36523,-0.46484,0.62012,2.4018
19.728,0.10213,0.39014,0.055176,0.59521,2.3548
19.736,0.11434,0.35986,0.35986,0.6001,2.2893
19.744,0.12656,0.34521,0.49023,0.59521,2.2131
19.752,0.14073,0.3501,0.53516,0.58984,2.1398
19.76,0.1549,0.35986,0.54492,0.58496,2.0714
19.768,0.17054,0.36523,0.56006,0.58008,2.001
19.776,0.18617,0.37012,0.56494,0.58008,1.9345
19.784,0.20181,0.38525,0.55518,0.56494,1.8778
19.792,0.21744,0.39502,0.56494,0.56006,1.8309
19.8,0.23308,0.3999,0.56494,0.55518,1.7889
19.808,0.24896,0.41016,0.56006,0.54492,1.7507
19.816,0.26655,0.4248,0.55518,0.53516,1.7136
19.824,0.28414,0.43994,0.54492,0.52002,1.6784
19.832,0.30344,0.4502,0.53516,0.51514,1.6442
19.84,0.32275,0.45996,0.53516,0.50488,1.6061
19.848,0.34351,0.4751,0.53516,0.5,1.565
19.856,0.36452,0.48486,0.52979,0.48486,1.5288
19.864,0.38627,0.48486,0.52979,0.4751,1.4966
19.872,0.40801,0.49512,0.52002,0.46484,1.4633
19.88,0.42731,0.50488,0.50488,0.45996,1.4311
19.888,0.44662,0.50977,0.50488,0.4502,1.4008
19.896,0.46396,0.50977,0.50977,0.45996,1.3734
19.904,0.48131,0.50488,0.51514,0.46484,1.347
19.912,0.49866,0.49512,0.51514,0.4751,1.3245
19.92,0.51625,0.5,0.51514,0.46484,1.3079
19.928,0.53359,0.49512,0.52002,0.4751,1.2981
19.936,0.55094,0.49023,0.53516,0.48486,1.2933
19.944,0.5656,0.49023,0.55518,0.47998,1.2913
19.952,0.58026,0.50488,0.58008,0.47998,1.2913
19.96,0.59247,0.50977,0.59521,0.47021,1.2933
19.968,0.60469,0.5,0.60498,0.48486,1.2923
19.976,0.61544,0.5,0.61475,0.49023,1.2874
19.984,0.62619,0.50488,0.61475,0.49023,1.2786
19.992,0.63572,0.52002,0.61475,0.49023,1.2669
20,0.64549,0.5249,0.62012,0.49023,1.2512
20.008,0.65331,0.54004,0.61475,0.4751,1.2336
20.016,0.66137,0.5498,0.61475,0.4751,1.216
20.024,0.66773,0.55518,0.60986,0.4751,1.1975
20.032,0.67408,0.5498,0.6001,0.47998,1.1789
20.04,0.67872,0.56006,0.58496,0.46484,1.1603
20.048,0.68361,0.56494,0.58496,0.47021,1.1417
20.056,0.68703,0.56982,0.56982,0.46484,1.1271
20.064,0.69045,0.58496,0.5752,0.45508,1.1153
20.072,0.69338,0.59521,0.59521,0.4502,1.1036
20.08,0.69631,0.60498,0.60498,0.4502,1.0938
20.088,0.699,0.6001,0.6001,0.4502,1.088
20.096,0.70169,0.59521,0.60498,0.44482,1.085
20.104,0.70437,0.62988,0.58008,0.41992,1.0831
20.112,0.70731,0.63477,0.52002,0.40479,1.0811
20.12,0.71073,0.64014,0.5,0.41016,1.0762
20.128,0.71439,0.6499,0.48486,0.3999,1.0714
20.136,0.72001,0.60986,0.46484,0.43018,1.0635
20.144,0.72563,0.52979,0.45996,0.49023,1.0567
20.152,0.7332,0.44482,0.44482,0.54004,1.0567
20.16,0.74078,0.41016,0.43018,0.56006,1.0645
20.168,0.74957,0.37012,0.41992,0.58496,1.086
20.176,0.75861,0.375,0.41992,0.58496,1.131
20.184,0.76839,0.37012,0.41504,0.58984,1.2072
20.192,0.7784,0.37012,0.41504,0.58496,1.3167
20.2,0.78817,0.3501,0.43506,0.59521,1.4575
20.208,0.79795,0.2749,0.5752,0.62988,1.6207
20.216,0.80748,0.39014,0.71484,0.54004,1.7937
20.224,0.81725,0.58984,0.62012,0.39502,1.9629
20.232,0.82775,0.8501,0.23486,0.28027,2.1153
20.24,0.83826,1.125,-0.30469,0.24023,2.2385
20.248,0.84925,0.7002,-0.49951,0.52979,2.3255
20.256,0.86025,0.37012,-0.49951,0.68506,2.3734
20.264,0.87027,0.29492,-0.49951,0.7002,2.391
20.272,0.88028,0.34521,-0.12988,0.625,2.3822
20.28,0.88957,0.34521,0.26025,0.60498,2.348
20.288,0.89885,0.33984,0.4502,0.60498,2.2952
20.296,0.90887,0.33008,0.5249,0.6001,2.2307
20.304,0.91889,0.33984,0.56006,0.59521,2.1613
20.312,0.92988,0.34521,0.56982,0.58984,2.0938
20.32,0.94087,0.35986,0.58008,0.58008,2.0313
20.328,0.95333,0.37012,0.58496,0.5752,1.9736
20.336,0.96604,0.38525,0.5752,0.56006,1.9208
20.344,0.97972,0.39014,0.58496,0.55518,1.8749
20.352,0.9934,0.40479,0.58496,0.54492,1.8377
20.36,0.99658,0.41016,0.58496,0.54004,1.8045
20.368,1,0.4248,0.58496,0.52979,1.7713
20.376,1,0.43506,0.58496,0.52979,1.737
20.384,1,0.43994,0.58008,0.52002,1.7009
20.392,1,0.4502,0.56982,0.51514,1.6676
20.4,1,0.45996,0.56494,0.5,1.6383
20.408,1,0.47021,0.56006,0.49023,1.6129
20.416,1,0.47998,0.5498,0.48486,1.5904
20.424,1,0.47998,0.54004,0.48486,1.5699
20.432,1,0.49023,0.53516,0.47021,1.5503
20.44,1,0.49023,0.52979,0.46484,1.5347
20.448,1,0.49512,0.5249,0.46484,1.523
20.456,1,0.5,0.5249,0.47021,1.5161
20.464,1,0.50488,0.52979,0.47021,1.5112
20.472,1,0.49512,0.53516,0.47998,1.5054
20.48,1,0.50977,0.56006,0.46484,1.4995
20.488,1,0.50977,0.56982,0.47021,1.4927
20.496,1,0.50977,0.59521,0.47998,1.4829
20.504,1,0.50977,0.62012,0.4751,1.4702
20.512,1,0.5249,0.62988,0.47998,1.4575
20.52,1,0.53516,0.64502,0.4751,1.4457
20.528,1,0.53516,0.6499,0.47998,1.4321
20.536,1,0.53516,0.65479,0.49023,1.4135
20.544,1,0.54492,0.65479,0.47998,1.3939
20.552,1,0.55518,0.6499,0.47021,1.3773
20.56,1,0.56982,0.64502,0.46484,1.3627
20.568,1,0.58008,0.64014,0.45996,1.346
20.576,1,0.59521,0.64502,0.44482,1.3265
20.584,1,0.60498,0.62988,0.43994,1.306
20.592,1,0.61475,0.61475,0.43506,1.2864
20.6,1,0.61475,0.60498,0.43506,1.2669
20.608,1,0.625,0.60986,0.43018,1.2493
20.616,1,0.63477,0.62012,0.41992,1.2326
20.624,1,0.64502,0.62988,0.41992,1.2151
20.632,1,0.6499,0.62988,0.41992,1.1975
20.64,1,0.62988,0.62988,0.4248,1.1789
20.648,1,0.64502,0.63477,0.43018,1.1603
20.656,1,0.66504,0.5752,0.39014,1.1466
20.664,1,0.65479,0.54004,0.39502,1.132
20.672,1,0.66504,0.52979,0.39502,1.1105
20.68,1,0.64502,0.50977,0.41504,1.088
20.688,1,0.58008,0.49512,0.45508,1.0674
20.696,1,0.5,0.49023,0.50488,1.0508
20.704,1,0.45508,0.4751,0.53516,1.043
20.712,1,0.4248,0.45996,0.55518,1.0499
20.72,1,0.39014,0.45508,0.5752,1.0802
20.728,1,0.375,0.44482,0.58496,1.1408
20.736,1,0.37988,0.4502,0.58496,1.2366
20.744,1,0.35986,0.44482,0.58984,1.3666
20.752,1,0.29004,0.56982,0.62012,1.4966
20.76,1,0.36523,0.72998,0.56494,1.6295
20.768,1,0.56006,0.74512,0.41992,1.782
20.776,1,0.83496,0.33008,0.27002,1.9326
20.784,1,1.1196,-0.21484,0.2002,2.0635
20.792,1,1.1348,-0.49951,0.41504,2.1672
20.8,1,0.38525,-0.49951,0.68018,2.2375
20.808,1,0.30518,-0.49951,0.7002,2.2747
20.816,1,0.36523,-0.23975,0.60498,2.2786
20.824,1,0.37988,0.20508,0.58496,2.2561
20.832,1,0.375,0.43994,0.58008,2.2131
20.84,1,0.38525,0.54492,0.56982,2.1554
20.848,1,0.39014,0.58008,0.56494,2.0909
20.856,1,0.38525,0.59521,0.56982,2.0313
20.864,1,0.39014,0.60498,0.56006,1.9765
20.872,1,0.39502,0.60986,0.56006,1.9208
20.88,1,0.40479,0.60986,0.56006,1.871
20.888,1,0.40479,0.60986,0.56006,1.828
20.896,1,0.41504,0.60986,0.54004,1.7869
20.904,1,0.4248,0.60986,0.53516,1.7507
20.912,1,0.41992,0.61475,0.54492,1.7204
20.92,1,0.43994,0.62012,0.53516,1.6911
20.928,1,0.4502,0.60986,0.51514,1.6637
20.936,1,0.45996,0.60498,0.50977,1.6383
20.944,1,0.47021,0.60498,0.5,1.6129
20.952,1,0.47998,0.6001,0.49023,1.5934
20.96,1,0.49512,0.58984,0.47021,1.5777
20.968,1,0.51514,0.58496,0.45996,1.5601
20.976,1,0.50977,0.5752,0.46484,1.5425
20.984,1,0.52002,0.56982,0.45996,1.5259
20.992,1,0.53516,0.56006,0.44482,1.5122
21,1,0.54004,0.56006,0.43994,1.5054
21.008,1,0.52979,0.56982,0.45508,1.5054
21.016,1,0.54004,0.5752,0.4502,1.5083
21.024,1,0.54492,0.58496,0.4502,1.5132
21.032,1,0.54004,0.6001,0.45508,1.5161
21.04,1,0.5498,0.625,0.44482,1.5142
21.048,1,0.55518,0.64014,0.4502,1.5112
21.056,1,0.56982,0.65479,0.44482,1.5064
21.064,1,0.56494,0.66504,0.45996,1.4966
21.072,1,0.56006,0.66016,0.46484,1.4858
21.08,1,0.55518,0.66504,0.47021,1.477
21.088,1,0.55518,0.66992,0.47998,1.4673
21.096,1,0.56006,0.66504,0.4751,1.4594
21.104,1,0.56494,0.66992,0.4751,1.4555
21.112,1,0.5752,0.66504,0.47021,1.4536
21.12,1,0.58008,0.66992,0.47021,1.4526
21.128,1,0.5752,0.66504,0.46484,1.4526
21.136,1,0.58008,0.65479,0.46484,1.4526
21.144,1,0.59521,0.65479,0.4502,1.4526
21.152,1,0.6001,0.6499,0.44482,1.4526
21.16,1,0.62012,0.66504,0.43994,1.4526
21.168,1,0.625,0.66992,0.4502,1.4526
21.176,0.98974,0.62988,0.6748,0.43994,1.4536
21.184,0.97972,0.625,0.6748,0.43994,1.4545
21.192,0.96164,0.62988,0.66504,0.4248,1.4545
21.2,0.94381,0.66504,0.62012,0.39502,1.4545
21.208,0.92426,0.6748,0.56494,0.39502,1.4536
21.216,0.90496,0.68506,0.5498,0.39014,1.4526
21.224,0.88712,0.66992,0.52979,0.39014,1.4526
21.232,0.86929,0.61475,0.50977,0.43994,1.4536
21.24,0.85268,0.54004,0.50488,0.48486,1.4575
21.248,0.83606,0.47998,0.49023,0.52979,1.4643
21.256,0.81871,0.45996,0.4751,0.54004,1.48
21.264,0.80137,0.43506,0.46484,0.56006,1.5161
21.272,0.78353,0.4248,0.45508,0.56494,1.5816
21.28,0.7657,0.41992,0.45508,0.56494,1.6794
21.288,0.74811,0.41992,0.45996,0.56006,1.8104
21.296,0.73076,0.35498,0.53516,0.59521,1.9687
21.304,0.7139,0.31982,0.7002,0.60986,2.1437
21.312,0.69729,0.48486,0.75977,0.47998,2.3206
21.32,0.68263,0.75488,0.4502,0.30518,2.4839
21.328,0.66821,1.0498,-0.099609,0.2002,2.6227
21.336,0.65551,1.1899,-0.49951,0.17529,2.7273
21.344,0.64305,0.56494,-0.49951,0.58496,2.7977
21.352,0.63059,0.375,-0.49951,0.66992,2.8309
21.36,0.61813,0.3501,-0.39502,0.61475,2.8338
21.368,0.60567,0.38525,0.125,0.59521,2.8172
21.376,0.59321,0.37012,0.41504,0.58984,2.7859
21.384,0.58221,0.375,0.54492,0.58496,2.7419
21.392,0.57146,0.37012,0.59521,0.58008,2.6931
21.4,0.56145,0.37988,0.60986,0.5752,2.6471
21.408,0.55167,0.37012,0.625,0.58008,2.5992
21.416,0.54117,0.39014,0.62988,0.56494,2.5543
21.424,0.53091,0.39502,0.62988,0.56006,2.521
21.432,0.51991,0.40479,0.63477,0.56006,2.4946
21.44,0.50916,0.41504,0.63477,0.55518,2.4731
21.448,0.49768,0.4248,0.63477,0.5498,2.4526
21.456,0.48644,0.43018,0.63477,0.53516,2.4321
21.464,0.47471,0.4502,0.63477,0.52002,2.4135
21.472,0.46323,0.45996,0.62988,0.51514,2.3949
21.48,0.45248,0.45996,0.62988,0.51514,2.3734
21.488,0.44173,0.48486,0.625,0.49512,2.349
21.496,0.43122,0.49512,0.62012,0.48486,2.3226
21.504,0.42096,0.50488,0.61475,0.4751,2.2952
21.512,0.40972,0.52002,0.59521,0.45996,2.2698
21.52,0.39849,0.54492,0.5752,0.43994,2.2454
21.528,0.38651,0.55518,0.56494,0.4248,2.2248
21.536,0.37479,0.55518,0.56006,0.43506,2.2092
21.544,0.36379,0.56494,0.56006,0.41992,2.1955
21.552,0.3528,0.56006,0.56006,0.4248,2.1838
21.56,0.34229,0.56494,0.56006,0.43506,2.174
21.568,0.33203,0.56006,0.56982,0.43994,2.1642
21.576,0.32128,0.56494,0.58496,0.43994,2.1554
21.584,0.31077,0.56006,0.6001,0.43506,2.1466
21.592,0.29954,0.58008,0.62012,0.43018,2.1369
21.6,0.2883,0.56982,0.64014,0.43994,2.1241
21.608,0.27608,0.56494,0.65479,0.44482,2.1065
21.616,0.26387,0.56006,0.65479,0.45508,2.085
21.624,0.25092,0.5498,0.65479,0.46484,2.0606
21.632,0.23821,0.54004,0.66504,0.48486,2.0313
21.64,0.22624,0.56006,0.66504,0.4751,1.999
21.648,0.21451,0.56494,0.66016,0.47021,1.9707
21.656,0.20303,0.55518,0.66016,0.4751,1.9443
21.664,0.19179,0.5498,0.66992,0.46484,1.9169
21.672,0.17884,0.5752,0.65479,0.46484,1.8905
21.68,0.16614,0.58008,0.65479,0.45996,1.8641
21.688,0.15221,0.58984,0.6499,0.4502,1.8377
21.696,0.13853,0.58496,0.64502,0.44482,1.8133
21.704,0.12607,0.60986,0.65479,0.43994,1.7889
21.712,0.11385,0.64502,0.66504,0.41992,1.7644
21.72,0.10261,0.64502,0.66992,0.41992,1.7419
21.728,0.091376,0.625,0.6748,0.43506,1.7195
21.736,0.079404,0.64014,0.66992,0.41992,1.697
21.744,0.067677,0.66504,0.64014,0.39502,1.6735
21.752,0.055216,0.68018,0.56982,0.38525,1.652
21.76,0.042756,0.68018,0.5498,0.39014,1.6315
21.768,0.030784,0.70508,0.53516,0.37012,1.607
21.776,0.019057,0.6499,0.51514,0.3999,1.5826
