Time [s], RESP, PLETH, II, V, AVR, CVP
0,0.040777,0.3607,0.47059,0.63529,0.625,13.494
0.008,0.040777,0.35582,0.47451,0.63529,0.61914,13.69
0.016,0.042718,0.35191,0.46471,0.65098,0.62891,13.807
0.024,0.042718,0.348,0.47059,0.6549,0.625,13.963
0.032,0.04466,0.34506,0.48039,0.63529,0.61914,14.081
0.04,0.04466,0.34311,0.48039,0.64118,0.61523,14.276
0.048,0.04466,0.34115,0.48431,0.6451,0.61914,14.589
0.056,0.046602,0.34018,0.48431,0.6451,0.61523,14.902
0.064,0.046602,0.34018,0.48431,0.64118,0.61523,15.059
0.072,0.046602,0.3392,0.48039,0.63529,0.60938,15.137
0.08,0.046602,0.33822,0.48039,0.64118,0.61523,15.137
0.088,0.046602,0.33724,0.47451,0.63529,0.60938,15.02
0.096,0.046602,0.33529,0.47451,0.64118,0.61523,14.902
0.104,0.046602,0.33431,0.48431,0.6451,0.61523,14.746
0.112,0.046602,0.33236,0.48039,0.63529,0.61523,14.589
0.12,0.046602,0.33138,0.48431,0.63529,0.61523,14.394
0.128,0.046602,0.32942,0.48039,0.63529,0.60547,14.12
0.136,0.04466,0.32845,0.48039,0.63529,0.60547,13.963
0.144,0.04466,0.32942,0.47059,0.63529,0.61523,13.768
0.152,0.042718,0.33138,0.48039,0.62941,0.60547,13.377
0.16,0.040777,0.33627,0.47451,0.62941,0.60938,12.947
0.168,0.040777,0.34409,0.47059,0.63529,0.61523,12.438
0.176,0.038835,0.35679,0.47059,0.63529,0.60938,12.008
0.184,0.036893,0.37537,0.46078,0.63529,0.61914,11.656
0.192,0.034951,0.39883,0.47451,0.62941,0.60938,11.382
0.2,0.034951,0.4262,0.50588,0.6451,0.5957,11.382
0.208,0.03301,0.45846,0.51569,0.65098,0.58398,11.578
0.216,0.03301,0.49267,0.51961,0.6549,0.58984,11.812
0.224,0.031068,0.52786,0.53529,0.63529,0.56445,11.969
0.232,0.029126,0.56305,0.5549,0.61569,0.54492,12.008
0.24,0.027184,0.59726,0.5549,0.58431,0.53516,12.008
0.248,0.027184,0.62463,0.55098,0.57451,0.53516,11.969
0.256,0.025243,0.64712,0.52941,0.57059,0.54492,11.969
0.264,0.023301,0.67058,0.5,0.59608,0.58008,12.086
0.272,0.023301,0.6911,0.47059,0.61569,0.60938,12.203
0.28,0.021359,0.70968,0.4451,0.6098,0.62891,12.438
0.288,0.021359,0.72434,0.43922,0.61961,0.64062,12.634
0.296,0.021359,0.73607,0.42941,0.61961,0.64062,12.829
0.304,0.019417,0.74389,0.40392,0.66078,0.66406,13.025
0.312,0.019417,0.74878,0.3902,0.70588,0.68555,13.064
0.32,0.019417,0.75073,0.53529,0.73137,0.55469,13.181
0.328,0.019417,0.74976,0.77059,0.67647,0.25586,13.338
0.336,0.017476,0.74682,0.98627,0.40392,-0.089844,13.69
0.344,0.017476,0.74194,0.89608,0.22353,-0.11914,14.276
0.352,0.017476,0.73412,0.76078,0.13333,0.28516,14.824
0.36,0.017476,0.72532,0.6902,0.068627,0.37109,15.372
0.368,0.015534,0.71554,0.58431,0.30392,0.50977,15.958
0.376,0.015534,0.70283,0.49412,0.51961,0.59961,16.389
0.384,0.015534,0.68915,0.43529,0.61569,0.6543,16.584
0.392,0.015534,0.67351,0.41569,0.63529,0.66406,16.31
0.4,0.015534,0.65689,0.41569,0.6549,0.67969,15.684
0.408,0.015534,0.63832,0.40392,0.66471,0.68555,14.941
0.416,0.015534,0.62072,0.4,0.67647,0.68555,14.198
0.424,0.015534,0.60215,0.4,0.66471,0.68555,13.572
0.432,0.015534,0.58456,0.40392,0.68039,0.67969,13.064
0.44,0.015534,0.56794,0.4,0.67647,0.67578,12.751
0.448,0.015534,0.55327,0.41569,0.68039,0.67578,12.751
0.456,0.015534,0.53959,0.41569,0.67059,0.66406,13.142
0.464,0.015534,0.52688,0.41961,0.68039,0.66406,13.768
0.472,0.015534,0.51515,0.41569,0.68039,0.66406,14.12
0.48,0.015534,0.5044,0.42549,0.68039,0.65039,14.394
0.488,0.015534,0.49462,0.43529,0.69608,0.65039,14.433
0.496,0.017476,0.48583,0.43922,0.68627,0.64062,14.276
0.504,0.017476,0.47898,0.4451,0.6902,0.62891,13.69
0.512,0.017476,0.47214,0.46078,0.68627,0.61523,12.829
0.52,0.019417,0.4653,0.47451,0.6902,0.60547,11.969
0.528,0.019417,0.45943,0.48039,0.69608,0.5957,11.382
0.536,0.019417,0.45455,0.48431,0.7,0.58008,10.874
0.544,0.019417,0.44966,0.5,0.68627,0.56445,10.404
0.552,0.019417,0.44575,0.5098,0.68627,0.55078,10.013
0.56,0.019417,0.44184,0.5098,0.67647,0.54492,10.091
0.568,0.019417,0.43793,0.52549,0.67059,0.53516,10.443
0.576,0.019417,0.43402,0.51961,0.67059,0.5293,11.03
0.584,0.019417,0.42913,0.51961,0.6549,0.53516,11.578
0.592,0.019417,0.42522,0.51961,0.64118,0.5293,12.125
0.6,0.019417,0.42033,0.51961,0.63529,0.53516,12.516
0.608,0.019417,0.41642,0.5098,0.62549,0.54492,12.751
0.616,0.019417,0.41251,0.50588,0.63529,0.55078,12.907
0.624,0.019417,0.40762,0.48431,0.63529,0.57031,12.947
0.632,0.019417,0.40274,0.47059,0.63529,0.58398,12.947
0.64,0.019417,0.39785,0.46471,0.63529,0.5957,12.712
0.648,0.019417,0.39394,0.4549,0.64118,0.60938,12.321
0.656,0.019417,0.39003,0.43922,0.65098,0.61914,12.125
0.664,0.019417,0.38514,0.43922,0.64118,0.625,12.203
0.672,0.019417,0.38123,0.43922,0.64118,0.62891,12.595
0.68,0.019417,0.37634,0.43922,0.65098,0.63477,13.142
0.688,0.019417,0.37146,0.43529,0.6451,0.64062,13.69
0.696,0.019417,0.36657,0.43922,0.64118,0.63477,14.003
0.704,0.019417,0.36266,0.43922,0.63529,0.625,14.12
0.712,0.019417,0.35875,0.44902,0.6451,0.62891,14.12
0.72,0.019417,0.35582,0.44902,0.6451,0.62891,14.12
0.728,0.017476,0.35288,0.44902,0.63529,0.61914,14.12
0.736,0.017476,0.34995,0.46078,0.64118,0.61523,14.12
0.744,0.015534,0.34702,0.46078,0.6451,0.625,14.12
0.752,0.013592,0.34506,0.46471,0.64118,0.61914,14.198
0.76,0.01165,0.34311,0.46078,0.64118,0.61914,14.276
0.768,0.0097087,0.34115,0.46078,0.6451,0.61523,14.315
0.776,0.007767,0.3392,0.46078,0.63529,0.61523,14.433
0.784,0.007767,0.33724,0.46471,0.63529,0.61523,14.511
0.792,0.0058252,0.33431,0.46078,0.63529,0.625,14.433
0.8,0.0038835,0.33236,0.46078,0.63529,0.61523,14.276
0.808,0,0.32942,0.44902,0.62941,0.61523,14.003
0.816,-0.0019417,0.32747,0.4549,0.63529,0.61914,13.69
0.824,-0.0038835,0.32551,0.46078,0.62941,0.61523,13.494
0.832,-0.0058252,0.32551,0.4549,0.63529,0.61523,13.338
0.84,-0.007767,0.32747,0.46078,0.63529,0.61523,13.259
0.848,-0.007767,0.33138,0.46078,0.63529,0.61523,13.142
0.856,-0.0097087,0.3392,0.46078,0.63529,0.61523,12.907
0.864,-0.01165,0.35191,0.44902,0.64118,0.625,12.595
0.872,-0.013592,0.37048,0.46078,0.63529,0.61523,12.203
0.88,-0.013592,0.39394,0.48431,0.6451,0.59961,11.812
0.888,-0.015534,0.42131,0.5098,0.65098,0.57422,11.578
0.896,-0.017476,0.45259,0.52549,0.6549,0.57031,11.499
0.904,-0.019417,0.4868,0.51961,0.66078,0.57422,11.656
0.912,-0.021359,0.52199,0.55098,0.63529,0.54492,11.969
0.92,-0.023301,0.55718,0.56078,0.60588,0.52539,12.203
0.928,-0.025243,0.5914,0.5549,0.5902,0.53516,12.399
0.936,-0.027184,0.6217,0.5451,0.58039,0.5293,12.438
0.944,-0.029126,0.64614,0.52549,0.58431,0.55469,12.399
0.952,-0.031068,0.66569,0.50588,0.6,0.58398,12.282
0.96,-0.03301,0.68426,0.46471,0.61569,0.61523,12.125
0.968,-0.034951,0.6999,0.44902,0.62549,0.62891,12.125
0.976,-0.036893,0.71261,0.43922,0.61569,0.625,12.203
0.984,-0.040777,0.72336,0.43529,0.62941,0.63477,12.321
0.992,-0.042718,0.72923,0.4,0.69608,0.67969,12.438
1,-0.04466,0.73216,0.47059,0.70588,0.625,12.712
1.008,-0.046602,0.73216,0.61961,0.73529,0.45508,12.907
1.016,-0.048544,0.72923,0.88039,0.61569,0.099609,13.142
1.024,-0.052427,0.72336,0.96667,0.30392,-0.11523,13.455
1.032,-0.054369,0.71554,0.81176,0.2098,0.16992,13.885
1.04,-0.056311,0.70577,0.76078,0.062745,0.29492,14.511
1.048,-0.060194,0.69501,0.66078,0.16863,0.41992,15.215
1.056,-0.062136,0.68231,0.56471,0.39412,0.5293,15.958
1.064,-0.064078,0.66764,0.46471,0.58431,0.625,16.467
1.072,-0.066019,0.652,0.42941,0.62941,0.66016,16.623
1.08,-0.067961,0.63441,0.41569,0.65098,0.66992,16.389
1.088,-0.067961,0.61584,0.41569,0.66078,0.66992,15.684
1.096,-0.069903,0.59726,0.40392,0.67059,0.67969,14.628
1.104,-0.069903,0.57869,0.4,0.68039,0.67578,13.455
1.112,-0.069903,0.56012,0.40392,0.67647,0.67969,12.595
1.12,-0.069903,0.54154,0.4098,0.68039,0.67578,12.086
1.128,-0.069903,0.52493,0.41569,0.68627,0.66406,12.125
1.136,-0.069903,0.50831,0.41961,0.68039,0.66406,12.595
1.144,-0.069903,0.49462,0.43529,0.67647,0.6543,13.142
1.152,-0.069903,0.48289,0.42549,0.68627,0.66016,13.69
1.16,-0.067961,0.47019,0.41569,0.6902,0.66406,14.003
1.168,-0.067961,0.45943,0.4451,0.68039,0.64062,14.081
1.176,-0.067961,0.44966,0.43922,0.69608,0.64062,13.807
1.184,-0.067961,0.44184,0.46078,0.68627,0.625,13.142
1.192,-0.066019,0.43402,0.46471,0.6902,0.61523,12.321
1.2,-0.066019,0.42717,0.47451,0.68627,0.60938,11.499
1.208,-0.064078,0.42131,0.4902,0.69608,0.5957,10.874
1.216,-0.064078,0.41544,0.49412,0.69608,0.57422,10.326
1.224,-0.062136,0.40958,0.5098,0.6902,0.56445,9.9348
1.232,-0.062136,0.40371,0.5098,0.69608,0.56055,9.7783
1.24,-0.060194,0.3998,0.5098,0.68627,0.54492,9.9348
1.248,-0.060194,0.39589,0.5098,0.68039,0.53906,10.326
1.256,-0.058252,0.39198,0.51961,0.68627,0.53906,10.756
1.264,-0.058252,0.3871,0.51569,0.67647,0.53906,10.952
1.272,-0.058252,0.38221,0.51961,0.65098,0.5293,11.03
1.28,-0.058252,0.37732,0.53529,0.63529,0.51953,11.069
1.288,-0.058252,0.37243,0.52549,0.62549,0.52539,11.147
1.296,-0.058252,0.36852,0.52941,0.62941,0.53906,11.265
1.304,-0.058252,0.36364,0.49412,0.6451,0.57031,11.382
1.312,-0.056311,0.35875,0.47059,0.64118,0.58008,11.46
1.32,-0.056311,0.35484,0.46078,0.6549,0.5957,11.499
1.328,-0.056311,0.34995,0.46471,0.64118,0.60547,11.578
1.336,-0.056311,0.34506,0.48039,0.63529,0.59961,11.499
1.344,-0.054369,0.34115,0.4549,0.6451,0.61914,11.46
1.352,-0.054369,0.33822,0.46078,0.6451,0.625,11.343
1.36,-0.054369,0.33333,0.4451,0.6451,0.625,11.147
1.368,-0.054369,0.32845,0.46078,0.65098,0.62891,11.069
1.376,-0.052427,0.32258,0.46471,0.64118,0.61523,11.147
1.384,-0.052427,0.31769,0.44902,0.65098,0.62891,11.265
1.392,-0.052427,0.31281,0.4451,0.6451,0.63477,11.343
1.4,-0.050485,0.30792,0.47059,0.6549,0.61523,11.343
1.408,-0.050485,0.30303,0.44902,0.65098,0.62891,11.265
1.416,-0.050485,0.29912,0.46078,0.6549,0.625,11.186
1.424,-0.048544,0.29619,0.47059,0.6549,0.625,11.147
1.432,-0.048544,0.29326,0.4902,0.6451,0.61523,11.069
1.44,-0.048544,0.29228,0.4902,0.63529,0.60547,11.03
1.448,-0.048544,0.2913,0.46471,0.6549,0.625,10.952
1.456,-0.048544,0.28935,0.4451,0.6451,0.62891,10.952
1.464,-0.048544,0.28739,0.47059,0.63529,0.60938,11.03
1.472,-0.048544,0.28641,0.46471,0.64118,0.61523,10.952
1.48,-0.048544,0.28446,0.46078,0.62941,0.61523,10.639
1.488,-0.048544,0.2825,0.44902,0.6451,0.61914,10.209
1.496,-0.046602,0.28055,0.46078,0.63529,0.61523,9.7001
1.504,-0.046602,0.27957,0.5,0.62941,0.5957,9.2699
1.512,-0.046602,0.27957,0.48431,0.62941,0.60547,8.7614
1.52,-0.046602,0.28055,0.4902,0.62549,0.59961,8.2529
1.528,-0.04466,0.28446,0.47451,0.63529,0.5957,7.6271
1.536,-0.04466,0.2913,0.4549,0.6451,0.61914,7.0013
1.544,-0.04466,0.3001,0.48431,0.61961,0.60547,6.3755
1.552,-0.04466,0.31281,0.49412,0.64118,0.60547,5.7497
1.56,-0.042718,0.33138,0.47451,0.6549,0.60547,5.2412
1.568,-0.042718,0.35386,0.51569,0.6451,0.57031,4.8892
1.576,-0.042718,0.38221,0.5098,0.66078,0.58008,4.6545
1.584,-0.040777,0.41251,0.5451,0.6451,0.56445,4.498
1.592,-0.040777,0.44575,0.6,0.62941,0.52539,4.4589
1.6,-0.038835,0.47996,0.60588,0.63529,0.53906,4.3416
1.608,-0.036893,0.5132,0.55098,0.6098,0.51953,4.2634
1.616,-0.036893,0.54545,0.58039,0.58039,0.5293,4.1851
1.624,-0.034951,0.57576,0.58431,0.58431,0.53516,4.0678
1.632,-0.03301,0.60313,0.5098,0.6,0.57031,4.0287
1.64,-0.03301,0.62366,0.52549,0.60588,0.58398,3.9505
1.648,-0.031068,0.6393,0.47451,0.61569,0.59961,3.9505
1.656,-0.031068,0.65396,0.47059,0.60588,0.60938,3.8722
1.664,-0.029126,0.66667,0.4902,0.6098,0.60547,3.8331
1.672,-0.029126,0.67546,0.50588,0.66471,0.625,3.8331
1.68,-0.027184,0.68035,0.44902,0.70588,0.66406,3.8722
1.688,-0.027184,0.68231,0.53529,0.72549,0.53516,4.0287
1.696,-0.025243,0.68035,0.77647,0.65098,0.24023,4.3416
1.704,-0.023301,0.67546,1.0569,0.37059,-0.13477,4.6545
1.712,-0.021359,0.66862,0.98235,0.22941,-0.1543,5.1239
1.72,-0.019417,0.65982,0.82157,0.2549,0.28516,5.7497
1.728,-0.017476,0.64809,0.71569,0.16471,0.39062,6.4928
1.736,-0.015534,0.63539,0.53529,0.36471,0.57031,7.2751
1.744,-0.013592,0.6217,0.5,0.51961,0.60938,7.94
1.752,-0.0097087,0.60802,0.50588,0.61569,0.65039,8.2138
1.76,-0.007767,0.5914,0.46078,0.6098,0.64062,8.0182
1.768,-0.0038835,0.57283,0.46471,0.63529,0.65039,7.2751
1.776,0,0.55425,0.48039,0.6549,0.66406,6.1799
1.784,0.0058252,0.5347,0.4098,0.67647,0.67578,5.0847
1.792,0.0097087,0.51515,0.39412,0.6549,0.67969,4.0678
1.8,0.013592,0.49756,0.4549,0.6451,0.6543,3.5202
1.808,0.019417,0.48094,0.43529,0.67059,0.66016,3.4029
1.816,0.025243,0.4653,0.43922,0.67647,0.6543,3.7549
1.824,0.031068,0.44575,0.48431,0.66078,0.64453,4.3807
1.832,0.038835,0.42522,0.4451,0.6549,0.62891,5.0847
1.84,0.046602,0.41056,0.43922,0.67647,0.64062,5.6323
1.848,0.054369,0.3998,0.55098,0.65098,0.5957,6.0235
1.856,0.064078,0.39101,0.47059,0.68039,0.62891,6.0235
1.864,0.071845,0.38319,0.43922,0.67059,0.61523,5.515
1.872,0.081553,0.37634,0.53922,0.66078,0.57422,4.6545
1.88,0.091262,0.37048,0.55098,0.67647,0.56445,3.4029
1.888,0.10097,0.36559,0.51569,0.66078,0.57422,2.1512
1.896,0.11068,0.3607,0.5549,0.67647,0.54492,1.1343
1.904,0.12039,0.35679,0.5098,0.66078,0.55469,0.5867
1.912,0.13204,0.35191,0.55098,0.66471,0.51953,0.19557
1.92,0.14369,0.34702,0.60588,0.6549,0.5,0.11734
1.928,0.15534,0.34311,0.60588,0.6549,0.5,0.19557
1.936,0.16699,0.33822,0.58431,0.63529,0.48438,0.31291
1.944,0.17864,0.33529,0.57059,0.64118,0.5,0.39113
1.952,0.19223,0.33138,0.5902,0.62941,0.48438,0.31291
1.96,0.20388,0.32845,0.60588,0.61569,0.47461,0.11734
1.968,0.21553,0.32356,0.56471,0.63529,0.5,0
1.976,0.22913,0.31965,0.59608,0.6098,0.49023,-0.11734
1.984,0.24272,0.31574,0.56078,0.61961,0.5293,-0.039113
1.992,0.25825,0.31085,0.52941,0.63529,0.56055,0.11734
2,0.27379,0.30596,0.5098,0.65098,0.57031,0.50847
2.008,0.28932,0.30108,0.46471,0.65098,0.61523,0.89961
2.016,0.3068,0.29619,0.5,0.62941,0.5957,1.3299
2.024,0.32427,0.2913,0.52549,0.6549,0.60938,1.7601
2.032,0.34175,0.28641,0.44902,0.66078,0.62891,2.1903
2.04,0.35728,0.2825,0.49412,0.63529,0.60938,2.6988
2.048,0.37282,0.27957,0.47059,0.65098,0.62891,3.2464
2.056,0.38641,0.27566,0.4549,0.6549,0.64062,3.7549
2.064,0.4,0.27175,0.4902,0.65098,0.625,4.2634
2.072,0.41359,0.26784,0.47059,0.66078,0.63477,4.6936
2.08,0.42913,0.26393,0.52549,0.62549,0.59961,5.2021
2.088,0.44272,0.26002,0.47451,0.65098,0.625,5.867
2.096,0.45825,0.25611,0.46078,0.6549,0.63477,6.6493
2.104,0.47184,0.2522,0.5451,0.61961,0.58984,7.3924
2.112,0.48544,0.25024,0.5549,0.63529,0.5957,8.0182
2.12,0.49709,0.24731,0.53529,0.64118,0.5957,8.6441
2.128,0.50874,0.24536,0.51961,0.62549,0.59961,9.1916
2.136,0.52039,0.2434,0.5098,0.63529,0.5957,9.6219
2.144,0.53204,0.24242,0.52941,0.61569,0.59961,9.6219
2.152,0.54369,0.24242,0.53529,0.62941,0.5957,9.2699
2.16,0.55534,0.24145,0.4902,0.62549,0.60938,8.6832
2.168,0.56699,0.24047,0.53529,0.6098,0.5957,8.0182
2.176,0.5767,0.23851,0.51961,0.61569,0.59961,7.3142
2.184,0.58835,0.23656,0.50588,0.62549,0.60938,6.6884
2.192,0.6,0.23363,0.51961,0.61569,0.5957,6.0235
2.2,0.60971,0.23167,0.52941,0.62549,0.5957,5.1239
2.208,0.61942,0.23069,0.51961,0.6098,0.58984,4.146
2.216,0.62718,0.23167,0.53529,0.60588,0.5957,3.09
2.224,0.63495,0.23558,0.52549,0.61961,0.5957,2.1512
2.232,0.64272,0.24438,0.52941,0.6098,0.5957,1.4472
2.24,0.65243,0.25513,0.49412,0.62549,0.61523,1.0169
2.248,0.66019,0.27077,0.5,0.63529,0.59961,0.93872
2.256,0.66796,0.29228,0.51569,0.64118,0.58398,1.2516
2.264,0.67379,0.31965,0.53529,0.6451,0.57422,1.7601
2.272,0.68155,0.35093,0.52549,0.6549,0.58008,2.3077
2.28,0.68544,0.38612,0.55098,0.6451,0.56445,2.8944
2.288,0.69126,0.42229,0.56078,0.61961,0.54492,3.4029
2.296,0.69515,0.45943,0.5549,0.59608,0.54492,3.7549
2.304,0.69903,0.49462,0.56471,0.58039,0.54492,4.1851
2.312,0.70291,0.52688,0.53529,0.57451,0.56445,4.6936
2.32,0.7068,0.55523,0.49412,0.6,0.59961,5.3194
2.328,0.7068,0.57967,0.46078,0.61569,0.625,6.1408
2.336,0.70874,0.59922,0.4451,0.62549,0.63477,6.9622
2.344,0.70874,0.6129,0.43529,0.61961,0.64062,7.8227
2.352,0.70874,0.62268,0.42549,0.63529,0.65039,8.6441
2.36,0.7068,0.6305,0.40392,0.68039,0.67578,9.3872
2.368,0.70485,0.63539,0.4451,0.70588,0.68555,10.013
2.376,0.70097,0.63734,0.57451,0.7,0.51562,10.521
2.384,0.69709,0.63636,0.82549,0.61569,0.17969,10.952
2.392,0.69126,0.63148,1.0059,0.33529,-0.10352,11.382
2.4,0.6835,0.62463,0.86667,0.26471,0.099609,12.008
2.408,0.67573,0.61388,0.69608,0.2902,0.375,12.907
2.416,0.66602,0.60117,0.62941,0.16863,0.46094,13.807
2.424,0.65631,0.58651,0.5,0.38039,0.59961,14.707
2.432,0.6466,0.56989,0.43529,0.5549,0.6543,15.332
2.44,0.63495,0.55425,0.4,0.61569,0.67969,15.645
2.448,0.62524,0.53861,0.40392,0.63529,0.67969,15.645
2.456,0.61165,0.52102,0.3902,0.6549,0.68555,15.372
2.464,0.6,0.50244,0.36471,0.66471,0.70508,14.902
2.472,0.58447,0.48289,0.3549,0.67059,0.70898,14.276
2.48,0.57087,0.46432,0.37059,0.66471,0.69922,13.69
2.488,0.55534,0.4477,0.37059,0.68039,0.69922,13.494
2.496,0.53981,0.43206,0.36471,0.67059,0.68945,13.885
2.504,0.52427,0.41838,0.38039,0.66471,0.68555,14.746
2.512,0.50874,0.40567,0.37059,0.67059,0.68945,15.763
2.52,0.4932,0.39492,0.39412,0.66471,0.66406,16.506
2.528,0.47767,0.38612,0.41569,0.6549,0.66016,16.819
2.536,0.46408,0.37928,0.4,0.67059,0.66016,16.584
2.544,0.45049,0.37439,0.39412,0.67647,0.66406,15.763
2.552,0.43495,0.3695,0.4098,0.67647,0.64453,14.315
2.56,0.42136,0.36559,0.42549,0.66471,0.64062,12.634
2.568,0.40777,0.36168,0.44902,0.66471,0.60938,11.03
2.576,0.39223,0.35777,0.4549,0.66471,0.5957,9.8175
2.584,0.38058,0.35386,0.47451,0.67059,0.58398,9.3872
2.592,0.36699,0.34995,0.48039,0.66471,0.57031,9.5046
2.6,0.35728,0.34702,0.5,0.66078,0.55469,10.013
2.608,0.34563,0.34409,0.5098,0.6549,0.54492,10.443
2.616,0.33398,0.34213,0.52549,0.6549,0.5293,10.639
2.624,0.32233,0.3392,0.5098,0.6451,0.5293,10.443
2.632,0.31068,0.33627,0.52549,0.63529,0.5293,10.013
2.64,0.29903,0.33431,0.51569,0.63529,0.52539,9.5828
2.648,0.28738,0.33236,0.51961,0.61961,0.52539,9.2699
2.656,0.27573,0.32942,0.51961,0.61569,0.5293,9.309
2.664,0.26408,0.32649,0.51961,0.61569,0.53516,9.6219
2.672,0.25243,0.3216,0.50588,0.61961,0.55469,10.13
2.68,0.24272,0.31769,0.47451,0.62941,0.58008,10.756
2.688,0.23107,0.31281,0.4549,0.63529,0.59961,11.343
2.696,0.2233,0.30792,0.43922,0.64118,0.61914,11.773
2.704,0.21553,0.30205,0.41961,0.65098,0.64062,11.969
2.712,0.20583,0.29619,0.41569,0.65098,0.64453,12.125
2.72,0.19806,0.29032,0.41569,0.6549,0.65039,12.282
2.728,0.18835,0.28446,0.41569,0.65098,0.6543,12.516
2.736,0.17864,0.27957,0.41569,0.6549,0.66016,12.829
2.744,0.17087,0.27566,0.42549,0.6451,0.64453,13.259
2.752,0.16311,0.27077,0.41569,0.65098,0.64062,13.69
2.76,0.15534,0.26491,0.41569,0.6549,0.66016,14.081
2.768,0.14757,0.25904,0.41569,0.6549,0.6543,14.394
2.776,0.13981,0.25318,0.41961,0.65098,0.64453,14.589
2.784,0.13204,0.24829,0.43922,0.6451,0.64062,14.707
2.792,0.12233,0.24242,0.43529,0.65098,0.64062,14.746
2.8,0.11456,0.23754,0.4451,0.64118,0.63477,14.746
2.808,0.10485,0.23265,0.44902,0.6451,0.62891,14.746
2.816,0.095146,0.22776,0.4451,0.65098,0.63477,14.824
2.824,0.085437,0.2219,0.4451,0.64118,0.62891,14.824
2.832,0.075728,0.21603,0.4451,0.6451,0.63477,14.902
2.84,0.066019,0.21114,0.4451,0.63529,0.62891,14.824
2.848,0.058252,0.20723,0.43922,0.63529,0.64062,14.628
2.856,0.050485,0.20137,0.42941,0.63529,0.62891,14.315
2.864,0.042718,0.19453,0.43922,0.63529,0.63477,13.963
2.872,0.034951,0.18768,0.43922,0.6451,0.64062,13.651
2.88,0.027184,0.18182,0.43922,0.64118,0.62891,13.259
2.888,0.021359,0.17693,0.4451,0.64118,0.63477,13.064
2.896,0.013592,0.174,0.43922,0.63529,0.62891,12.947
2.904,0.0097087,0.17498,0.43922,0.62941,0.625,13.025
2.912,0.0038835,0.17986,0.43922,0.63529,0.62891,13.025
2.92,0,0.18964,0.43529,0.64118,0.63477,13.025
2.928,-0.0019417,0.2043,0.43922,0.64118,0.64062,12.947
2.936,-0.0058252,0.22287,0.44902,0.6451,0.625,12.712
2.944,-0.0097087,0.2434,0.48039,0.65098,0.60547,12.438
2.952,-0.01165,0.26979,0.48431,0.66078,0.5957,12.125
2.96,-0.015534,0.30108,0.4902,0.6549,0.59961,11.695
2.968,-0.017476,0.33333,0.50588,0.6451,0.58008,11.343
2.976,-0.019417,0.36755,0.52941,0.62549,0.56055,10.952
2.984,-0.021359,0.40176,0.53529,0.60588,0.55078,10.717
2.992,-0.021359,0.43402,0.52941,0.58039,0.55469,10.756
3,-0.023301,0.46334,0.5098,0.58039,0.56055,11.03
3.008,-0.023301,0.48974,0.48431,0.5902,0.58984,11.382
3.016,-0.025243,0.51124,0.4549,0.6098,0.61523,11.695
3.024,-0.025243,0.52786,0.42941,0.61569,0.64062,11.969
3.032,-0.025243,0.54057,0.42549,0.62549,0.64453,12.125
3.04,-0.025243,0.54936,0.41569,0.62941,0.64062,12.282
3.048,-0.025243,0.55327,0.40392,0.6549,0.66406,12.438
3.056,-0.025243,0.55621,0.38431,0.70588,0.69531,12.634
3.064,-0.027184,0.55621,0.50588,0.69608,0.58984,12.907
3.072,-0.027184,0.55425,0.70588,0.73529,0.32031,13.259
3.08,-0.027184,0.54936,0.94706,0.47059,-0.039062,13.572
3.088,-0.029126,0.54252,0.97059,0.22353,-0.125,13.807
3.096,-0.029126,0.53372,0.76078,0.15882,0.26562,14.003
3.104,-0.029126,0.52199,0.7098,0.084314,0.3457,14.12
3.112,-0.031068,0.50831,0.5902,0.26863,0.50586,14.276
3.12,-0.031068,0.49365,0.51569,0.5,0.5957,14.394
3.128,-0.031068,0.47605,0.43529,0.61569,0.66016,14.589
3.136,-0.031068,0.46041,0.4098,0.6451,0.66992,14.707
3.144,-0.03301,0.44477,0.4,0.66078,0.68555,14.746
3.152,-0.03301,0.42717,0.39412,0.68039,0.69531,14.902
3.16,-0.03301,0.40958,0.39412,0.67059,0.68945,15.059
3.168,-0.034951,0.39101,0.40392,0.67647,0.68555,15.254
3.176,-0.034951,0.37439,0.4,0.68039,0.68555,15.372
3.184,-0.034951,0.35777,0.4,0.68627,0.68945,15.45
3.192,-0.034951,0.34409,0.4,0.6902,0.68555,15.567
3.2,-0.034951,0.33138,0.40392,0.6902,0.68555,15.645
3.208,-0.036893,0.3216,0.4098,0.68627,0.67578,15.684
3.216,-0.036893,0.31281,0.41569,0.6902,0.67578,15.763
3.224,-0.036893,0.30596,0.42549,0.69608,0.66016,15.841
3.232,-0.038835,0.3001,0.43922,0.68039,0.65039,15.88
3.24,-0.038835,0.29521,0.43922,0.6902,0.64453,15.997
3.248,-0.038835,0.2913,0.4549,0.6902,0.625,16.193
3.256,-0.038835,0.28837,0.46078,0.68627,0.61523,16.31
3.264,-0.038835,0.28543,0.47059,0.6902,0.60547,16.506
3.272,-0.040777,0.28348,0.48431,0.6902,0.59961,16.623
3.28,-0.040777,0.28055,0.49412,0.69608,0.58398,16.623
3.288,-0.042718,0.27957,0.5098,0.68039,0.56055,16.701
3.296,-0.042718,0.27859,0.51569,0.68627,0.55469,16.78
3.304,-0.04466,0.27664,0.52941,0.68039,0.53906,16.819
3.312,-0.04466,0.27566,0.53922,0.67059,0.52539,16.936
3.32,-0.046602,0.27468,0.53922,0.66078,0.5293,17.093
3.328,-0.046602,0.2737,0.5451,0.65098,0.51953,17.132
3.336,-0.046602,0.2737,0.55098,0.63529,0.51953,17.249
3.344,-0.046602,0.2737,0.53922,0.63529,0.52539,17.405
3.352,-0.048544,0.2737,0.52941,0.63529,0.53516,17.523
3.36,-0.048544,0.27175,0.51569,0.62941,0.55078,17.64
3.368,-0.048544,0.27077,0.5,0.63529,0.57031,17.757
3.376,-0.048544,0.26979,0.4902,0.63529,0.58984,17.875
3.384,-0.050485,0.26784,0.48039,0.63529,0.5957,18.031
3.392,-0.050485,0.26588,0.47059,0.63529,0.60547,18.149
3.4,-0.050485,0.26393,0.46471,0.63529,0.61523,18.266
3.408,-0.050485,0.26197,0.46078,0.63529,0.61523,18.383
3.416,-0.048544,0.26002,0.46078,0.63529,0.62891,18.462
3.424,-0.048544,0.25709,0.44902,0.64118,0.63477,18.462
3.432,-0.046602,0.25513,0.46078,0.63529,0.625,18.266
3.44,-0.046602,0.25415,0.44902,0.64118,0.63477,17.757
3.448,-0.04466,0.25415,0.4549,0.63529,0.64062,17.093
3.456,-0.04466,0.2522,0.46078,0.63529,0.625,16.154
3.464,-0.042718,0.25122,0.4549,0.63529,0.62891,15.059
3.472,-0.042718,0.25024,0.46078,0.64118,0.625,14.081
3.48,-0.040777,0.24927,0.46078,0.6451,0.625,13.377
3.488,-0.040777,0.24829,0.46078,0.63529,0.61914,13.142
3.496,-0.040777,0.24731,0.46078,0.63529,0.61914,13.377
3.504,-0.040777,0.24633,0.46078,0.63529,0.61523,13.963
3.512,-0.040777,0.24633,0.46471,0.62549,0.625,14.511
3.52,-0.040777,0.24633,0.47059,0.62941,0.61523,14.902
3.528,-0.040777,0.24633,0.46078,0.62941,0.61914,14.941
3.536,-0.040777,0.24633,0.46471,0.62941,0.61523,14.707
3.544,-0.040777,0.24731,0.47451,0.61961,0.61523,14.315
3.552,-0.038835,0.24731,0.47451,0.61961,0.61523,13.963
3.56,-0.038835,0.24829,0.48039,0.61569,0.60938,13.651
3.568,-0.038835,0.24829,0.47451,0.62549,0.60938,13.455
3.576,-0.038835,0.25024,0.47451,0.62941,0.61523,13.455
3.584,-0.038835,0.25415,0.48431,0.62549,0.60938,13.69
3.592,-0.038835,0.261,0.47451,0.61961,0.59961,14.081
3.6,-0.038835,0.27273,0.48431,0.62549,0.59961,14.394
3.608,-0.040777,0.28935,0.48431,0.61569,0.59961,14.628
3.616,-0.040777,0.31085,0.48431,0.61961,0.60547,14.941
3.624,-0.042718,0.33822,0.48039,0.62941,0.60938,15.215
3.632,-0.042718,0.37048,0.49412,0.65098,0.61523,15.528
3.64,-0.042718,0.40274,0.51961,0.65098,0.57031,15.841
3.648,-0.04466,0.43402,0.53529,0.64118,0.56055,15.958
3.656,-0.04466,0.47019,0.53529,0.63529,0.56445,16.076
3.664,-0.04466,0.50929,0.56078,0.62549,0.54492,16.193
3.672,-0.04466,0.54741,0.57059,0.6,0.5293,16.31
3.68,-0.04466,0.58456,0.57451,0.58431,0.53516,16.467
3.688,-0.04466,0.61779,0.56078,0.56078,0.52539,16.623
3.696,-0.04466,0.64809,0.53529,0.57059,0.54492,16.78
3.704,-0.04466,0.67351,0.5098,0.59608,0.58398,16.897
3.712,-0.042718,0.69501,0.47451,0.6098,0.61523,17.014
3.72,-0.042718,0.71261,0.4549,0.61569,0.625,17.132
3.728,-0.042718,0.7263,0.44902,0.6098,0.62891,17.249
3.736,-0.042718,0.73412,0.4549,0.62941,0.64062,17.405
3.744,-0.042718,0.73803,0.4098,0.68627,0.67969,17.523
3.752,-0.042718,0.74096,0.47059,0.69608,0.63477,17.64
3.76,-0.042718,0.74194,0.6,0.73137,0.48047,17.757
3.768,-0.04466,0.73998,0.87059,0.6098,0.12109,17.875
3.776,-0.04466,0.73607,0.99216,0.3,-0.125,18.149
3.784,-0.046602,0.73021,0.84118,0.18824,0.125,18.383
3.792,-0.046602,0.72141,0.77647,0.039216,0.2793,18.579
3.8,-0.046602,0.70968,0.67059,0.12353,0.40039,18.657
3.808,-0.048544,0.69599,0.58039,0.37451,0.52539,18.696
3.816,-0.048544,0.68133,0.48431,0.56471,0.61914,18.774
3.824,-0.048544,0.66471,0.43529,0.61961,0.66016,18.97
3.832,-0.048544,0.64614,0.42549,0.6451,0.66992,19.087
3.84,-0.048544,0.62952,0.41961,0.6549,0.67578,19.205
3.848,-0.048544,0.61193,0.42549,0.6549,0.66992,19.322
3.856,-0.050485,0.59433,0.41569,0.66471,0.67578,19.439
3.864,-0.050485,0.57478,0.41569,0.67647,0.68555,19.635
3.872,-0.050485,0.565,0.41569,0.67059,0.66992,19.752
3.88,-0.050485,0.56012,0.42549,0.67647,0.67578,19.909
3.888,-0.050485,0.55034,0.42941,0.67647,0.66406,19.948
3.896,-0.050485,0.53861,0.43529,0.68039,0.6543,20.065
3.904,-0.050485,0.52786,0.43922,0.68627,0.65039,20.143
3.912,-0.050485,0.51711,0.4451,0.68627,0.64062,20.222
3.92,-0.048544,0.50635,0.4549,0.6902,0.64062,20.261
3.928,-0.048544,0.49756,0.46078,0.68039,0.625,20.339
3.936,-0.046602,0.49071,0.46471,0.6902,0.61523,20.378
3.944,-0.046602,0.48485,0.47059,0.68039,0.60938,20.535
3.952,-0.04466,0.47898,0.48431,0.6902,0.5957,20.652
3.96,-0.042718,0.4741,0.5,0.68627,0.58984,20.847
3.968,-0.042718,0.46921,0.5098,0.69608,0.57422,20.965
3.976,-0.040777,0.46432,0.51961,0.69608,0.56055,21.004
3.984,-0.040777,0.46041,0.52941,0.68627,0.53906,21.082
3.992,-0.038835,0.4565,0.53529,0.68039,0.5293,21.199
4,-0.038835,0.45259,0.5451,0.68039,0.52539,21.278
4.008,-0.036893,0.44966,0.5451,0.67059,0.51953,21.395
4.016,-0.036893,0.44673,0.55098,0.66078,0.51953,21.512
4.024,-0.034951,0.44282,0.55098,0.65098,0.51562,21.63
4.032,-0.034951,0.43891,0.5549,0.64118,0.51953,21.708
4.04,-0.03301,0.43597,0.53529,0.62941,0.51953,21.903
4.048,-0.03301,0.43304,0.52941,0.63529,0.53516,22.021
4.056,-0.03301,0.43011,0.5098,0.62549,0.54492,22.138
4.064,-0.03301,0.4262,0.50588,0.62941,0.56055,22.216
4.072,-0.03301,0.42326,0.4902,0.63529,0.58008,22.334
4.08,-0.03301,0.41935,0.48431,0.63529,0.58984,22.451
4.088,-0.03301,0.41544,0.47451,0.63529,0.59961,22.529
4.096,-0.03301,0.41153,0.47059,0.63529,0.60938,22.647
4.104,-0.03301,0.40762,0.46078,0.64118,0.61523,22.764
4.112,-0.03301,0.40274,0.46078,0.63529,0.61914,22.881
4.12,-0.034951,0.39883,0.46078,0.63529,0.61523,22.999
4.128,-0.034951,0.39492,0.46078,0.64118,0.61523,23.155
4.136,-0.034951,0.39198,0.46078,0.63529,0.61523,23.194
4.144,-0.034951,0.39003,0.46471,0.64118,0.61914,23.272
4.152,-0.036893,0.3871,0.47451,0.63529,0.60938,23.194
4.16,-0.036893,0.38416,0.47059,0.64118,0.61523,23.077
4.168,-0.038835,0.38123,0.48039,0.64118,0.61523,22.842
4.176,-0.038835,0.37928,0.48039,0.63529,0.60938,22.373
4.184,-0.040777,0.37732,0.48431,0.62941,0.61523,21.903
4.192,-0.042718,0.37537,0.49412,0.62549,0.59961,21.395
4.2,-0.04466,0.37341,0.50588,0.62941,0.5957,21.199
4.208,-0.046602,0.37243,0.5098,0.61961,0.58984,21.317
4.216,-0.050485,0.37048,0.5098,0.62549,0.5957,21.512
4.224,-0.052427,0.3695,0.5,0.62941,0.5957,21.63
4.232,-0.054369,0.36755,0.49412,0.61961,0.5957,21.825
4.24,-0.058252,0.36657,0.48431,0.62941,0.59961,22.021
4.248,-0.060194,0.36559,0.4902,0.61961,0.60547,22.216
4.256,-0.062136,0.36461,0.49412,0.62549,0.5957,22.256
4.264,-0.064078,0.36364,0.49412,0.63529,0.58984,22.256
4.272,-0.066019,0.36461,0.49412,0.6098,0.5957,22.256
4.28,-0.067961,0.36755,0.49412,0.61961,0.58398,22.373
4.288,-0.069903,0.37341,0.5,0.61569,0.5957,22.529
4.296,-0.069903,0.38319,0.48431,0.62549,0.60547,22.686
4.304,-0.069903,0.39883,0.48431,0.61569,0.5957,22.881
4.312,-0.071845,0.41935,0.48431,0.61569,0.5957,22.999
4.32,-0.071845,0.44477,0.49412,0.6098,0.5957,23.194
4.328,-0.073786,0.4741,0.50588,0.62941,0.5957,23.39
4.336,-0.073786,0.50147,0.52941,0.65098,0.58008,23.585
4.344,-0.073786,0.52786,0.5549,0.62941,0.55469,23.703
4.352,-0.073786,0.55914,0.56078,0.63529,0.55078,23.898
4.36,-0.073786,0.5914,0.5549,0.62941,0.54492,24.016
4.368,-0.073786,0.62268,0.56471,0.61569,0.53516,24.211
4.376,-0.075728,0.65298,0.5549,0.58039,0.51953,24.329
4.384,-0.075728,0.68035,0.56471,0.57059,0.52539,24.446
4.392,-0.075728,0.70479,0.55098,0.5549,0.5293,24.563
4.4,-0.075728,0.72532,0.53529,0.58039,0.56055,24.72
4.408,-0.075728,0.74194,0.51569,0.58431,0.58008,24.837
4.416,-0.07767,0.75464,0.49412,0.6,0.59961,24.876
4.424,-0.07767,0.76344,0.4549,0.6,0.61523,25.033
4.432,-0.07767,0.76735,0.44902,0.6098,0.61914,25.189
4.44,-0.07767,0.76833,0.4549,0.63529,0.63477,25.345
4.448,-0.07767,0.76735,0.42941,0.68627,0.66016,25.463
4.456,-0.07767,0.7654,0.55098,0.68039,0.55469,25.658
4.464,-0.07767,0.76149,0.73137,0.73137,0.30078,25.776
4.472,-0.07767,0.75562,0.95686,0.46471,-0.054688,26.01
4.48,-0.07767,0.7478,0.97647,0.21373,-0.13477,26.128
4.488,-0.07767,0.73803,0.80588,0.14902,0.23047,26.323
4.496,-0.07767,0.72532,0.76667,0.07451,0.31055,26.402
4.504,-0.07767,0.71163,0.62941,0.27451,0.48047,26.519
4.512,-0.07767,0.69697,0.53922,0.4902,0.56445,26.636
4.52,-0.07767,0.68035,0.47059,0.6,0.62891,26.754
4.528,-0.07767,0.66276,0.47451,0.63529,0.64453,26.91
4.536,-0.07767,0.64712,0.43529,0.66078,0.66992,27.066
4.544,-0.07767,0.63148,0.40392,0.66471,0.67969,27.223
4.552,-0.07767,0.61486,0.41961,0.66078,0.66406,27.34
4.56,-0.07767,0.59824,0.42941,0.66471,0.66992,27.458
4.568,-0.07767,0.58162,0.43922,0.67647,0.66406,27.536
4.576,-0.075728,0.56598,0.42549,0.68039,0.66016,27.653
4.584,-0.075728,0.5523,0.43922,0.68039,0.66406,27.692
4.592,-0.073786,0.53959,0.44902,0.67647,0.65039,27.849
4.6,-0.071845,0.52786,0.4549,0.68627,0.64062,27.888
4.608,-0.069903,0.51906,0.42549,0.68039,0.6543,27.888
4.616,-0.069903,0.51026,0.46078,0.67647,0.63477,27.966
4.624,-0.067961,0.50244,0.46471,0.67647,0.625,28.083
4.632,-0.066019,0.49658,0.46078,0.68039,0.61914,28.201
4.64,-0.064078,0.49071,0.46078,0.68039,0.61523,28.318
4.648,-0.062136,0.48583,0.48431,0.67647,0.5957,28.396
4.656,-0.060194,0.48094,0.49412,0.66471,0.58398,28.592
4.664,-0.058252,0.47703,0.51961,0.67059,0.56055,28.709
4.672,-0.056311,0.47312,0.51569,0.68039,0.54492,28.827
4.68,-0.052427,0.46921,0.5549,0.67059,0.53906,28.827
4.688,-0.050485,0.4653,0.53922,0.6549,0.53516,28.944
4.696,-0.048544,0.46139,0.53529,0.67059,0.51953,29.061
4.704,-0.04466,0.4565,0.56471,0.66471,0.50977,29.218
4.712,-0.040777,0.45259,0.55098,0.65098,0.51953,29.257
4.72,-0.036893,0.4477,0.52941,0.6549,0.51562,29.335
4.728,-0.03301,0.44379,0.57451,0.61961,0.49414,29.374
4.736,-0.029126,0.43988,0.56078,0.62549,0.50586,29.452
4.744,-0.025243,0.43597,0.57451,0.59608,0.51562,29.57
4.752,-0.021359,0.43206,0.55098,0.61961,0.53906,29.648
4.76,-0.017476,0.42717,0.53529,0.61569,0.54492,29.648
4.768,-0.01165,0.42229,0.50588,0.61569,0.57031,29.648
4.776,-0.007767,0.4174,0.5,0.6098,0.58398,29.57
4.784,-0.0038835,0.41251,0.52549,0.62941,0.59961,29.374
4.792,0.0038835,0.40762,0.4549,0.63529,0.62891,29.061
4.8,0.0097087,0.40371,0.47451,0.62941,0.625,28.787
4.808,0.017476,0.3998,0.46471,0.61961,0.625,28.396
4.816,0.023301,0.39492,0.49412,0.6098,0.60938,28.005
4.824,0.031068,0.39101,0.47451,0.6549,0.66992,26.91
4.832,0.038835,0.38905,0.43922,0.66471,0.67969,23.937
4.84,0.04466,0.3871,0.48039,0.61569,0.61523,18.344
4.848,0.052427,0.38416,0.48431,0.61961,0.60547,10.639
4.856,0.058252,0.38221,0.46471,0.62941,0.61523,3.4029
4.864,0.066019,0.37928,0.46078,0.62941,0.625,-0.74315
4.872,0.073786,0.3783,0.4902,0.62549,0.6543,-0.66493
4.88,0.081553,0.37732,0.48039,0.67647,0.68555,2.5815
4.888,0.08932,0.37634,0.47059,0.61961,0.59961,7.1969
4.896,0.097087,0.37634,0.50588,0.5902,0.56445,11.382
4.904,0.10485,0.37634,0.4549,0.6549,0.64453,13.494
4.912,0.11456,0.37634,0.43922,0.64118,0.64062,13.142
4.92,0.12039,0.37634,0.51961,0.5902,0.58008,10.756
4.928,0.12816,0.37634,0.4902,0.60588,0.57031,7.5098
4.936,0.13592,0.37634,0.49412,0.6098,0.58984,4.5763
4.944,0.14369,0.37634,0.48431,0.61961,0.59961,2.777
4.952,0.15146,0.37537,0.46078,0.63529,0.63477,2.1903
4.96,0.15922,0.37537,0.5,0.6098,0.59961,2.5033
4.968,0.16893,0.37537,0.4549,0.64118,0.62891,3.0117
4.976,0.1767,0.37634,0.48039,0.60588,0.57031,3.2073
4.984,0.18447,0.38025,0.5451,0.56471,0.5293,2.6988
4.992,0.19417,0.3871,0.50588,0.59608,0.57031,1.5254
5,0.20194,0.39883,0.47059,0.63529,0.61914,0
5.008,0.20971,0.41447,0.4902,0.61569,0.625,-1.369
5.016,0.21942,0.435,0.51961,0.6098,0.58984,-2.2295
5.024,0.22913,0.46041,0.4902,0.6098,0.58398,-2.425
5.032,0.24078,0.48583,0.46471,0.62549,0.5957,-2.1121
5.04,0.25049,0.51026,0.56078,0.64118,0.56445,-1.6036
5.048,0.26214,0.54154,0.57451,0.63529,0.55078,-1.0561
5.056,0.27379,0.57478,0.52941,0.62941,0.56445,-0.54759
5.064,0.28738,0.60802,0.58431,0.63529,0.54492,-0.31291
5.072,0.30097,0.64223,0.56078,0.59608,0.52539,-0.43025
5.08,0.31262,0.67351,0.55098,0.58431,0.5293,-0.74315
5.088,0.32427,0.70283,0.5902,0.5451,0.50586,-0.86049
5.096,0.33592,0.72923,0.60588,0.53922,0.49414,-0.74315
5.104,0.34757,0.75367,0.4902,0.5902,0.57422,-0.31291
5.112,0.36117,0.77419,0.48039,0.60588,0.60938,0.27379
5.12,0.37476,0.79179,0.51961,0.58431,0.5957,0.74315
5.128,0.38641,0.80645,0.4902,0.60588,0.60938,1.1343
5.136,0.4,0.81623,0.46471,0.63529,0.6543,1.369
5.144,0.41165,0.82307,0.48039,0.66078,0.64062,1.4472
5.152,0.42524,0.82796,0.44902,0.66471,0.59961,1.5254
5.16,0.43689,0.83187,0.61569,0.6902,0.4707,1.6819
5.168,0.44854,0.83382,0.93725,0.57451,0.12109,2.073
5.176,0.46214,0.83382,1.1176,0.30392,-0.12891,2.8162
5.184,0.47573,0.83284,0.96667,0.26471,0.11133,3.7549
5.192,0.48932,0.82991,0.78627,0.31961,0.3457,4.8892
5.2,0.50485,0.82698,0.7902,0.1549,0.32031,6.0626
5.208,0.52039,0.82209,0.61961,0.37059,0.54492,7.0795
5.216,0.53592,0.82014,0.56078,0.5549,0.64062,7.8227
5.224,0.55146,0.82111,0.53922,0.59608,0.61914,8.1356
5.232,0.56699,0.82307,0.53529,0.58039,0.58008,8.0574
5.24,0.58058,0.82991,0.52549,0.61569,0.625,7.588
5.248,0.59612,0.84457,0.53529,0.62549,0.61523,7.0795
5.256,0.60971,0.86706,0.53529,0.63529,0.625,6.8057
5.264,0.6233,0.89541,0.5451,0.60588,0.57422,7.0013
5.272,0.63689,0.92571,0.53529,0.6098,0.58008,7.588
5.28,0.65049,0.95601,0.52549,0.61569,0.58984,8.5267
5.288,0.66602,0.97849,0.51961,0.6098,0.58008,9.6219
5.296,0.68155,0.98925,0.51961,0.6549,0.64062,10.717
5.304,0.69515,0.99511,0.51569,0.63529,0.59961,11.695
5.312,0.70874,0.99707,0.52941,0.62941,0.60547,12.595
5.32,0.72039,0.99902,0.53529,0.6098,0.54492,13.181
5.328,0.73398,1,0.53922,0.62941,0.57031,13.494
5.336,0.74757,1,0.5451,0.60588,0.54492,13.455
5.344,0.76117,1,0.5549,0.6,0.56445,13.025
5.352,0.77476,1,0.57059,0.62941,0.51953,12.399
5.36,0.79029,0.99609,0.57451,0.6,0.50586,11.89
5.368,0.80388,0.98827,0.58039,0.62941,0.5293,11.812
5.376,0.81748,0.97752,0.6,0.61961,0.51953,12.282
5.384,0.83107,0.96383,0.6098,0.60588,0.47461,12.907
5.392,0.84272,0.94721,0.61961,0.61569,0.4707,13.455
5.4,0.85437,0.92962,0.6098,0.62941,0.49414,13.768
5.408,0.86408,0.90909,0.60588,0.59608,0.4707,13.807
5.416,0.87379,0.88661,0.60588,0.6098,0.48438,13.807
5.424,0.88155,0.86119,0.58039,0.58431,0.47461,13.885
5.432,0.88738,0.83675,0.5902,0.6,0.51562,14.276
5.44,0.89515,0.81232,0.58039,0.57451,0.49414,14.941
5.448,0.89903,0.78592,0.53922,0.60588,0.53516,15.841
5.456,0.90291,0.75953,0.53529,0.58431,0.51953,16.623
5.464,0.90485,0.73412,0.5549,0.5902,0.53906,17.249
5.472,0.90874,0.71065,0.53529,0.57451,0.53516,17.562
5.48,0.90874,0.68915,0.51961,0.59608,0.58984,17.718
5.488,0.90874,0.67058,0.5098,0.57059,0.55078,17.718
5.496,0.9068,0.652,0.47451,0.62941,0.625,17.718
5.504,0.90485,0.63343,0.47059,0.58039,0.56445,17.757
5.512,0.90097,0.61486,0.48039,0.6098,0.60547,17.875
5.52,0.89515,0.59629,0.47451,0.63529,0.64062,18.149
5.528,0.88932,0.57771,0.48039,0.62941,0.62891,18.344
5.536,0.8835,0.56109,0.4549,0.60588,0.59961,18.501
5.544,0.87573,0.54643,0.48431,0.58431,0.57422,18.657
5.552,0.8699,0.53079,0.48431,0.62941,0.6543,18.696
5.56,0.86214,0.51613,0.48431,0.58039,0.57422,18.892
5.568,0.85437,0.50342,0.47059,0.57451,0.56055,18.97
5.576,0.84854,0.49071,0.46078,0.63529,0.64453,18.97
5.584,0.84078,0.47898,0.4902,0.60588,0.60547,18.814
5.592,0.83495,0.46628,0.47451,0.59608,0.59961,18.774
5.6,0.82718,0.45455,0.48431,0.60588,0.60547,18.696
5.608,0.82136,0.44086,0.46471,0.6,0.61914,18.696
5.616,0.81359,0.42717,0.4549,0.58431,0.58984,18.774
5.624,0.80777,0.41153,0.4902,0.57451,0.57031,18.892
5.632,0.80388,0.39785,0.47059,0.60588,0.58984,19.009
5.64,0.79806,0.38319,0.49412,0.59608,0.58008,19.087
5.648,0.79417,0.36657,0.5,0.62549,0.625,19.009
5.656,0.78835,0.34604,0.5,0.5902,0.58008,18.892
5.664,0.78447,0.32454,0.47059,0.6,0.5957,18.696
5.672,0.78058,0.3001,0.47451,0.63529,0.64453,18.657
5.68,0.77476,0.27468,0.48039,0.6,0.59961,18.579
5.688,0.76893,0.24829,0.49412,0.5549,0.5293,18.501
5.696,0.76505,0.22287,0.47451,0.6,0.59961,18.579
5.704,0.75728,0.19746,0.51961,0.61961,0.61914,18.657
5.712,0.75146,0.17498,0.53529,0.58431,0.57031,18.696
5.72,0.74563,0.1564,0.53529,0.6098,0.61523,18.657
5.728,0.73786,0.14174,0.5549,0.53529,0.51953,18.501
5.736,0.7301,0.13294,0.5549,0.57059,0.53516,18.344
5.744,0.72233,0.12805,0.58431,0.57451,0.51562,18.149
5.752,0.71262,0.12414,0.68039,0.58431,0.49023,17.953
5.76,0.70291,0.12121,0.72157,0.56078,0.46094,17.953
5.768,0.68932,0.11926,0.84118,0.50588,0.46484,18.149
5.776,0.67573,0.1173,1.0412,0.41569,0.29102,18.501
5.784,0.66408,0.11437,1.0824,0.4098,0.32422,18.892
5.792,0.65049,0.11144,1.0373,0.44902,0.35547,19.283
5.8,0.63689,0.10655,0.97059,0.4098,0.32422,19.596
5.808,0.6233,0.10068,0.85686,0.4,0.31055,19.713
5.816,0.60777,0.092864,0.66078,0.52549,0.5,19.83
5.824,0.59223,0.083089,0.62941,0.5451,0.53516,19.948
5.832,0.57476,0.075269,0.70588,0.4902,0.45508,20.222
5.84,0.55728,0.068426,0.72157,0.47059,0.4043,20.456
5.848,0.53981,0.056696,0.6549,0.59608,0.56055,20.887
5.856,0.52039,0.042033,0.63529,0.63529,0.60938,21.317
5.864,0.50291,0.025415,0.75098,0.59608,0.36523,21.825
5.872,0.4835,0.012708,1.002,0.6098,0.089844,22.373
5.88,0.46796,0.0058651,1.1216,0.29412,-0.089844,22.999
5.888,0.45049,0.0029325,0.89608,0.17843,0.16602,23.703
5.896,0.43495,0.00097752,0.75098,0.043137,0.38477,24.563
5.904,0.41942,0,0.61961,-0.031373,0.29102,25.463
5.912,0.40194,0,0.51569,0.34902,0.56055,26.441
5.92,0.38641,0.059629,0.3902,0.52549,0.625,27.34
5.928,0.36893,0.14565,0.32353,0.60588,0.69531,28.083
5.936,0.35146,0.18671,0.29412,0.66078,0.76953,28.787
5.944,0.33592,0.2043,0.2902,0.6549,0.75391,29.374
5.952,0.32039,0.20821,0.28431,0.69608,0.80469,29.765
5.96,0.30485,0.20626,0.3,0.67059,0.74023,29.687
5.968,0.28932,0.20039,0.31373,0.7098,0.80469,29.139
5.976,0.27379,0.19257,0.33922,0.66078,0.7207,28.396
5.984,0.25631,0.18475,0.3549,0.64118,0.68555,28.005
5.992,0.23883,0.17791,0.38039,0.70588,0.76953,28.592
6,0.22136,0.17204,0.41569,0.6098,0.625,30.196
6.008,0.20194,0.16716,0.43922,0.60588,0.60938,32.269
6.016,0.18252,0.16325,0.47451,0.6549,0.67969,33.716
6.024,0.16117,0.16129,0.48431,0.6098,0.60547,33.95
6.032,0.13981,0.16227,0.5,0.67059,0.66016,33.207
6.04,0.12233,0.16422,0.48431,0.65098,0.61523,31.643
6.048,0.10291,0.1652,0.4902,0.67647,0.625,29.687
6.056,0.085437,0.16813,0.50588,0.70588,0.64453,28.005
6.064,0.066019,0.17107,0.52549,0.69608,0.61523,26.832
6.072,0.048544,0.17498,0.53529,0.67059,0.55469,26.128
6.08,0.029126,0.17889,0.51569,0.68039,0.5293,25.893
6.088,0.007767,0.18475,0.5098,0.67059,0.51562,25.776
6.096,-0.01165,0.19062,0.48039,0.71569,0.57422,25.58
6.104,-0.029126,0.19746,0.46078,0.7451,0.61914,25.189
6.112,-0.048544,0.20626,0.46471,0.75098,0.625,24.407
6.12,-0.066019,0.21505,0.48039,0.6549,0.50977,23.194
6.128,-0.083495,0.22483,0.53529,0.66078,0.52539,21.943
6.136,-0.10291,0.2346,0.5451,0.65098,0.51953,21.004
6.144,-0.12233,0.24438,0.53922,0.6098,0.46484,20.535
6.152,-0.14563,0.25513,0.57059,0.61961,0.48047,20.378
6.16,-0.16699,0.26588,0.58039,0.6,0.45508,20.574
6.168,-0.19223,0.27664,0.60588,0.65098,0.51562,20.691
6.176,-0.21748,0.28837,0.62549,0.68627,0.50977,20.652
6.184,-0.2466,0.29912,0.59608,0.67647,0.53516,20.339
6.192,-0.27379,0.30987,0.58431,0.61961,0.49023,19.83
6.2,-0.29903,0.32063,0.56078,0.61569,0.5293,19.087
6.208,-0.32621,0.3304,0.51961,0.63529,0.55078,18.266
6.216,-0.35146,0.3392,0.49412,0.62941,0.61523,17.718
6.224,-0.3767,0.34702,0.48431,0.66471,0.65039,17.445
6.232,-0.40388,0.35386,0.4902,0.6098,0.58008,17.445
6.24,-0.43301,0.3607,0.48431,0.57059,0.52539,17.562
6.248,-0.46408,0.36559,0.51961,0.63529,0.60547,17.718
6.256,-0.4932,0.37146,0.51569,0.6098,0.55078,17.64
6.264,-0.4932,0.37537,0.53922,0.58431,0.50977,17.405
6.272,-0.4932,0.37928,0.52941,0.63529,0.56055,16.936
6.28,-0.4932,0.38123,0.51569,0.6549,0.5957,16.467
6.288,-0.4932,0.38319,0.51961,0.61569,0.52539,15.958
6.296,-0.4932,0.38416,0.52549,0.64118,0.56445,15.528
6.304,-0.4932,0.38514,0.49412,0.66078,0.60547,15.332
6.312,-0.4932,0.38514,0.48431,0.67059,0.61523,15.215
6.32,-0.4932,0.38514,0.49412,0.60588,0.51953,15.137
6.328,-0.4932,0.38514,0.50588,0.62941,0.56055,15.059
6.336,-0.4932,0.38612,0.4451,0.68627,0.64453,14.941
6.344,-0.4932,0.38612,0.47059,0.66471,0.65039,14.746
6.352,-0.4932,0.38514,0.48431,0.67647,0.58398,14.433
6.36,-0.4932,0.38514,0.46078,0.6549,0.55469,14.081
6.368,-0.4932,0.38319,0.44902,0.71569,0.62891,13.651
6.376,-0.4932,0.38221,0.43529,0.72157,0.65039,13.181
6.384,-0.4932,0.38123,0.43529,0.65098,0.58008,12.712
6.392,-0.4932,0.38123,0.42549,0.63529,0.57031,12.321
6.4,-0.4932,0.38319,0.40392,0.62941,0.59961,11.969
6.408,-0.4932,0.38612,0.39412,0.65098,0.66406,11.773
6.416,-0.4932,0.39198,0.40392,0.6549,0.62891,11.656
6.424,-0.4932,0.40078,0.36471,0.61569,0.61523,11.578
6.432,-0.4932,0.41056,0.35882,0.68039,0.69922,11.578
6.44,-0.4932,0.42229,0.37451,0.62941,0.59961,11.656
6.448,-0.4932,0.43695,0.4098,0.65098,0.61523,11.656
6.456,-0.4932,0.45357,0.41961,0.6098,0.55078,11.656
6.464,-0.4932,0.47116,0.4098,0.62549,0.56055,11.656
6.472,-0.4932,0.48876,0.43922,0.6549,0.5957,11.578
6.48,-0.4932,0.50635,0.47059,0.59608,0.53516,11.578
6.488,-0.45631,0.52199,0.50588,0.56471,0.50977,11.695
6.496,-0.41942,0.53666,0.48431,0.58039,0.57031,11.969
6.504,-0.37476,0.55034,0.43529,0.5451,0.54492,12.125
6.512,-0.3301,0.56207,0.38039,0.61961,0.65039,12.282
6.52,-0.28932,0.57283,0.34902,0.5902,0.60938,12.399
6.528,-0.2466,0.58162,0.3451,0.62941,0.67578,12.516
6.536,-0.20971,0.58847,0.3549,0.60588,0.63477,12.634
6.544,-0.17282,0.59531,0.33922,0.7,0.75,12.751
6.552,-0.13786,0.60117,0.3098,0.73529,0.77539,13.025
6.56,-0.10097,0.60704,0.39412,0.7,0.64453,13.259
6.568,-0.067961,0.61193,0.58039,0.74118,0.41992,13.651
6.576,-0.03301,0.61486,0.86078,0.60588,0.089844,14.12
6.584,-0.0038835,0.61681,0.93137,0.31961,-0.070312,14.707
6.592,0.025243,0.61681,0.73529,0.2451,0.21094,15.372
6.6,0.050485,0.61584,0.67647,0.088235,0.29102,16.076
6.608,0.075728,0.61388,0.55098,0.24902,0.51953,16.701
6.616,0.099029,0.60997,0.47451,0.43529,0.57031,17.014
6.624,0.12039,0.60606,0.39412,0.5902,0.64453,17.093
6.632,0.13981,0.60215,0.38039,0.6549,0.70508,16.897
6.64,0.15922,0.59726,0.36471,0.6902,0.74414,16.506
6.648,0.1767,0.59335,0.36471,0.6098,0.61523,15.997
6.656,0.19417,0.58847,0.35882,0.62549,0.63477,15.45
6.664,0.20777,0.58358,0.36471,0.64118,0.65039,14.902
6.672,0.22136,0.57869,0.35882,0.68039,0.70898,14.589
6.68,0.23301,0.5738,0.37059,0.66078,0.7207,14.589
6.688,0.24466,0.56891,0.37059,0.61961,0.625,14.824
6.696,0.25437,0.56403,0.38039,0.7098,0.75,15.215
6.704,0.26408,0.55914,0.3902,0.61569,0.60938,15.528
6.712,0.27184,0.55523,0.3902,0.6098,0.5957,15.841
6.72,0.27961,0.55132,0.40392,0.63529,0.625,16.193
6.728,0.28544,0.54839,0.4098,0.66078,0.64062,16.271
6.736,0.2932,0.54741,0.40392,0.62941,0.58398,15.841
6.744,0.29903,0.54643,0.40392,0.6549,0.61914,14.824
6.752,0.30485,0.54545,0.42549,0.67059,0.62891,13.651
6.76,0.31068,0.54643,0.43922,0.66078,0.61523,12.438
6.768,0.31456,0.54741,0.44902,0.65098,0.57031,11.656
6.776,0.32039,0.54936,0.46471,0.63529,0.54492,11.186
6.784,0.32427,0.5523,0.49412,0.66078,0.56445,11.186
6.792,0.3301,0.55621,0.51569,0.61961,0.49414,11.499
6.8,0.33398,0.56109,0.53529,0.59608,0.45508,12.008
6.808,0.33981,0.565,0.52941,0.6451,0.51953,12.595
6.816,0.34369,0.56989,0.52549,0.68039,0.58398,12.947
6.824,0.34951,0.57478,0.52941,0.58431,0.46094,13.142
6.832,0.35534,0.57869,0.52941,0.6,0.49023,13.142
6.84,0.35922,0.58065,0.52941,0.5902,0.49414,13.064
6.848,0.36505,0.58358,0.49412,0.60588,0.51953,13.025
6.856,0.36893,0.58456,0.48431,0.57451,0.48438,13.025
6.864,0.37282,0.58553,0.48431,0.63529,0.5957,13.181
6.872,0.3767,0.58456,0.4451,0.5902,0.52539,13.455
6.88,0.38058,0.5826,0.42941,0.6098,0.57031,13.807
6.888,0.38447,0.57967,0.4098,0.6549,0.64453,14.198
6.896,0.39029,0.57478,0.41569,0.64118,0.63477,14.394
6.904,0.39417,0.56794,0.4,0.58431,0.56055,14.511
6.912,0.39806,0.56012,0.39412,0.62549,0.61914,14.589
6.92,0.4,0.55132,0.4,0.64118,0.64062,14.628
6.928,0.40194,0.54252,0.3902,0.61961,0.60938,14.902
6.936,0.40388,0.53372,0.39412,0.66078,0.66406,15.059
6.944,0.40583,0.52297,0.3902,0.6902,0.72461,15.254
6.952,0.40777,0.51222,0.3902,0.58039,0.57422,15.45
6.96,0.40777,0.50049,0.38431,0.61961,0.62891,15.528
6.968,0.40971,0.48974,0.3902,0.63529,0.66406,15.645
6.976,0.40971,0.47996,0.38431,0.64118,0.67578,15.763
6.984,0.40971,0.47116,0.4,0.6098,0.625,15.841
6.992,0.40971,0.46334,0.41569,0.59608,0.59961,15.997
7,0.40971,0.4565,0.43922,0.62549,0.625,16.154
7.008,0.40971,0.45064,0.4549,0.58431,0.57422,16.154
7.016,0.40971,0.44673,0.43922,0.5902,0.57422,16.076
7.024,0.40971,0.44379,0.46471,0.60588,0.5957,15.997
7.032,0.40971,0.44184,0.47451,0.58431,0.57031,15.88
7.04,0.40777,0.43988,0.48431,0.60588,0.60938,15.645
7.048,0.40777,0.43793,0.49412,0.6098,0.61914,15.372
7.056,0.40583,0.435,0.48431,0.58431,0.58008,15.059
7.064,0.40388,0.43011,0.46471,0.59608,0.59961,14.746
7.072,0.40194,0.42522,0.46078,0.58431,0.5957,14.589
7.08,0.40194,0.42033,0.46078,0.6098,0.62891,14.394
7.088,0.4,0.41447,0.46471,0.56078,0.55469,14.276
7.096,0.4,0.40958,0.46078,0.6098,0.62891,14.12
7.104,0.39806,0.40567,0.46471,0.57451,0.58008,13.885
7.112,0.39806,0.40176,0.47059,0.58431,0.5957,13.572
7.12,0.39612,0.3998,0.48431,0.59608,0.59961,13.064
7.128,0.39612,0.3998,0.47059,0.56471,0.55078,12.634
7.136,0.39417,0.40078,0.47451,0.6098,0.5957,12.321
7.144,0.39417,0.40469,0.48039,0.62941,0.60547,12.203
7.152,0.39223,0.40958,0.49412,0.63529,0.58398,12.203
7.16,0.39223,0.41544,0.52549,0.6,0.5293,12.282
7.168,0.39029,0.42326,0.5451,0.6098,0.54492,12.321
7.176,0.39029,0.43304,0.57059,0.5902,0.51953,12.438
7.184,0.38835,0.44379,0.57451,0.56078,0.52539,12.516
7.192,0.38835,0.4565,0.56078,0.5451,0.5,12.634
7.2,0.38641,0.47019,0.55098,0.56078,0.53516,12.751
7.208,0.38641,0.48485,0.52941,0.52549,0.51562,12.907
7.216,0.38447,0.49853,0.5098,0.5902,0.61523,12.947
7.224,0.38447,0.5132,0.47059,0.6,0.63477,13.025
7.232,0.38252,0.5259,0.4549,0.56078,0.56445,13.142
7.24,0.38252,0.53666,0.44902,0.56078,0.57031,13.181
7.248,0.38058,0.54741,0.43922,0.63529,0.6543,13.338
7.256,0.37864,0.55816,0.41569,0.6549,0.625,13.455
7.264,0.3767,0.56891,0.51961,0.64118,0.54492,13.572
7.272,0.37476,0.57967,0.68627,0.69608,0.34961,13.768
7.28,0.37087,0.58944,0.97647,0.4902,0.0058594,14.12
7.288,0.36893,0.59824,1.0059,0.2549,-0.080078,14.707
7.296,0.36699,0.60704,0.8,0.18431,0.26562,15.332
7.304,0.36505,0.61388,0.7451,0.039216,0.29492,15.997
7.312,0.36311,0.61975,0.6098,0.22941,0.48047,16.584
7.32,0.36117,0.62366,0.52549,0.47059,0.60547,17.014
7.328,0.35922,0.62463,0.46078,0.53529,0.58398,17.21
7.336,0.35728,0.62561,0.43922,0.5902,0.62891,17.21
7.344,0.35728,0.62463,0.42941,0.61569,0.66016,16.819
7.352,0.35534,0.62366,0.42941,0.63529,0.65039,16.076
7.36,0.3534,0.6217,0.42549,0.62549,0.64062,15.137
7.368,0.34951,0.61975,0.42941,0.63529,0.64062,14.276
7.376,0.34757,0.61877,0.44902,0.6549,0.66406,13.651
7.384,0.34563,0.61779,0.4549,0.66471,0.66992,13.377
7.392,0.34369,0.61779,0.4451,0.64118,0.64453,13.494
7.4,0.34175,0.61877,0.4549,0.61569,0.60938,14.003
7.408,0.33786,0.61975,0.46078,0.63529,0.61523,14.707
7.416,0.33592,0.6217,0.47059,0.65098,0.61523,15.254
7.424,0.33398,0.62463,0.46078,0.68039,0.66016,15.528
7.432,0.33204,0.62757,0.48431,0.65098,0.60547,15.372
7.44,0.3301,0.62952,0.49412,0.62941,0.57031,14.941
7.448,0.32816,0.63245,0.5098,0.6451,0.57422,14.081
7.456,0.32816,0.63636,0.5098,0.66471,0.59961,13.025
7.464,0.32621,0.64027,0.51569,0.68039,0.61523,11.969
7.472,0.32427,0.64418,0.52941,0.62941,0.5293,11.147
7.48,0.32427,0.64712,0.53529,0.65098,0.54492,10.561
7.488,0.32233,0.65005,0.5098,0.6549,0.53906,10.326
7.496,0.32039,0.65298,0.5549,0.67059,0.55469,10.443
7.504,0.32039,0.65298,0.52941,0.6451,0.50977,11.03
7.512,0.31845,0.652,0.52549,0.64118,0.5,11.656
7.52,0.3165,0.64907,0.55098,0.63529,0.50586,12.125
7.528,0.31456,0.64516,0.56078,0.63529,0.52539,12.399
7.536,0.31262,0.64027,0.5451,0.61961,0.51953,12.399
7.544,0.31068,0.63343,0.5098,0.63529,0.54492,12.282
7.552,0.30874,0.62659,0.52941,0.60588,0.51562,12.125
7.56,0.3068,0.61975,0.55098,0.59608,0.52539,12.125
7.568,0.30485,0.6129,0.53529,0.60588,0.53906,12.203
7.576,0.30097,0.60704,0.4902,0.62941,0.58398,12.399
7.584,0.29903,0.60117,0.47059,0.64118,0.60938,12.516
7.592,0.29709,0.59629,0.46078,0.62941,0.61523,12.634
7.6,0.2932,0.5914,0.43529,0.63529,0.61914,12.595
7.608,0.29126,0.58651,0.42941,0.6549,0.6543,12.438
7.616,0.28738,0.58162,0.4549,0.6549,0.64062,12.125
7.624,0.28544,0.57674,0.43922,0.6451,0.64062,11.89
7.632,0.28155,0.57185,0.42941,0.6549,0.65039,11.656
7.64,0.27961,0.56794,0.41569,0.66078,0.66992,11.499
7.648,0.27573,0.56403,0.4451,0.61961,0.61523,11.46
7.656,0.27379,0.56012,0.47059,0.64118,0.60547,11.46
7.664,0.2699,0.55718,0.44902,0.63529,0.62891,11.46
7.672,0.26796,0.55523,0.43922,0.64118,0.625,11.46
7.68,0.26408,0.55425,0.48431,0.63529,0.63477,11.382
7.688,0.26019,0.55425,0.44902,0.6549,0.64062,11.186
7.696,0.25631,0.55425,0.40392,0.66078,0.65039,11.03
7.704,0.25243,0.55523,0.48039,0.64118,0.6543,10.834
7.712,0.24854,0.55621,0.5098,0.62941,0.60547,10.717
7.72,0.24466,0.55718,0.4451,0.65098,0.64062,10.639
7.728,0.24272,0.55816,0.46078,0.64118,0.63477,10.561
7.736,0.23883,0.55816,0.44902,0.6451,0.64062,10.443
7.744,0.23495,0.55816,0.42549,0.66471,0.68945,10.248
7.752,0.23107,0.55816,0.4549,0.61961,0.61914,9.8175
7.76,0.22913,0.55816,0.46471,0.6098,0.60938,9.2699
7.768,0.22524,0.55718,0.43922,0.66078,0.66992,8.5267
7.776,0.2233,0.55523,0.41961,0.62941,0.625,7.588
7.784,0.22136,0.55327,0.41569,0.6451,0.65039,6.4928
7.792,0.21942,0.55034,0.46078,0.61569,0.61914,5.4368
7.8,0.21748,0.54741,0.49412,0.6451,0.60938,4.498
7.808,0.21553,0.5435,0.4,0.66078,0.66992,3.7549
7.816,0.21359,0.54057,0.41961,0.6549,0.66406,3.2073
7.824,0.21359,0.53666,0.40392,0.68627,0.71484,2.8944
7.832,0.21165,0.53275,0.43922,0.62941,0.61523,2.777
7.84,0.21165,0.52981,0.47451,0.6451,0.59961,2.777
7.848,0.21165,0.52786,0.51569,0.66471,0.60547,2.8162
7.856,0.21165,0.5259,0.46471,0.66078,0.61523,2.8162
7.864,0.21165,0.5259,0.46078,0.68039,0.625,2.8162
7.872,0.21165,0.52786,0.51569,0.66078,0.57422,2.8162
7.88,0.21359,0.53275,0.57059,0.62549,0.55078,2.8944
7.888,0.21359,0.54154,0.58431,0.6098,0.54492,2.8944
7.896,0.21553,0.55327,0.5451,0.60588,0.55469,2.8944
7.904,0.21748,0.56794,0.53529,0.58039,0.57031,3.0117
7.912,0.21942,0.58456,0.48431,0.61961,0.60938,3.2073
7.92,0.22136,0.60313,0.48431,0.61569,0.61523,3.2464
7.928,0.22524,0.61975,0.42941,0.63529,0.66016,3.2464
7.936,0.22718,0.63441,0.43922,0.62549,0.64453,3.2464
7.944,0.23107,0.652,0.42549,0.63529,0.66992,3.3246
7.952,0.23301,0.67058,0.4451,0.68039,0.68555,3.442
7.96,0.23689,0.68915,0.42941,0.70588,0.69531,3.7549
7.968,0.24272,0.71554,0.5549,0.72157,0.56055,4.146
7.976,0.2466,0.74389,0.82549,0.6451,0.25,4.5763
7.984,0.25243,0.7654,1.0118,0.39412,-0.044922,5.0847
7.992,0.25825,0.78201,0.92157,0.2902,-0.048828,5.6323
8,0.26408,0.7957,0.7549,0.32353,0.375,6.2581
8.008,0.27184,0.80645,0.69608,0.19412,0.43555,6.9622
8.016,0.27961,0.81525,0.61961,0.35882,0.56055,7.7053
8.024,0.28544,0.82014,0.50588,0.53529,0.61523,8.3311
8.032,0.2932,0.82307,0.4451,0.61569,0.6543,8.6832
8.04,0.29903,0.826,0.48039,0.62941,0.66406,8.7614
8.048,0.30485,0.82698,0.50588,0.65098,0.66992,8.2529
8.056,0.31456,0.82796,0.46078,0.6451,0.6543,7.3924
8.064,0.32233,0.82893,0.52941,0.6451,0.62891,6.3755
8.072,0.33398,0.82893,0.55098,0.63529,0.61523,5.7497
8.08,0.34369,0.82796,0.5549,0.62941,0.625,5.7497
8.088,0.35534,0.82796,0.52941,0.6451,0.60547,6.4537
8.096,0.36699,0.82698,0.55098,0.63529,0.625,7.6271
8.104,0.37864,0.826,0.57059,0.6549,0.60547,8.957
8.112,0.39029,0.82405,0.60588,0.65098,0.61523,10.13
8.12,0.4,0.82209,0.6098,0.63529,0.57422,10.952
8.128,0.40971,0.81916,0.61569,0.68627,0.65039,11.265
8.136,0.41942,0.81525,0.63529,0.6098,0.52539,11.03
8.144,0.42718,0.81134,0.65098,0.59608,0.5,10.326
8.152,0.43689,0.80743,0.67647,0.61569,0.51953,9.309
8.16,0.44854,0.80254,0.68627,0.6,0.47461,8.2138
8.168,0.45825,0.79668,0.71569,0.61569,0.4707,7.3142
8.176,0.46796,0.79081,0.72157,0.65098,0.52539,6.884
8.184,0.47767,0.78397,0.7451,0.6,0.42969,6.8057
8.192,0.48738,0.77713,0.7549,0.6098,0.44531,6.7666
8.2,0.49515,0.76931,0.76667,0.6098,0.42969,6.571
8.208,0.50291,0.76051,0.76667,0.63529,0.47461,6.3364
8.216,0.51068,0.74976,0.77059,0.61569,0.44922,5.9452
8.224,0.52039,0.73998,0.77059,0.55098,0.375,5.7106
8.232,0.52816,0.72923,0.8,0.5451,0.39062,5.515
8.24,0.53592,0.7175,0.80588,0.57059,0.44922,5.6323
8.248,0.54175,0.70479,0.8,0.53922,0.39453,6.0626
8.256,0.54951,0.69404,0.7902,0.53529,0.4043,6.7666
8.264,0.55534,0.68328,0.77059,0.57059,0.44922,7.4315
8.272,0.56311,0.67449,0.73529,0.6,0.51953,8.0574
8.28,0.56699,0.66764,0.71569,0.58039,0.52539,8.5658
8.288,0.57282,0.6608,0.66471,0.57059,0.49414,8.957
8.296,0.5767,0.65494,0.64118,0.6,0.55469,9.309
8.304,0.58058,0.64907,0.61569,0.66471,0.66406,9.7783
8.312,0.58447,0.64321,0.60588,0.58431,0.54492,10.209
8.32,0.58641,0.63832,0.59608,0.60588,0.58008,10.756
8.328,0.58641,0.63245,0.60588,0.59608,0.56445,11.382
8.336,0.58835,0.62757,0.56471,0.61569,0.5957,12.086
8.344,0.58835,0.6217,0.55098,0.6098,0.60547,12.751
8.352,0.58835,0.61486,0.53922,0.63529,0.64062,13.338
8.36,0.58641,0.60899,0.53529,0.62941,0.61914,13.885
8.368,0.58641,0.60117,0.53922,0.6451,0.64062,14.394
8.376,0.58447,0.59433,0.53529,0.6098,0.58398,14.902
8.384,0.58252,0.58651,0.57451,0.6451,0.64062,15.254
8.392,0.57864,0.57967,0.56078,0.6,0.56445,15.567
8.4,0.57476,0.57283,0.5451,0.64118,0.61914,15.841
8.408,0.57087,0.56696,0.53529,0.6451,0.62891,15.997
8.416,0.56699,0.56109,0.53922,0.6098,0.58984,16.193
8.424,0.56117,0.55718,0.55098,0.60588,0.57422,16.271
8.432,0.55534,0.55425,0.52549,0.61961,0.5957,16.076
8.44,0.55146,0.55034,0.5098,0.61569,0.59961,15.763
8.448,0.54563,0.54741,0.5,0.62549,0.60938,15.254
8.456,0.54175,0.54252,0.48431,0.62941,0.625,14.824
8.464,0.53786,0.53763,0.48039,0.64118,0.64062,14.276
8.472,0.53204,0.53177,0.46078,0.6451,0.65039,13.69
8.48,0.52816,0.52493,0.44902,0.65098,0.65039,13.064
8.488,0.52233,0.51613,0.43922,0.6549,0.66016,12.516
8.496,0.51845,0.50733,0.43922,0.64118,0.65039,12.125
8.504,0.51262,0.49756,0.41961,0.6549,0.66406,11.812
8.512,0.50874,0.4868,0.4098,0.6549,0.67578,11.656
8.52,0.5068,0.47605,0.38431,0.67059,0.69531,11.46
8.528,0.50291,0.46628,0.38039,0.68039,0.70898,11.147
8.536,0.49903,0.45846,0.38431,0.68039,0.70508,10.717
8.544,0.49515,0.44868,0.39412,0.66471,0.66992,10.209
8.552,0.4932,0.44086,0.41569,0.68627,0.66406,9.7783
8.56,0.48932,0.43304,0.42941,0.7098,0.68555,9.4654
8.568,0.48544,0.42815,0.42549,0.72157,0.70508,9.309
8.576,0.48155,0.42424,0.44902,0.66471,0.625,9.3872
8.584,0.47573,0.42229,0.46078,0.62941,0.58398,9.5046
8.592,0.47184,0.42326,0.47451,0.6098,0.58984,9.8175
8.6,0.46796,0.42424,0.48431,0.6,0.5957,10.13
8.608,0.46408,0.42717,0.4549,0.60588,0.61914,10.443
8.616,0.45825,0.43011,0.42941,0.64118,0.66992,10.561
8.624,0.45437,0.43304,0.3902,0.6549,0.69531,10.717
8.632,0.44854,0.43695,0.38039,0.63529,0.67969,10.834
8.64,0.44272,0.43988,0.37059,0.6451,0.69922,11.069
8.648,0.43689,0.44282,0.38039,0.64118,0.68945,11.46
8.656,0.42913,0.44477,0.3549,0.73137,0.75391,11.89
8.664,0.4233,0.44575,0.42941,0.73529,0.67578,12.399
8.672,0.41553,0.44575,0.55098,0.7098,0.51562,12.947
8.68,0.40777,0.44477,0.82549,0.63529,0.18945,13.572
8.688,0.40194,0.44379,0.94118,0.3451,-0.044922,14.081
8.696,0.39417,0.44184,0.80588,0.27451,0.17578,14.433
8.704,0.38641,0.43891,0.69608,0.17843,0.40039,14.707
8.712,0.3767,0.43597,0.61569,0.13922,0.49023,14.746
8.72,0.36893,0.43206,0.50588,0.41961,0.61914,14.902
8.728,0.35922,0.42913,0.42549,0.58431,0.67578,15.059
8.736,0.34951,0.4262,0.4,0.6549,0.73047,15.254
8.744,0.33981,0.42131,0.3902,0.6549,0.70508,15.45
8.752,0.33204,0.41642,0.37451,0.68039,0.73438,15.567
8.76,0.32233,0.41056,0.37059,0.68627,0.74414,15.763
8.768,0.31456,0.40469,0.38431,0.6549,0.67969,15.958
8.776,0.3068,0.39883,0.39412,0.68039,0.69922,16.076
8.784,0.30097,0.39296,0.4,0.68627,0.70898,16.154
8.792,0.2932,0.3871,0.4,0.68039,0.69922,16.271
8.8,0.28738,0.38221,0.40392,0.7098,0.72461,16.389
8.808,0.27961,0.37634,0.3902,0.72549,0.75,16.467
8.816,0.27379,0.37146,0.4,0.68627,0.68945,16.389
8.824,0.26796,0.36657,0.3451,0.70588,0.76953,16.154
8.832,0.26214,0.36364,0.38039,0.6902,0.70508,15.645
8.84,0.25631,0.35875,0.3902,0.70588,0.69922,15.059
8.848,0.25049,0.35288,0.40392,0.7,0.67578,14.628
8.856,0.2466,0.34702,0.42549,0.68627,0.64062,14.511
8.864,0.24078,0.34115,0.43922,0.7,0.64062,14.707
8.872,0.23495,0.33529,0.44902,0.70588,0.64062,14.902
8.88,0.22913,0.32942,0.46078,0.7098,0.625,14.902
8.888,0.2233,0.32356,0.47059,0.69608,0.58398,14.707
8.896,0.21748,0.31867,0.48431,0.72157,0.61523,14.315
8.904,0.20971,0.31378,0.4902,0.75098,0.66016,13.885
8.912,0.20388,0.30987,0.49412,0.67647,0.53906,13.259
8.92,0.19806,0.30596,0.50588,0.65098,0.50586,12.516
8.928,0.19223,0.30401,0.5,0.68039,0.56445,11.773
8.936,0.18447,0.30303,0.49412,0.66078,0.57031,11.186
8.944,0.17864,0.30108,0.5,0.65098,0.54492,10.952
8.952,0.17282,0.3001,0.48039,0.66078,0.58398,11.069
8.96,0.16505,0.29912,0.46471,0.66471,0.60938,11.499
8.968,0.15922,0.29814,0.46078,0.65098,0.59961,12.203
8.976,0.15146,0.29717,0.43922,0.63529,0.5957,12.829
8.984,0.14563,0.29619,0.42549,0.66471,0.64062,13.338
8.992,0.13981,0.29521,0.41569,0.67647,0.66406,13.572
9,0.13204,0.29326,0.4,0.66078,0.66992,13.651
9.008,0.12621,0.2913,0.39412,0.64118,0.64062,13.572
9.016,0.12039,0.29032,0.3902,0.67059,0.67969,13.494
9.024,0.11262,0.29032,0.37451,0.7,0.72461,13.69
9.032,0.1068,0.2913,0.3902,0.6451,0.65039,14.081
9.04,0.099029,0.29326,0.3902,0.63529,0.63477,14.589
9.048,0.093204,0.29717,0.3902,0.67059,0.67578,15.02
9.056,0.087379,0.30303,0.3902,0.6549,0.65039,15.45
9.064,0.081553,0.31085,0.3902,0.71569,0.74023,15.684
9.072,0.075728,0.32063,0.4,0.6451,0.63477,15.88
9.08,0.069903,0.33236,0.39412,0.68627,0.68555,15.958
9.088,0.066019,0.34409,0.4,0.6549,0.64453,15.958
9.096,0.062136,0.35582,0.4098,0.67647,0.66992,15.88
9.104,0.058252,0.36657,0.4098,0.66078,0.66016,15.841
9.112,0.056311,0.37537,0.41569,0.66078,0.66406,15.684
9.12,0.052427,0.38123,0.41569,0.65098,0.64453,15.645
9.128,0.050485,0.38416,0.4098,0.67059,0.67578,15.45
9.136,0.048544,0.38612,0.41569,0.65098,0.66016,15.332
9.144,0.046602,0.38416,0.41961,0.62549,0.61914,15.254
9.152,0.04466,0.38025,0.41569,0.64118,0.65039,15.215
9.16,0.042718,0.37439,0.41569,0.67059,0.68945,15.137
9.168,0.040777,0.36755,0.41569,0.64118,0.64453,15.059
9.176,0.040777,0.3607,0.41569,0.62549,0.625,14.902
9.184,0.038835,0.35484,0.41569,0.65098,0.6543,14.707
9.192,0.038835,0.34995,0.4098,0.66078,0.67969,14.511
9.2,0.038835,0.34702,0.41569,0.6451,0.64453,14.315
9.208,0.040777,0.34604,0.41569,0.6549,0.66406,14.12
9.216,0.040777,0.34604,0.41569,0.63529,0.65039,13.963
9.224,0.040777,0.34897,0.41569,0.6549,0.66406,13.768
9.232,0.042718,0.35288,0.41961,0.6451,0.65039,13.494
9.24,0.042718,0.35679,0.41961,0.62941,0.61914,13.181
9.248,0.04466,0.36168,0.42941,0.67647,0.66016,12.907
9.256,0.04466,0.36755,0.4451,0.66078,0.62891,12.751
9.264,0.04466,0.37439,0.48039,0.6549,0.60547,12.751
9.272,0.04466,0.38221,0.48431,0.67647,0.61523,12.829
9.28,0.046602,0.39296,0.5,0.64118,0.57422,12.947
9.288,0.046602,0.40567,0.5098,0.60588,0.53906,13.142
9.296,0.046602,0.42033,0.51961,0.5902,0.53516,13.259
9.304,0.04466,0.435,0.50588,0.6098,0.59961,13.377
9.312,0.04466,0.45161,0.48039,0.56471,0.56445,13.494
9.32,0.04466,0.46628,0.4549,0.58431,0.58984,13.651
9.328,0.042718,0.47996,0.43922,0.6098,0.62891,13.69
9.336,0.040777,0.48974,0.4098,0.64118,0.68945,13.885
9.344,0.040777,0.49951,0.4,0.62941,0.69531,14.003
9.352,0.038835,0.50635,0.40392,0.65098,0.66992,14.081
9.36,0.036893,0.51026,0.37451,0.66078,0.68945,14.12
9.368,0.034951,0.51222,0.4098,0.68039,0.66406,14.198
9.376,0.031068,0.5132,0.53529,0.73529,0.58008,14.315
9.384,0.029126,0.51222,0.77647,0.7451,0.25586,14.511
9.392,0.025243,0.51026,0.97059,0.4,-0.070312,14.824
9.4,0.023301,0.50831,0.86667,0.21373,-0.083984,15.254
9.408,0.021359,0.5044,0.73137,0.12941,0.33594,15.841
9.416,0.019417,0.50049,0.6451,0.094118,0.43945,16.389
9.424,0.017476,0.49658,0.53922,0.30392,0.51562,16.897
9.432,0.015534,0.49267,0.44902,0.52941,0.60938,17.21
9.44,0.013592,0.48778,0.37451,0.67647,0.76562,17.249
9.448,0.01165,0.48192,0.36471,0.68627,0.76953,17.093
9.456,0.0097087,0.47605,0.3451,0.62941,0.66406,16.506
9.464,0.007767,0.47116,0.32353,0.68039,0.70898,15.684
9.472,0.0058252,0.4653,0.32353,0.6902,0.70508,14.824
9.48,0.0058252,0.46041,0.33529,0.70588,0.73438,14.12
9.488,0.0038835,0.45552,0.33529,0.7098,0.74023,13.69
9.496,0.0038835,0.44966,0.32941,0.68627,0.70508,13.651
9.504,0.0038835,0.44379,0.3451,0.68039,0.68945,13.885
9.512,0.0038835,0.43695,0.35882,0.7098,0.73047,14.276
9.52,0.0038835,0.43011,0.36471,0.72157,0.73438,14.707
9.528,0.0038835,0.42424,0.34902,0.6902,0.67969,14.941
9.536,0.0038835,0.41838,0.3902,0.68627,0.6543,14.941
9.544,0.0038835,0.41153,0.37451,0.7,0.66406,14.628
9.552,0.0038835,0.40371,0.38431,0.72157,0.68945,14.003
9.56,0.0058252,0.39589,0.3902,0.73137,0.70508,13.142
9.568,0.0058252,0.38807,0.40392,0.7098,0.6543,12.086
9.576,0.0058252,0.38123,0.41569,0.70588,0.64453,11.069
9.584,0.007767,0.37439,0.44902,0.68627,0.58984,10.209
9.592,0.007767,0.36755,0.46078,0.7,0.58398,9.3872
9.6,0.0097087,0.3607,0.4902,0.7,0.57031,8.957
9.608,0.0097087,0.35484,0.48431,0.72157,0.5957,8.9961
9.616,0.0097087,0.34995,0.47451,0.68627,0.54492,9.3872
9.624,0.0097087,0.34604,0.46078,0.7,0.56445,9.7783
9.632,0.01165,0.34506,0.4902,0.70588,0.57422,10.013
9.64,0.01165,0.34213,0.5098,0.67059,0.55469,10.13
9.648,0.01165,0.34018,0.53529,0.66078,0.56445,10.13
9.656,0.01165,0.33724,0.5,0.6451,0.53906,10.013
9.664,0.01165,0.33431,0.48431,0.66078,0.58008,9.8175
9.672,0.01165,0.3304,0.4549,0.6451,0.57031,9.7783
9.68,0.01165,0.32551,0.4451,0.6549,0.60938,9.7001
9.688,0.013592,0.32063,0.4549,0.6098,0.57031,9.7001
9.696,0.013592,0.31378,0.43922,0.64118,0.625,9.7001
9.704,0.013592,0.30596,0.43529,0.65098,0.64062,9.7783
9.712,0.015534,0.29912,0.41961,0.64118,0.6543,9.8957
9.72,0.015534,0.2913,0.41569,0.67059,0.67578,9.9348
9.728,0.017476,0.28543,0.41961,0.6451,0.66406,9.8957
9.736,0.017476,0.28152,0.4451,0.62941,0.62891,9.8175
9.744,0.017476,0.27664,0.41569,0.65098,0.6543,9.8175
9.752,0.017476,0.27077,0.4098,0.67647,0.68555,9.9348
9.76,0.017476,0.26588,0.40392,0.6451,0.64453,10.13
9.768,0.015534,0.261,0.42549,0.63529,0.64062,10.326
9.776,0.015534,0.25611,0.4098,0.67059,0.67969,10.443
9.784,0.015534,0.25122,0.43529,0.6549,0.66016,10.443
9.792,0.013592,0.24536,0.47059,0.63529,0.63477,10.248
9.8,0.01165,0.23949,0.42549,0.67059,0.66992,10.013
9.808,0.01165,0.23363,0.42549,0.68039,0.68555,9.7783
9.816,0.0097087,0.22678,0.4549,0.6098,0.60938,9.5046
9.824,0.007767,0.22287,0.46078,0.62941,0.625,9.4654
9.832,0.0058252,0.21896,0.41569,0.66078,0.66992,9.5046
9.84,0.0038835,0.21212,0.43529,0.66471,0.67578,9.7001
9.848,0.0019417,0.2043,0.43922,0.6549,0.66016,9.7783
9.856,0.0019417,0.1955,0.42549,0.6451,0.66406,9.5828
9.864,0,0.18573,0.43529,0.64118,0.66406,9.1525
9.872,0,0.17498,0.42941,0.6549,0.66992,8.5267
9.88,-0.0019417,0.16422,0.4549,0.62941,0.62891,7.7444
9.888,-0.0019417,0.15249,0.42549,0.6549,0.66016,6.884
9.896,-0.0019417,0.14076,0.4,0.64118,0.66992,5.867
9.904,-0.0019417,0.13099,0.47059,0.6098,0.61523,5.0065
9.912,-0.0019417,0.12317,0.47451,0.64118,0.64062,4.3807
9.92,0,0.12023,0.42549,0.6549,0.66406,4.0287
9.928,0.0019417,0.12121,0.44902,0.65098,0.66016,3.8722
9.936,0.0038835,0.12414,0.4549,0.6549,0.66406,3.7549
9.944,0.007767,0.13001,0.47059,0.60588,0.60938,3.7158
9.952,0.0097087,0.13881,0.46078,0.64118,0.62891,3.6375
9.96,0.01165,0.15152,0.4902,0.6549,0.60938,3.6375
9.968,0.015534,0.16618,0.50588,0.67059,0.60547,3.5593
9.976,0.017476,0.18377,0.4902,0.66471,0.61523,3.5593
9.984,0.021359,0.20332,0.51569,0.6549,0.60547,3.7158
9.992,0.027184,0.22385,0.52941,0.68039,0.5957,3.8331
10,0.031068,0.24633,0.5549,0.68627,0.66016,3.9505
10.008,0.036893,0.26882,0.57451,0.56078,0.51562,4.0287
10.016,0.040777,0.30987,0.50588,0.56471,0.55078,4.0678
10.024,0.046602,0.35679,0.47059,0.6,0.59961,4.0678
10.032,0.052427,0.3871,0.48431,0.61569,0.61914,4.146
10.04,0.058252,0.40958,0.43922,0.6098,0.64062,4.1851
10.048,0.062136,0.42815,0.41961,0.61569,0.62891,4.3416
10.056,0.067961,0.44379,0.49412,0.6451,0.66406,4.498
10.064,0.073786,0.45748,0.40392,0.67059,0.66992,4.7718
10.072,0.07767,0.47019,0.39412,0.7,0.67969,4.9674
10.08,0.083495,0.48192,0.5549,0.72157,0.58398,5.1239
10.088,0.087379,0.49267,0.76078,0.74118,0.29492,5.3194
10.096,0.093204,0.50244,0.99216,0.37059,-0.089844,5.7497
10.104,0.097087,0.51026,1.0059,0.25882,-0.125,6.3755
10.112,0.10291,0.51711,0.79608,0.30392,0.35547,7.1186
10.12,0.1068,0.52199,0.6549,0.19412,0.43945,8.0182
10.128,0.11262,0.5259,0.55098,0.3451,0.57031,8.7614
10.136,0.11845,0.52786,0.47451,0.53529,0.64453,9.309
10.144,0.12233,0.52981,0.41569,0.6098,0.66406,9.7001
10.152,0.12816,0.52981,0.41961,0.62549,0.66016,9.6219
10.16,0.13398,0.52884,0.41569,0.65098,0.69531,8.9961
10.168,0.14175,0.52688,0.37059,0.7098,0.75,7.94
10.176,0.14757,0.52493,0.34902,0.68039,0.75977,6.7666
10.184,0.15534,0.52199,0.37451,0.66471,0.68945,5.9452
10.192,0.16311,0.51906,0.38039,0.66078,0.68945,5.8279
10.2,0.16893,0.51515,0.3902,0.68627,0.67969,6.3755
10.208,0.1767,0.51124,0.30392,0.70588,0.73438,7.4315
10.216,0.18252,0.50733,0.31961,0.69608,0.72461,8.7614
10.224,0.18835,0.5044,0.30392,0.70588,0.73047,9.8957
10.232,0.19612,0.50147,0.30392,0.7,0.69922,10.561
10.24,0.20388,0.49853,0.2902,0.7451,0.75977,10.756
10.248,0.21165,0.49462,0.33922,0.67647,0.67578,10.443
10.256,0.21942,0.49071,0.3098,0.7,0.69531,9.7001
10.264,0.22913,0.4868,0.33922,0.70588,0.67969,8.6441
10.272,0.23689,0.48192,0.31961,0.7451,0.7207,7.5098
10.28,0.24466,0.47801,0.33922,0.7098,0.6543,6.6493
10.288,0.25243,0.47312,0.3549,0.73137,0.66992,6.0626
10.296,0.26019,0.46823,0.4,0.69608,0.60938,5.7497
10.304,0.26796,0.46334,0.40392,0.71569,0.625,5.4368
10.312,0.27767,0.45846,0.39412,0.70588,0.5957,5.2021
10.32,0.28544,0.45455,0.43529,0.6902,0.60547,4.9674
10.328,0.29515,0.45161,0.47451,0.66078,0.54492,4.6936
10.336,0.30485,0.4477,0.46078,0.67059,0.54492,4.4589
10.344,0.31262,0.44477,0.48039,0.6549,0.55078,4.3807
10.352,0.32233,0.44086,0.4902,0.6451,0.5293,4.498
10.36,0.33204,0.43695,0.46471,0.66078,0.58398,4.8892
10.368,0.33981,0.43402,0.4549,0.67059,0.60938,5.3976
10.376,0.34757,0.43109,0.4451,0.68039,0.64062,5.867
10.384,0.35534,0.42913,0.44902,0.63529,0.57031,6.3364
10.392,0.36311,0.4262,0.43922,0.6451,0.59961,6.6884
10.4,0.36893,0.42326,0.43529,0.63529,0.59961,6.9622
10.408,0.3767,0.42033,0.42549,0.65098,0.625,7.2751
10.416,0.38447,0.4174,0.43922,0.65098,0.63477,7.6271
10.424,0.39029,0.41544,0.42941,0.67059,0.67969,8.0574
10.432,0.39612,0.41349,0.4098,0.68039,0.68555,8.6441
10.44,0.40194,0.41153,0.4098,0.63529,0.62891,9.309
10.448,0.40777,0.4086,0.41961,0.6451,0.625,10.013
10.456,0.41165,0.40567,0.40392,0.66078,0.66406,10.756
10.464,0.41748,0.40371,0.39412,0.69608,0.70898,11.46
10.472,0.42136,0.40078,0.41569,0.63529,0.62891,12.086
10.48,0.42524,0.39883,0.43922,0.62941,0.61523,12.712
10.488,0.42913,0.39687,0.46078,0.67647,0.67578,13.259
10.496,0.43107,0.39492,0.47059,0.63529,0.60938,13.768
10.504,0.43495,0.39492,0.43922,0.65098,0.62891,14.198
10.512,0.43689,0.39589,0.4451,0.6549,0.63477,14.511
10.52,0.43883,0.39785,0.4549,0.63529,0.61914,14.902
10.528,0.44272,0.3998,0.46078,0.63529,0.61914,15.137
10.536,0.44272,0.39785,0.47059,0.64118,0.61523,15.332
10.544,0.44466,0.38905,0.4902,0.6451,0.62891,15.332
10.552,0.44466,0.37341,0.5,0.62941,0.61523,15.059
10.56,0.4466,0.35582,0.50588,0.6,0.57422,14.707
10.568,0.4466,0.34995,0.5098,0.6098,0.5957,14.12
10.576,0.4466,0.37341,0.51569,0.62941,0.61914,13.455
10.584,0.4466,0.44282,0.48431,0.64118,0.63477,12.712
10.592,0.4466,0.56598,0.4902,0.5902,0.57031,11.89
10.6,0.4466,0.73021,0.49412,0.63529,0.625,11.147
10.608,0.4466,0.8651,0.51569,0.6,0.58008,10.521
10.616,0.44466,0.93255,0.51569,0.6098,0.59961,10.013
10.624,0.44272,0.96676,0.53529,0.5902,0.58008,9.5828
10.632,0.44078,0.98338,0.53922,0.61569,0.59961,9.1525
10.64,0.43883,0.99218,0.5098,0.60588,0.5957,8.6832
10.648,0.43495,0.99609,0.5451,0.6098,0.58984,8.2138
10.656,0.43107,0.99804,0.53529,0.62549,0.61914,7.8227
10.664,0.42718,0.99902,0.55098,0.62941,0.55078,7.5098
10.672,0.4233,1,0.57451,0.59608,0.52539,7.4315
10.68,0.41942,1,0.6,0.6098,0.51562,7.5098
10.688,0.41553,1,0.59608,0.62549,0.54492,7.7444
10.696,0.41165,1,0.62941,0.6098,0.51953,8.1356
10.704,0.40583,1,0.63529,0.5902,0.52539,8.5658
10.712,0.40194,1,0.62549,0.57451,0.51562,8.8787
10.72,0.39806,1,0.62941,0.55098,0.52539,9.1525
10.728,0.39417,1,0.60588,0.51961,0.48438,9.3872
10.736,0.38835,1,0.58431,0.57451,0.56055,9.6219
10.744,0.38447,1,0.58039,0.5902,0.58984,10.013
10.752,0.38058,1,0.5549,0.56078,0.54492,10.443
10.76,0.37476,1,0.5451,0.57451,0.57422,10.874
10.768,0.37087,1,0.52549,0.59608,0.59961,11.265
10.776,0.36505,1,0.5,0.65098,0.5957,11.499
10.784,0.36117,1,0.56078,0.67059,0.625,11.812
10.792,0.35534,1,0.69608,0.6549,0.4043,12.203
10.8,0.34951,1,0.97647,0.55098,0.070312,12.712
10.808,0.34369,1,1.102,0.26471,-0.16992,13.455
10.816,0.33786,1,0.94118,0.21961,0.095703,14.276
10.824,0.3301,1,0.82549,0.12353,0.2793,15.137
10.832,0.32233,1,0.73137,0.11373,0.43945,15.841
10.84,0.3165,1,0.62549,0.3549,0.50586,16.193
10.848,0.30874,1,0.56471,0.51569,0.54492,16.389
10.856,0.30291,1,0.51569,0.58431,0.59961,16.584
10.864,0.29515,1,0.49412,0.62941,0.65039,16.701
10.872,0.28738,1,0.48039,0.6451,0.67578,16.897
10.88,0.28155,1,0.48431,0.66078,0.67969,17.093
10.888,0.27184,0.99902,0.4902,0.6098,0.60938,17.132
10.896,0.26408,0.99316,0.49412,0.6451,0.64062,17.249
10.904,0.25825,0.98338,0.48039,0.66078,0.66992,17.405
10.912,0.25049,0.97263,0.47451,0.62941,0.61523,17.445
10.92,0.24466,0.95992,0.5,0.61569,0.58984,17.562
10.928,0.23883,0.94721,0.5098,0.65098,0.62891,17.64
10.936,0.23107,0.93451,0.49412,0.66078,0.64062,17.718
10.944,0.22524,0.9218,0.48431,0.65098,0.61523,17.757
10.952,0.21942,0.90909,0.49412,0.6451,0.60938,17.836
10.96,0.21165,0.89736,0.5,0.64118,0.61914,17.953
10.968,0.20583,0.88661,0.5,0.68627,0.64453,18.149
10.976,0.19806,0.87586,0.52549,0.65098,0.58008,18.266
10.984,0.19029,0.86608,0.5451,0.6549,0.53906,18.383
10.992,0.18447,0.85728,0.5451,0.64118,0.5293,18.501
11,0.17864,0.84946,0.5451,0.68039,0.57422,18.501
11.008,0.17282,0.84164,0.55098,0.6549,0.53906,18.579
11.016,0.16699,0.8348,0.5549,0.66078,0.5293,18.657
11.024,0.16117,0.82796,0.56471,0.64118,0.5,18.696
11.032,0.15534,0.82014,0.58039,0.6549,0.52539,18.814
11.04,0.14951,0.81329,0.5902,0.63529,0.49023,18.97
11.048,0.14563,0.80743,0.58431,0.62941,0.5,19.087
11.056,0.13981,0.80059,0.58431,0.63529,0.49414,19.283
11.064,0.13398,0.79374,0.58039,0.61569,0.51562,19.4
11.072,0.1301,0.78592,0.5549,0.58431,0.48438,19.439
11.08,0.12621,0.77908,0.5451,0.6,0.48047,19.596
11.088,0.12233,0.77224,0.53529,0.62941,0.57031,19.713
11.096,0.11845,0.76442,0.52549,0.61569,0.56445,19.909
11.104,0.11456,0.75758,0.5098,0.6,0.55469,20.026
11.112,0.11068,0.74976,0.5098,0.6098,0.58008,20.065
11.12,0.1068,0.74291,0.48431,0.62941,0.61523,20.222
11.128,0.10291,0.73607,0.48039,0.6451,0.62891,20.222
11.136,0.10097,0.72825,0.48039,0.6098,0.58984,19.909
11.144,0.097087,0.72141,0.46471,0.62549,0.61523,18.892
11.152,0.093204,0.71457,0.46471,0.62941,0.61914,17.132
11.16,0.091262,0.70674,0.46471,0.64118,0.63477,14.902
11.168,0.08932,0.6999,0.47059,0.62941,0.61914,13.064
11.176,0.087379,0.69306,0.47451,0.61961,0.60547,12.203
11.184,0.085437,0.68719,0.48039,0.65098,0.63477,12.595
11.192,0.081553,0.68035,0.48039,0.63529,0.64062,13.807
11.2,0.079612,0.67546,0.48431,0.61961,0.60547,15.45
11.208,0.075728,0.67058,0.48431,0.6098,0.58984,16.78
11.216,0.073786,0.66667,0.4902,0.62549,0.60938,17.405
11.224,0.069903,0.66373,0.4902,0.6098,0.58984,17.21
11.232,0.067961,0.6608,0.48431,0.6549,0.66016,16.467
11.24,0.066019,0.65982,0.4902,0.60588,0.58984,15.528
11.248,0.064078,0.65885,0.4902,0.61569,0.59961,14.746
11.256,0.060194,0.65787,0.48431,0.63529,0.63477,14.433
11.264,0.058252,0.65787,0.4902,0.61961,0.60938,14.589
11.272,0.052427,0.65885,0.48431,0.63529,0.625,14.941
11.28,0.048544,0.65982,0.48431,0.61569,0.60547,15.254
11.288,0.04466,0.6608,0.47451,0.62941,0.62891,15.372
11.296,0.040777,0.66276,0.48431,0.5902,0.57031,15.215
11.304,0.034951,0.66569,0.48039,0.61569,0.61523,14.707
11.312,0.031068,0.66764,0.48039,0.63529,0.63477,14.198
11.32,0.027184,0.6696,0.47059,0.6098,0.61523,13.768
11.328,0.023301,0.67155,0.47059,0.61569,0.60938,13.572
11.336,0.021359,0.67449,0.47451,0.61961,0.61523,13.494
11.344,0.017476,0.67742,0.47451,0.62941,0.59961,13.494
11.352,0.015534,0.68035,0.48039,0.60588,0.62891,13.455
11.36,0.01165,0.68524,0.47451,0.5902,0.58008,13.181
11.368,0.007767,0.69013,0.48039,0.62941,0.61914,12.907
11.376,0.0058252,0.69599,0.48431,0.63529,0.62891,12.634
11.384,0.0019417,0.70283,0.50588,0.62549,0.58984,12.516
11.392,0,0.71163,0.52941,0.63529,0.57031,12.516
11.4,-0.0019417,0.72043,0.53922,0.61961,0.53906,12.634
11.408,-0.0038835,0.73118,0.55098,0.6098,0.54492,12.712
11.416,-0.0058252,0.74194,0.57059,0.62549,0.55078,12.829
11.424,-0.007767,0.75073,0.57451,0.58431,0.53516,12.907
11.432,-0.007767,0.75953,0.58039,0.58039,0.54492,12.947
11.44,-0.0097087,0.77028,0.5549,0.56078,0.53906,13.064
11.448,-0.0097087,0.78104,0.52941,0.5549,0.5293,13.142
11.456,-0.01165,0.79179,0.49412,0.60588,0.61523,13.259
11.464,-0.01165,0.80254,0.47451,0.59608,0.60938,13.455
11.472,-0.013592,0.81134,0.46078,0.60588,0.625,13.572
11.48,-0.015534,0.82014,0.46471,0.6,0.61523,13.768
11.488,-0.015534,0.82698,0.43922,0.6549,0.66992,13.885
11.496,-0.015534,0.83382,0.42549,0.66471,0.64453,14.003
11.504,-0.017476,0.83969,0.55098,0.66078,0.58008,14.12
11.512,-0.017476,0.84457,0.76667,0.72157,0.27539,14.315
11.52,-0.019417,0.84751,1.0118,0.43529,-0.074219,14.589
11.528,-0.019417,0.84848,1.0314,0.23333,-0.13867,14.902
11.536,-0.021359,0.85142,0.8,0.14902,0.2793,15.372
11.544,-0.021359,0.85337,0.74118,0.043137,0.31445,15.958
11.552,-0.021359,0.85533,0.62941,0.2549,0.4707,16.506
11.56,-0.023301,0.85728,0.56078,0.46471,0.54492,16.936
11.568,-0.023301,0.85826,0.48039,0.6098,0.6543,17.21
11.576,-0.025243,0.85924,0.46078,0.6098,0.62891,17.21
11.584,-0.025243,0.86022,0.4451,0.6451,0.67578,16.819
11.592,-0.027184,0.86022,0.44902,0.63529,0.64453,16.154
11.6,-0.029126,0.86119,0.4451,0.6549,0.66406,15.332
11.608,-0.031068,0.86119,0.43922,0.66078,0.66406,14.628
11.616,-0.03301,0.86217,0.43922,0.6902,0.68555,14.198
11.624,-0.034951,0.86119,0.43922,0.69608,0.68945,14.081
11.632,-0.036893,0.85924,0.4549,0.66078,0.62891,14.315
11.64,-0.038835,0.85924,0.4549,0.7,0.67969,14.746
11.648,-0.038835,0.85826,0.46078,0.6902,0.66016,15.254
11.656,-0.040777,0.85826,0.46078,0.66078,0.61523,15.645
11.664,-0.040777,0.85728,0.46471,0.68627,0.63477,15.841
11.672,-0.042718,0.85533,0.46078,0.68039,0.61523,15.684
11.68,-0.04466,0.85337,0.48431,0.68039,0.60938,15.215
11.688,-0.046602,0.85044,0.48431,0.7,0.63477,14.433
11.696,-0.048544,0.84751,0.49412,0.68039,0.59961,13.494
11.704,-0.050485,0.8436,0.50588,0.7098,0.61914,12.595
11.712,-0.050485,0.83969,0.5098,0.68039,0.57422,11.812
11.72,-0.052427,0.83578,0.52549,0.7098,0.58984,11.147
11.728,-0.052427,0.83187,0.53529,0.68627,0.54492,10.717
11.736,-0.054369,0.82796,0.53922,0.68039,0.51953,10.756
11.744,-0.056311,0.82502,0.5451,0.70588,0.53906,11.343
11.752,-0.058252,0.82307,0.55098,0.68039,0.51953,12.008
11.76,-0.060194,0.82111,0.55098,0.67059,0.52539,12.595
11.768,-0.062136,0.82014,0.5549,0.64118,0.5,12.947
11.776,-0.062136,0.81916,0.56078,0.66078,0.53516,13.181
11.784,-0.064078,0.81818,0.55098,0.66471,0.55078,13.259
11.792,-0.066019,0.81818,0.5451,0.61569,0.50977,13.338
11.8,-0.067961,0.8172,0.53529,0.62941,0.5293,13.338
11.808,-0.067961,0.81623,0.51961,0.61961,0.53516,13.377
11.816,-0.069903,0.81329,0.50588,0.65098,0.58398,13.377
11.824,-0.071845,0.81036,0.48431,0.66078,0.60938,13.338
11.832,-0.073786,0.80645,0.48431,0.65098,0.60547,13.377
11.84,-0.075728,0.80156,0.48039,0.64118,0.61523,13.455
11.848,-0.07767,0.79472,0.48431,0.61961,0.57422,13.651
11.856,-0.079612,0.7869,0.46471,0.63529,0.61914,13.963
11.864,-0.081553,0.77615,0.47059,0.65098,0.61523,14.198
11.872,-0.083495,0.76442,0.46471,0.6549,0.63477,14.394
11.88,-0.085437,0.75073,0.47451,0.62941,0.5957,14.511
11.888,-0.085437,0.73509,0.47059,0.62941,0.59961,14.589
11.896,-0.087379,0.71848,0.47451,0.6451,0.61523,14.628
11.904,-0.08932,0.6999,0.48039,0.6451,0.60938,14.746
11.912,-0.093204,0.68133,0.48431,0.65098,0.60938,14.902
11.92,-0.095146,0.66373,0.49412,0.64118,0.59961,15.02
11.928,-0.097087,0.64712,0.50588,0.63529,0.60547,15.059
11.936,-0.099029,0.62854,0.5098,0.6451,0.61523,15.059
11.944,-0.10097,0.60899,0.5,0.63529,0.60938,15.059
11.952,-0.10485,0.58944,0.49412,0.66078,0.64062,15.059
11.96,-0.10485,0.56891,0.49412,0.62941,0.5957,15.059
11.968,-0.1068,0.54839,0.48431,0.6451,0.61523,15.137
11.976,-0.10874,0.52786,0.49412,0.63529,0.61914,15.137
11.984,-0.10874,0.50733,0.5,0.62941,0.59961,15.137
11.992,-0.10874,0.48778,0.49412,0.63529,0.61914,15.02
12,-0.10874,0.46725,0.4902,0.65098,0.61523,14.824
12.008,-0.11068,0.4477,0.48431,0.6549,0.64453,14.628
12.016,-0.11068,0.43206,0.49412,0.6098,0.58398,14.433
12.024,-0.11068,0.4174,0.4902,0.6098,0.58984,14.198
12.032,-0.11068,0.40078,0.50588,0.63529,0.60547,13.807
12.04,-0.11068,0.38416,0.49412,0.6451,0.63477,13.377
12.048,-0.11068,0.36755,0.48431,0.61569,0.58398,12.947
12.056,-0.10874,0.35191,0.47451,0.62941,0.61523,12.595
12.064,-0.10874,0.31965,0.49412,0.63529,0.60938,12.321
12.072,-0.1068,0.28055,0.48039,0.62941,0.60938,12.282
12.08,-0.1068,0.26002,0.48431,0.63529,0.61523,12.399
12.088,-0.1068,0.24829,0.48039,0.6451,0.62891,12.438
12.096,-0.10485,0.24047,0.46471,0.6549,0.64062,12.516
12.104,-0.10485,0.23656,0.4902,0.64118,0.5957,12.516
12.112,-0.10485,0.23363,0.52941,0.65098,0.56445,12.438
12.12,-0.10485,0.23265,0.53529,0.6549,0.58008,12.321
12.128,-0.10291,0.23167,0.50588,0.67059,0.5957,12.282
12.136,-0.10291,0.23167,0.5,0.62941,0.55078,12.203
12.144,-0.10097,0.23069,0.52941,0.6098,0.53516,12.203
12.152,-0.10097,0.23167,0.53529,0.62549,0.58008,12.282
12.16,-0.099029,0.23167,0.5098,0.59608,0.56445,12.282
12.168,-0.099029,0.23265,0.48431,0.58039,0.54492,12.203
12.176,-0.097087,0.23363,0.4549,0.6549,0.66016,12.086
12.184,-0.097087,0.2346,0.3902,0.68039,0.70898,11.89
12.192,-0.095146,0.23558,0.36471,0.61569,0.625,11.773
12.2,-0.093204,0.23656,0.37451,0.6098,0.61523,11.773
12.208,-0.093204,0.23754,0.38431,0.6451,0.64453,11.773
12.216,-0.091262,0.23949,0.35882,0.73529,0.71484,11.812
12.224,-0.091262,0.24145,0.4549,0.7098,0.61523,11.969
12.232,-0.091262,0.24242,0.6098,0.73529,0.41016,12.125
12.24,-0.08932,0.24438,0.88039,0.57451,0.064453,12.399
12.248,-0.08932,0.24536,0.96078,0.29412,-0.080078,12.712
12.256,-0.08932,0.24633,0.77059,0.2451,0.24023,13.025
12.264,-0.08932,0.24731,0.74118,0.094118,0.30469,13.259
12.272,-0.08932,0.24829,0.61569,0.23922,0.4707,13.455
12.28,-0.08932,0.24927,0.51569,0.44902,0.56055,13.651
12.288,-0.08932,0.24927,0.43922,0.61569,0.65039,13.768
12.296,-0.08932,0.25024,0.42549,0.63529,0.66406,13.69
12.304,-0.08932,0.25024,0.41569,0.66078,0.6543,13.377
12.312,-0.08932,0.25122,0.41569,0.67059,0.68555,12.712
12.32,-0.087379,0.2522,0.4098,0.6549,0.66016,11.695
12.328,-0.087379,0.25318,0.41569,0.68039,0.66992,10.717
12.336,-0.087379,0.25415,0.41961,0.67059,0.66406,10.013
12.344,-0.087379,0.25513,0.43922,0.66078,0.65039,9.7001
12.352,-0.087379,0.25513,0.44902,0.67647,0.64453,9.7001
12.36,-0.087379,0.25611,0.42941,0.68627,0.66406,10.091
12.368,-0.087379,0.25709,0.4098,0.72157,0.70898,10.639
12.376,-0.085437,0.25806,0.46078,0.68039,0.6543,11.186
12.384,-0.085437,0.25904,0.48431,0.63529,0.57031,11.499
12.392,-0.083495,0.26002,0.47451,0.67059,0.61523,11.499
12.4,-0.083495,0.261,0.46471,0.7,0.64062,11.147
12.408,-0.081553,0.26197,0.46078,0.68627,0.62891,10.443
12.416,-0.079612,0.26295,0.48431,0.67059,0.58398,9.4654
12.424,-0.07767,0.26393,0.4902,0.65098,0.56445,8.0574
12.432,-0.075728,0.26491,0.48431,0.69608,0.60938,6.8057
12.44,-0.073786,0.26588,0.72157,0.60588,0.44531,5.8279
12.448,-0.071845,0.26686,0.91569,0.5549,0.375,5.515
12.456,-0.069903,0.26784,1.0412,0.48431,0.27539,5.8279
12.464,-0.066019,0.26882,1.1667,0.43529,0.19531,6.4537
12.472,-0.064078,0.26882,1.3275,0.4,0.125,7.0013
12.48,-0.060194,0.26979,1.4824,0.33922,0.044922,7.3142
12.488,-0.056311,0.27077,1.5039,0.26471,-0.044922,7.3924
12.496,-0.052427,0.27175,1.5039,0.22941,-0.10352,7.3142
12.504,-0.048544,0.27273,1.5039,0.23333,-0.089844,7.1186
12.512,-0.046602,0.2737,1.5039,0.2098,-0.10938,6.884
12.52,-0.042718,0.27468,1.5039,0.26471,-0.0039062,6.7666
12.528,-0.038835,0.27566,1.4784,0.3,0.054688,6.8057
12.536,-0.03301,0.27664,1.3627,0.34902,0.13086,6.9622
12.544,-0.029126,0.27664,1.2471,0.40392,0.21484,7.1186
12.552,-0.023301,0.27761,1.151,0.4,0.23438,7.2751
12.56,-0.017476,0.27859,1.0824,0.41961,0.27539,7.4315
12.568,-0.01165,0.27859,0.99608,0.46078,0.33008,7.7053
12.576,-0.0058252,0.27957,0.95686,0.4451,0.33984,8.0182
12.584,0,0.28055,0.90588,0.48039,0.38477,8.3703
12.592,0.0058252,0.28055,0.87647,0.5098,0.43555,8.8396
12.6,0.0097087,0.28152,0.84118,0.50588,0.42969,9.309
12.608,0.015534,0.28152,0.80588,0.50588,0.44531,9.7783
12.616,0.021359,0.2825,0.77647,0.5451,0.48438,10.248
12.624,0.027184,0.28348,0.7451,0.51569,0.44922,10.639
12.632,0.031068,0.28348,0.7,0.55098,0.5,10.952
12.64,0.036893,0.28446,0.64118,0.56471,0.51953,11.147
12.648,0.040777,0.28446,0.60588,0.58431,0.53516,11.186
12.656,0.046602,0.28446,0.52941,0.61961,0.58008,11.186
12.664,0.050485,0.28543,0.48039,0.65098,0.64453,11.069
12.672,0.056311,0.28543,0.47451,0.6098,0.58398,10.874
12.68,0.060194,0.28641,0.48431,0.63529,0.60547,10.717
12.688,0.066019,0.28739,0.41569,0.6451,0.64062,10.521
12.696,0.071845,0.28837,0.3902,0.6549,0.66016,10.248
12.704,0.07767,0.28935,0.4098,0.64118,0.61914,9.8175
12.712,0.085437,0.29032,0.35882,0.68039,0.66406,9.1525
12.72,0.091262,0.29228,0.3549,0.6549,0.64453,8.2138
12.728,0.10097,0.29326,0.37059,0.6451,0.64062,7.0795
12.736,0.10874,0.29423,0.3549,0.68627,0.68945,5.867
12.744,0.11845,0.29619,0.3451,0.7,0.70508,4.7718
12.752,0.12816,0.29717,0.33529,0.66471,0.6543,3.7549
12.76,0.13786,0.29912,0.31961,0.7,0.70898,3.0117
12.768,0.14757,0.3001,0.30392,0.70588,0.69922,2.4641
12.776,0.15534,0.30205,0.31961,0.68039,0.68555,2.1512
12.784,0.16505,0.30401,0.31373,0.7,0.70898,2.073
12.792,0.17476,0.30694,0.32941,0.67647,0.66992,2.1512
12.8,0.18447,0.30987,0.3098,0.67059,0.65039,2.1903
12.808,0.19612,0.31378,0.27843,0.70588,0.70898,2.2686
12.816,0.20583,0.31769,0.26471,0.7,0.69922,2.3077
12.824,0.21553,0.3216,0.27843,0.72157,0.73438,2.4641
12.832,0.22718,0.32551,0.29412,0.7451,0.70898,2.5815
12.84,0.23689,0.3304,0.29412,0.75098,0.73047,2.8944
12.848,0.2466,0.33627,0.30392,0.72549,0.66992,3.3246
12.856,0.25631,0.34115,0.32353,0.70588,0.64453,3.9505
12.864,0.26602,0.34702,0.33529,0.68627,0.625,4.5763
12.872,0.27573,0.35191,0.32353,0.67647,0.66992,5.1239
12.88,0.28544,0.35777,0.28431,0.63529,0.66406,5.4368
12.888,0.29709,0.36266,0.24902,0.67059,0.73047,5.7106
12.896,0.3068,0.36852,0.22353,0.7,0.75391,5.867
12.904,0.31845,0.37341,0.20392,0.7451,0.82031,6.1408
12.912,0.32816,0.3783,0.20392,0.68039,0.73438,6.3755
12.92,0.33786,0.38221,0.20392,0.65098,0.68555,6.6884
12.928,0.34563,0.38612,0.20392,0.71569,0.75391,7.0013
12.936,0.3534,0.39003,0.15882,0.81569,0.83984,7.3924
12.944,0.35922,0.39296,0.23333,0.76667,0.71484,7.7444
12.952,0.36699,0.39687,0.38431,0.8,0.57031,8.2529
12.96,0.37282,0.3998,0.68039,0.64118,0.17969,8.8396
12.968,0.38058,0.40176,0.78039,0.35882,-0.044922,9.5828
12.976,0.38641,0.40371,0.62549,0.37059,0.25,10.404
12.984,0.39223,0.40469,0.5,0.27843,0.45508,11.186
12.992,0.39806,0.40567,0.4,0.21961,0.44531,12.008
13,0.4,0.40762,0.2549,0.5098,0.73047,12.751
13.008,0.40388,0.4086,0.20392,0.64118,0.75,13.377
13.016,0.40777,0.40958,0.16471,0.74118,0.81445,13.807
13.024,0.40971,0.41056,0.15882,0.7098,0.75977,14.12
13.032,0.41165,0.41153,0.17843,0.70588,0.73438,14.198
13.04,0.41359,0.41251,0.1549,0.7549,0.79492,14.003
13.048,0.41553,0.41349,0.1549,0.77647,0.82422,13.69
13.056,0.41942,0.41349,0.1549,0.74118,0.77539,13.494
13.064,0.42136,0.41349,0.17451,0.75098,0.7793,13.69
13.072,0.4233,0.41349,0.17843,0.72549,0.74414,14.198
13.08,0.42524,0.41251,0.2,0.75098,0.76562,15.137
13.088,0.42718,0.41251,0.2,0.72157,0.7207,16.193
13.096,0.42913,0.41153,0.21961,0.7098,0.70898,17.014
13.104,0.42913,0.41056,0.19412,0.75098,0.76562,17.327
13.112,0.43107,0.40958,0.20392,0.75098,0.75391,17.132
13.12,0.43301,0.4086,0.22941,0.7549,0.76562,16.31
13.128,0.43301,0.40665,0.25882,0.72549,0.69922,15.02
13.136,0.43495,0.40567,0.26863,0.74118,0.70898,13.455
13.144,0.43495,0.40469,0.29412,0.71569,0.66016,11.89
13.152,0.43689,0.40274,0.32353,0.69608,0.61914,10.874
13.16,0.43689,0.40176,0.36471,0.68039,0.58008,10.443
13.168,0.43689,0.40078,0.37059,0.7098,0.61523,10.561
13.176,0.43689,0.39883,0.37451,0.7098,0.60938,10.756
13.184,0.43689,0.39785,0.38039,0.72157,0.61523,10.874
13.192,0.43495,0.39589,0.3902,0.69608,0.5957,10.717
13.2,0.43495,0.39492,0.40392,0.70588,0.61523,10.248
13.208,0.43107,0.39394,0.41961,0.66078,0.55469,9.7001
13.216,0.42913,0.39198,0.44902,0.62941,0.51562,9.309
13.224,0.42718,0.39003,0.46078,0.61569,0.5,9.309
13.232,0.4233,0.38905,0.4451,0.63529,0.54492,9.6219
13.24,0.42136,0.3871,0.43922,0.63529,0.54492,10.248
13.248,0.41748,0.38514,0.42941,0.6451,0.58008,11.03
13.256,0.41359,0.38221,0.41961,0.6549,0.60938,11.773
13.264,0.41165,0.38025,0.4098,0.6451,0.59961,12.282
13.272,0.40777,0.3783,0.39412,0.67647,0.64453,12.516
13.28,0.40388,0.37634,0.4,0.6451,0.60938,12.634
13.288,0.4,0.37439,0.3902,0.63529,0.60547,12.712
13.296,0.39417,0.37243,0.39412,0.67059,0.66406,12.907
13.304,0.39029,0.37048,0.3902,0.6902,0.69531,13.259
13.312,0.38641,0.36852,0.40392,0.61569,0.58984,13.651
13.32,0.38058,0.36755,0.41569,0.64118,0.625,14.12
13.328,0.37476,0.36559,0.41569,0.7,0.70508,14.628
13.336,0.36893,0.36364,0.42549,0.62941,0.61523,15.059
13.344,0.36311,0.36266,0.43922,0.59608,0.57031,15.332
13.352,0.35534,0.3607,0.4451,0.63529,0.61914,15.45
13.36,0.34951,0.35973,0.43922,0.6549,0.66016,15.528
13.368,0.34175,0.35777,0.4451,0.62549,0.61523,15.528
13.376,0.33398,0.35582,0.4549,0.63529,0.61914,15.528
13.384,0.32621,0.35484,0.4451,0.62549,0.61523,15.528
13.392,0.32039,0.35288,0.46078,0.61569,0.5957,15.528
13.4,0.31262,0.35191,0.4549,0.6,0.57031,15.45
13.408,0.30485,0.34995,0.44902,0.63529,0.61523,15.254
13.416,0.29903,0.34897,0.43922,0.6451,0.64062,15.02
13.424,0.29126,0.348,0.42941,0.6549,0.66406,14.746
13.432,0.28544,0.34702,0.43922,0.64118,0.64062,14.433
13.44,0.27961,0.34604,0.4451,0.6098,0.59961,14.198
13.448,0.27379,0.34409,0.44902,0.61569,0.61523,13.885
13.456,0.26796,0.34311,0.43922,0.6098,0.60547,13.651
13.464,0.26214,0.34115,0.4451,0.6098,0.61523,13.377
13.472,0.25631,0.34018,0.43922,0.6451,0.66016,13.259
13.48,0.25243,0.3392,0.46078,0.6,0.58398,13.181
13.488,0.24854,0.33822,0.43922,0.63529,0.64062,13.181
13.496,0.24466,0.33724,0.44902,0.58431,0.56445,13.259
13.504,0.24078,0.33627,0.4451,0.6,0.58008,13.181
13.512,0.23689,0.33627,0.4451,0.61961,0.60938,13.025
13.52,0.23107,0.33627,0.4451,0.62941,0.62891,12.712
13.528,0.22718,0.33724,0.4549,0.61961,0.60547,12.516
13.536,0.2233,0.33822,0.46078,0.6098,0.58984,12.516
13.544,0.21942,0.34018,0.46078,0.67059,0.66992,12.634
13.552,0.21553,0.34311,0.48431,0.65098,0.60938,12.907
13.56,0.21165,0.34604,0.50588,0.6549,0.59961,13.025
13.568,0.20971,0.34897,0.51569,0.62941,0.54492,13.142
13.576,0.20583,0.35191,0.5098,0.63529,0.56445,13.259
13.584,0.20194,0.35582,0.53922,0.60588,0.51562,13.377
13.592,0.19806,0.35973,0.5549,0.5902,0.55078,13.494
13.6,0.19417,0.36364,0.5549,0.6,0.54492,13.651
13.608,0.19029,0.36657,0.53922,0.58039,0.57031,13.69
13.616,0.18641,0.3695,0.51569,0.56078,0.53906,13.807
13.624,0.18252,0.37146,0.48431,0.59608,0.5957,13.963
13.632,0.17864,0.37439,0.46471,0.6,0.60547,14.081
13.64,0.17476,0.37634,0.43922,0.61961,0.65039,14.198
13.648,0.17087,0.37928,0.43529,0.62549,0.66016,14.315
13.656,0.16505,0.38123,0.43922,0.6,0.61914,14.433
13.664,0.16117,0.38221,0.4,0.68039,0.66406,14.511
13.672,0.15534,0.38319,0.48039,0.70588,0.68555,14.628
13.68,0.14951,0.38416,0.66078,0.7098,0.36523,14.746
13.688,0.14563,0.38514,0.94118,0.5098,0.0058594,14.941
13.696,0.13981,0.38514,1.002,0.2549,-0.099609,15.137
13.704,0.13398,0.38514,0.77059,0.18824,0.24609,15.332
13.712,0.1301,0.38416,0.72549,0.062745,0.32031,15.528
13.72,0.12427,0.38319,0.6,0.19412,0.46484,15.645
13.728,0.12039,0.38221,0.51961,0.4549,0.59961,15.684
13.736,0.1165,0.38123,0.43529,0.57451,0.64062,15.763
13.744,0.11262,0.38025,0.40392,0.62941,0.68555,15.841
13.752,0.10874,0.3783,0.3902,0.66471,0.7207,15.88
13.76,0.10485,0.37634,0.3902,0.63529,0.66016,15.997
13.768,0.10097,0.37439,0.38431,0.64118,0.65039,16.193
13.776,0.097087,0.37243,0.38431,0.67059,0.69531,16.31
13.784,0.093204,0.37048,0.3902,0.66078,0.67969,16.467
13.792,0.091262,0.36852,0.39412,0.69608,0.72461,16.506
13.8,0.087379,0.36657,0.39412,0.66471,0.67578,16.623
13.808,0.083495,0.36461,0.39412,0.68627,0.69531,16.78
13.816,0.081553,0.36266,0.4,0.67647,0.67969,16.897
13.824,0.079612,0.36168,0.40392,0.6902,0.70508,16.936
13.832,0.07767,0.35973,0.4098,0.66471,0.66016,17.014
13.84,0.075728,0.35777,0.41569,0.68039,0.67578,17.132
13.848,0.073786,0.35582,0.42941,0.65098,0.61914,17.249
13.856,0.071845,0.35386,0.43529,0.67647,0.61523,17.405
13.864,0.071845,0.35288,0.4549,0.6902,0.66016,17.523
13.872,0.069903,0.35093,0.46078,0.66471,0.59961,17.64
13.88,0.069903,0.34897,0.48039,0.7,0.62891,17.718
13.888,0.067961,0.348,0.48431,0.72157,0.6543,17.757
13.896,0.067961,0.34604,0.5,0.6451,0.5293,17.757
13.904,0.066019,0.34506,0.51569,0.62549,0.49414,17.836
13.912,0.066019,0.34409,0.52549,0.66078,0.53906,17.875
13.92,0.066019,0.34213,0.52549,0.7,0.5957,18.031
13.928,0.066019,0.34115,0.53529,0.6451,0.52539,18.07
13.936,0.064078,0.34018,0.53529,0.62941,0.5,18.188
13.944,0.064078,0.33822,0.53529,0.65098,0.56055,18.383
13.952,0.064078,0.33724,0.52941,0.60588,0.51562,18.579
13.96,0.064078,0.33627,0.52549,0.62941,0.56445,18.696
13.968,0.062136,0.33529,0.51569,0.60588,0.57031,18.814
13.976,0.062136,0.33333,0.5098,0.5902,0.5293,18.97
13.984,0.060194,0.33236,0.4902,0.62941,0.59961,19.087
13.992,0.060194,0.33138,0.48039,0.61961,0.5957,19.283
14,0.058252,0.3304,0.47059,0.62549,0.60938,19.439
14.008,0.056311,0.32942,0.46078,0.6098,0.60547,19.596
14.016,0.056311,0.32845,0.4549,0.63529,0.64453,19.713
14.024,0.054369,0.32747,0.43922,0.68627,0.72461,19.83
14.032,0.052427,0.32747,0.43529,0.63529,0.66016,19.752
14.04,0.050485,0.32649,0.4549,0.59608,0.59961,19.439
14.048,0.048544,0.32551,0.46078,0.5902,0.5957,18.696
14.056,0.046602,0.32454,0.4451,0.65098,0.66992,17.445
14.064,0.04466,0.32454,0.4549,0.6098,0.61914,15.763
14.072,0.040777,0.32356,0.4549,0.60588,0.60938,14.198
14.08,0.038835,0.32258,0.46078,0.63529,0.64453,13.181
14.088,0.036893,0.3216,0.46078,0.6098,0.61523,13.025
14.096,0.034951,0.32063,0.46078,0.63529,0.63477,13.651
14.104,0.03301,0.31965,0.4549,0.6451,0.65039,14.628
14.112,0.031068,0.36168,0.46078,0.63529,0.6543,15.567
14.12,0.029126,0.42424,0.47059,0.6098,0.61523,16.193
14.128,0.029126,0.45455,0.46471,0.60588,0.59961,16.271
14.136,0.025243,0.46921,0.46078,0.62941,0.64062,15.841
14.144,0.023301,0.47605,0.46078,0.61961,0.64453,15.215
14.152,0.021359,0.47898,0.46471,0.60588,0.60938,14.628
14.16,0.017476,0.48094,0.46471,0.61569,0.62891,14.276
14.168,0.015534,0.48289,0.46471,0.60588,0.60938,14.12
14.176,0.013592,0.48387,0.46078,0.59608,0.60547,14.198
14.184,0.01165,0.48583,0.4549,0.65098,0.68555,14.315
14.192,0.007767,0.4868,0.46471,0.57451,0.58398,14.511
14.2,0.0058252,0.48876,0.47059,0.6,0.58008,14.589
14.208,0.0038835,0.48974,0.46471,0.59608,0.62891,14.394
14.216,0.0019417,0.49267,0.46078,0.6098,0.59961,14.081
14.224,-0.0019417,0.49462,0.47059,0.61961,0.64062,13.651
14.232,-0.0038835,0.49853,0.47451,0.63529,0.66016,13.259
14.24,-0.0058252,0.50244,0.46078,0.5902,0.60547,13.064
14.248,-0.007767,0.50733,0.47059,0.57451,0.58398,13.064
14.256,-0.0097087,0.51417,0.47451,0.6098,0.63477,13.259
14.264,-0.01165,0.52297,0.46078,0.59608,0.61523,13.494
14.272,-0.013592,0.53275,0.46078,0.62941,0.64062,13.651
14.28,-0.015534,0.5435,0.48431,0.65098,0.65039,13.69
14.288,-0.017476,0.55523,0.5098,0.6549,0.61523,13.807
14.296,-0.019417,0.56891,0.53529,0.6,0.52539,13.963
14.304,-0.021359,0.5826,0.53529,0.61961,0.56055,14.12
14.312,-0.021359,0.59433,0.55098,0.63529,0.58398,14.198
14.32,-0.023301,0.60606,0.56471,0.56078,0.51953,14.315
14.328,-0.025243,0.61877,0.56078,0.58039,0.57422,14.433
14.336,-0.025243,0.63148,0.55098,0.56078,0.57031,14.589
14.344,-0.027184,0.64418,0.52941,0.56078,0.55469,14.707
14.352,-0.027184,0.65689,0.5,0.57451,0.58984,14.824
14.36,-0.029126,0.66862,0.46078,0.6,0.63477,14.941
14.368,-0.029126,0.68035,0.46078,0.56471,0.59961,15.02
14.376,-0.031068,0.69013,0.44902,0.56078,0.58398,15.137
14.384,-0.031068,0.69892,0.42941,0.6451,0.68555,15.254
14.392,-0.031068,0.70674,0.40392,0.70588,0.72461,15.372
14.4,-0.03301,0.71457,0.5098,0.66078,0.57422,15.528
14.408,-0.03301,0.72043,0.7,0.7,0.35547,15.684
14.416,-0.034951,0.72434,0.96078,0.4902,-0.0039062,15.88
14.424,-0.034951,0.72727,1.002,0.2,-0.099609,16.076
14.432,-0.034951,0.72923,0.7902,0.10392,0.21094,16.31
14.44,-0.036893,0.73216,0.73137,0.033333,0.34961,16.467
14.448,-0.036893,0.73314,0.61569,0.2,0.48047,16.193
14.456,-0.036893,0.73314,0.52941,0.47059,0.59961,15.88
14.464,-0.036893,0.73216,0.4451,0.57451,0.64062,15.684
14.472,-0.036893,0.73118,0.41961,0.62549,0.68945,15.88
14.48,-0.036893,0.72825,0.4098,0.64118,0.69531,15.997
14.488,-0.036893,0.72532,0.4098,0.63529,0.66992,15.997
14.496,-0.034951,0.72043,0.41569,0.63529,0.6543,15.684
14.504,-0.034951,0.71652,0.41569,0.6451,0.66992,15.137
14.512,-0.034951,0.71065,0.41569,0.67059,0.70508,14.433
14.52,-0.034951,0.70577,0.4098,0.6549,0.67969,14.081
14.528,-0.03301,0.6999,0.41961,0.68627,0.70508,13.963
14.536,-0.03301,0.69404,0.42549,0.67059,0.67969,14.12
14.544,-0.03301,0.68817,0.43922,0.67647,0.68555,14.589
14.552,-0.03301,0.68133,0.4451,0.63529,0.61914,15.059
14.56,-0.031068,0.67546,0.44902,0.67059,0.6543,15.45
14.568,-0.031068,0.66862,0.4451,0.66471,0.64453,15.528
14.576,-0.031068,0.66276,0.44902,0.67647,0.66406,15.254
14.584,-0.031068,0.65689,0.46078,0.68039,0.62891,14.628
14.592,-0.031068,0.65103,0.46471,0.67059,0.60938,13.69
14.6,-0.031068,0.64516,0.48431,0.68627,0.625,12.712
14.608,-0.031068,0.64027,0.50588,0.66078,0.57422,11.812
14.616,-0.03301,0.63539,0.5098,0.66471,0.56445,11.069
14.624,-0.03301,0.6305,0.50588,0.68627,0.58008,10.639
14.632,-0.034951,0.62659,0.52941,0.69608,0.58984,10.717
14.64,-0.034951,0.6217,0.53529,0.67059,0.54492,11.147
14.648,-0.036893,0.61681,0.53529,0.68039,0.53906,11.695
14.656,-0.036893,0.6129,0.53922,0.65098,0.56055,12.125
14.664,-0.038835,0.60802,0.5451,0.62941,0.51562,12.438
14.672,-0.040777,0.60313,0.5549,0.6098,0.5,12.634
14.68,-0.040777,0.59824,0.53922,0.61961,0.52539,12.712
14.688,-0.040777,0.59335,0.53529,0.61569,0.53906,12.751
14.696,-0.042718,0.58847,0.53529,0.6549,0.59961,12.751
14.704,-0.042718,0.58358,0.53529,0.56078,0.49414,12.634
14.712,-0.042718,0.57967,0.51961,0.58039,0.5293,12.595
14.72,-0.040777,0.57576,0.48431,0.6098,0.59961,12.595
14.728,-0.040777,0.57185,0.47451,0.61961,0.61523,12.595
14.736,-0.038835,0.56794,0.47059,0.63529,0.6543,12.595
14.744,-0.038835,0.56403,0.47059,0.6451,0.66992,12.712
14.752,-0.036893,0.56012,0.47059,0.59608,0.59961,12.829
14.76,-0.034951,0.55621,0.48039,0.61569,0.62891,12.947
14.768,-0.03301,0.55132,0.47451,0.6,0.60547,13.064
14.776,-0.031068,0.54741,0.48431,0.59608,0.5957,13.142
14.784,-0.029126,0.5435,0.47059,0.62941,0.62891,13.142
14.792,-0.027184,0.53861,0.46471,0.61569,0.61914,13.142
14.8,-0.025243,0.5347,0.48431,0.62549,0.63477,13.142
14.808,-0.023301,0.53079,0.48431,0.62941,0.64062,13.181
14.816,-0.021359,0.52786,0.4902,0.58431,0.57031,13.259
14.824,-0.019417,0.52493,0.5,0.62549,0.63477,13.338
14.832,-0.019417,0.52199,0.4902,0.65098,0.66992,13.338
14.84,-0.017476,0.51906,0.48431,0.61961,0.61914,13.259
14.848,-0.017476,0.51613,0.48039,0.6098,0.5957,13.142
14.856,-0.015534,0.5132,0.48431,0.59608,0.58398,13.025
14.864,-0.015534,0.51026,0.50588,0.6098,0.60938,12.907
14.872,-0.013592,0.50831,0.4902,0.6,0.58984,12.829
14.88,-0.013592,0.50635,0.48431,0.65098,0.66016,12.829
14.888,-0.013592,0.50342,0.48431,0.61569,0.625,12.712
14.896,-0.01165,0.50147,0.49412,0.58431,0.57422,12.634
14.904,-0.01165,0.49853,0.4902,0.57451,0.56445,12.516
14.912,-0.01165,0.49658,0.50588,0.62941,0.63477,12.321
14.92,-0.01165,0.49462,0.5,0.59608,0.5957,12.008
14.928,-0.0097087,0.49267,0.48431,0.6098,0.61523,11.499
14.936,-0.0097087,0.48974,0.4902,0.59608,0.5957,10.874
14.944,-0.0097087,0.48778,0.5,0.61961,0.62891,10.248
14.952,-0.01165,0.48583,0.50588,0.58039,0.57031,9.7783
14.96,-0.01165,0.48583,0.4902,0.6098,0.61523,9.5046
14.968,-0.013592,0.48583,0.49412,0.61961,0.63477,9.4654
14.976,-0.015534,0.48778,0.50588,0.58431,0.57422,9.5046
14.984,-0.017476,0.49071,0.5,0.61961,0.61523,9.6219
14.992,-0.019417,0.4956,0.5,0.6098,0.60547,9.7783
15,-0.021359,0.50147,0.49412,0.63529,0.64062,9.7001
15.008,-0.023301,0.50929,0.52549,0.59608,0.56445,9.6219
15.016,-0.025243,0.51613,0.5549,0.6098,0.53516,9.5046
15.024,-0.027184,0.52395,0.56078,0.61961,0.54492,9.5046
15.032,-0.029126,0.53372,0.58039,0.6098,0.53516,9.5828
15.04,-0.031068,0.5435,0.58431,0.61569,0.53516,9.7783
15.048,-0.03301,0.55327,0.60588,0.56078,0.49414,9.8175
15.056,-0.034951,0.56403,0.59608,0.5902,0.55469,9.8175
15.064,-0.036893,0.5738,0.58431,0.5451,0.51953,9.7783
15.072,-0.036893,0.58358,0.53922,0.57451,0.57422,9.8175
15.08,-0.038835,0.59238,0.51569,0.5902,0.5957,9.8957
15.088,-0.040777,0.60117,0.49412,0.56471,0.57031,10.013
15.096,-0.042718,0.60899,0.5098,0.57059,0.58008,10.209
15.104,-0.042718,0.61681,0.47451,0.58431,0.59961,10.443
15.112,-0.04466,0.62268,0.4549,0.6451,0.66016,10.717
15.12,-0.046602,0.62659,0.43922,0.68627,0.68555,10.834
15.128,-0.046602,0.63148,0.56078,0.72157,0.60547,10.874
15.136,-0.048544,0.63539,0.77059,0.65098,0.26953,10.952
15.144,-0.046602,0.63832,1.0314,0.43529,-0.080078,11.147
15.152,-0.046602,0.64027,1.051,0.20392,-0.16016,11.578
15.16,-0.046602,0.64125,0.81569,0.16863,0.24609,12.125
15.168,-0.04466,0.64125,0.75098,0.052941,0.31055,12.907
15.176,-0.042718,0.64027,0.61961,0.27451,0.51953,13.494
15.184,-0.042718,0.6393,0.53529,0.47059,0.57031,13.963
15.192,-0.040777,0.63636,0.46078,0.60588,0.66406,14.12
15.2,-0.038835,0.63441,0.46078,0.62549,0.67578,13.963
15.208,-0.036893,0.6305,0.46471,0.5902,0.60547,13.377
15.216,-0.034951,0.62757,0.46078,0.64118,0.66016,12.595
15.224,-0.03301,0.62366,0.43529,0.63529,0.65039,11.656
15.232,-0.031068,0.61975,0.42941,0.6451,0.66016,10.834
15.24,-0.027184,0.61584,0.41569,0.69608,0.7207,10.443
15.248,-0.025243,0.61095,0.40392,0.6902,0.72461,10.521
15.256,-0.023301,0.60606,0.42941,0.6549,0.66016,10.952
15.264,-0.019417,0.6002,0.43529,0.66471,0.64453,11.656
15.272,-0.015534,0.59531,0.42941,0.68039,0.67578,12.321
15.28,-0.013592,0.58944,0.43529,0.63529,0.60938,12.751
15.288,-0.0097087,0.58358,0.46078,0.62941,0.5957,12.947
15.296,-0.007767,0.57869,0.47451,0.67647,0.64062,12.751
15.304,-0.0038835,0.57283,0.46078,0.68039,0.64453,12.203
15.312,-0.0019417,0.56794,0.48039,0.66078,0.625,11.186
15.32,0.0019417,0.56305,0.4902,0.68039,0.63477,9.8957
15.328,0.0038835,0.55816,0.48039,0.6549,0.55469,8.5658
15.336,0.007767,0.55327,0.48431,0.67059,0.57422,7.7053
15.344,0.0097087,0.54839,0.51569,0.68039,0.58008,7.3142
15.352,0.01165,0.5435,0.5451,0.65098,0.51562,7.4315
15.36,0.015534,0.53861,0.55098,0.67059,0.53906,7.94
15.368,0.017476,0.53275,0.58039,0.6549,0.50977,8.4485
15.376,0.019417,0.5259,0.5549,0.65098,0.5,8.7614
15.384,0.021359,0.51808,0.53529,0.68039,0.56055,8.8396
15.392,0.023301,0.50929,0.52941,0.6549,0.53516,8.7614
15.4,0.025243,0.49951,0.58039,0.6,0.46094,8.5658
15.408,0.027184,0.48974,0.58431,0.58039,0.43945,8.4485
15.416,0.029126,0.48192,0.58039,0.6098,0.51562,8.3703
15.424,0.031068,0.47116,0.5902,0.58039,0.47461,8.3703
15.432,0.03301,0.46139,0.55098,0.6098,0.4707,8.5267
15.44,0.036893,0.45161,0.5,0.6549,0.60938,8.7614
15.448,0.038835,0.44379,0.51569,0.6,0.5293,8.9961
15.456,0.042718,0.43695,0.51961,0.59608,0.56055,9.2699
15.464,0.04466,0.43206,0.49412,0.62941,0.58984,9.5046
15.472,0.046602,0.42913,0.4902,0.64118,0.61523,9.7783
15.48,0.048544,0.42815,0.48431,0.63529,0.60547,9.8957
15.488,0.052427,0.42913,0.48431,0.6451,0.64062,10.013
15.496,0.054369,0.43206,0.47059,0.65098,0.61523,10.13
15.504,0.056311,0.43793,0.46078,0.61961,0.59961,10.443
15.512,0.060194,0.44379,0.5098,0.6451,0.625,10.874
15.52,0.062136,0.45259,0.47451,0.62941,0.60547,11.46
15.528,0.066019,0.46237,0.47059,0.65098,0.62891,12.008
15.536,0.069903,0.47214,0.48039,0.6451,0.64062,12.399
15.544,0.071845,0.48289,0.4902,0.64118,0.61914,12.595
15.552,0.075728,0.49267,0.4549,0.67647,0.66406,12.595
15.56,0.07767,0.50049,0.46078,0.62941,0.61914,12.438
15.568,0.081553,0.50538,0.48039,0.6549,0.65039,12.399
15.576,0.083495,0.50733,0.4902,0.61569,0.57422,12.321
15.584,0.087379,0.50635,0.46471,0.64118,0.61914,12.399
15.592,0.08932,0.50342,0.46078,0.6451,0.64062,12.399
15.6,0.093204,0.49756,0.47059,0.61961,0.60938,12.282
15.608,0.095146,0.49267,0.46078,0.62549,0.60547,11.969
15.616,0.099029,0.48778,0.46078,0.65098,0.64062,11.499
15.624,0.10097,0.48289,0.48431,0.63529,0.61523,10.874
15.632,0.10485,0.47801,0.46471,0.65098,0.6543,10.013
15.64,0.10874,0.4741,0.47059,0.65098,0.66406,9.1525
15.648,0.11068,0.47019,0.4549,0.60588,0.58984,8.2138
15.656,0.11456,0.46823,0.47451,0.5902,0.56445,7.3142
15.664,0.1165,0.46628,0.46078,0.62941,0.60938,6.571
15.672,0.12039,0.46432,0.49412,0.62549,0.61523,6.0235
15.68,0.12427,0.46334,0.48431,0.61961,0.59961,5.5541
15.688,0.12816,0.46139,0.48431,0.64118,0.625,5.3194
15.696,0.13398,0.46041,0.4902,0.6549,0.65039,5.2021
15.704,0.13786,0.45943,0.48431,0.59608,0.56445,5.1239
15.712,0.14175,0.45943,0.50588,0.63529,0.60547,5.0847
15.72,0.14563,0.45943,0.5,0.61569,0.60938,5.0847
15.728,0.14951,0.45943,0.5098,0.6098,0.57422,5.0065
15.736,0.15146,0.45943,0.52941,0.6451,0.5957,5.0065
15.744,0.15534,0.46041,0.55098,0.6451,0.57031,5.0847
15.752,0.15728,0.46334,0.5549,0.6549,0.57422,5.1239
15.76,0.16117,0.46725,0.59608,0.62941,0.51953,5.2412
15.768,0.16505,0.47312,0.58431,0.61961,0.5293,5.515
15.776,0.16699,0.47996,0.58039,0.6098,0.55469,5.8279
15.784,0.17087,0.48876,0.59608,0.58039,0.52539,6.1799
15.792,0.17476,0.49951,0.57451,0.57059,0.53516,6.6884
15.8,0.17864,0.51026,0.55098,0.56078,0.51953,7.2751
15.808,0.18058,0.52102,0.51961,0.61569,0.60547,7.7444
15.816,0.18447,0.53079,0.4902,0.62549,0.61523,8.1356
15.824,0.18641,0.54252,0.48431,0.59608,0.58984,8.3703
15.832,0.19029,0.55327,0.49412,0.6098,0.58008,8.6441
15.84,0.19417,0.56403,0.49412,0.60588,0.64453,8.8396
15.848,0.19806,0.57478,0.48431,0.73529,0.70508,9.1525
15.856,0.2,0.58456,0.59608,0.6549,0.5,9.5046
15.864,0.20388,0.59335,0.77059,0.69608,0.33008,9.9348
15.872,0.20777,0.60215,1.0275,0.42549,-0.10352,10.521
15.88,0.20971,0.61095,1.0608,0.23333,-0.20898,11.147
15.888,0.21359,0.61779,0.84118,0.25882,0.25586,11.773
15.896,0.21553,0.62366,0.76667,0.16471,0.375,12.282
15.904,0.21748,0.62952,0.62549,0.26471,0.48438,12.595
15.912,0.22136,0.63245,0.53922,0.48431,0.59961,12.751
15.92,0.2233,0.63539,0.4902,0.5902,0.64062,12.947
15.928,0.22524,0.63734,0.48431,0.6,0.61523,13.142
15.936,0.22913,0.63832,0.48039,0.61569,0.59961,13.377
15.944,0.23301,0.63832,0.46078,0.68039,0.69531,13.651
15.952,0.23495,0.63832,0.44902,0.66078,0.66016,13.885
15.96,0.23883,0.63734,0.4451,0.67647,0.68555,14.081
15.968,0.24078,0.63441,0.44902,0.62549,0.61914,14.276
15.976,0.24466,0.63148,0.46078,0.6098,0.5957,14.394
15.984,0.2466,0.62854,0.4451,0.66471,0.66406,14.433
15.992,0.24854,0.62366,0.44902,0.65098,0.63477,14.433
16,0.25243,0.61877,0.46078,0.64118,0.61523,14.276
16.008,0.25437,0.61486,0.47059,0.67647,0.6543,14.003
16.016,0.25631,0.60997,0.46471,0.6902,0.67969,13.651
16.024,0.25825,0.60606,0.48039,0.67647,0.64453,13.377
16.032,0.26019,0.60117,0.4902,0.68039,0.65039,13.494
16.04,0.26214,0.59629,0.50588,0.61569,0.54492,14.003
16.048,0.26408,0.5914,0.52941,0.62549,0.53516,14.628
16.056,0.26602,0.58651,0.53529,0.66078,0.58008,14.941
16.064,0.26796,0.58162,0.53529,0.68039,0.5957,14.902
16.072,0.26796,0.57674,0.52549,0.65098,0.52539,14.707
16.08,0.2699,0.57185,0.5098,0.6549,0.51953,14.589
16.088,0.2699,0.56794,0.51961,0.67059,0.54492,14.707
16.096,0.2699,0.56403,0.53922,0.67647,0.52539,14.902
16.104,0.2699,0.56012,0.5451,0.6451,0.50977,14.902
16.112,0.26796,0.55718,0.5549,0.68627,0.57422,14.707
16.12,0.26796,0.55327,0.56471,0.5902,0.44922,14.394
16.128,0.26602,0.55034,0.58039,0.58039,0.43555,14.003
16.136,0.26408,0.54643,0.56471,0.62941,0.5293,13.651
16.144,0.26214,0.54252,0.56471,0.6,0.5,13.142
16.152,0.26019,0.53959,0.5451,0.58431,0.48438,12.712
16.16,0.25825,0.50733,0.5451,0.60588,0.5293,12.321
16.168,0.25437,0.46139,0.52941,0.62941,0.57422,12.282
16.176,0.25049,0.435,0.51569,0.62549,0.58398,12.399
16.184,0.24854,0.41935,0.5,0.66078,0.63477,12.595
16.192,0.24466,0.40958,0.49412,0.66471,0.65039,12.712
16.2,0.24272,0.40078,0.4902,0.6098,0.57031,12.751
16.208,0.23883,0.39589,0.48431,0.61961,0.58984,12.751
16.216,0.23689,0.39101,0.48039,0.61569,0.59961,12.947
16.224,0.23495,0.38612,0.47451,0.6098,0.58984,13.259
16.232,0.23301,0.38025,0.46078,0.6549,0.6543,13.768
16.24,0.23107,0.37537,0.46078,0.68039,0.68945,14.276
16.248,0.22718,0.37048,0.47451,0.62549,0.60938,14.824
16.256,0.22524,0.36559,0.46078,0.65098,0.64453,15.254
16.264,0.2233,0.3607,0.46078,0.6549,0.60547,15.528
16.272,0.22136,0.35679,0.46471,0.6098,0.58008,15.645
16.28,0.21942,0.35288,0.47059,0.64118,0.61523,15.645
16.288,0.21748,0.34897,0.46471,0.63529,0.62891,15.528
16.296,0.21553,0.34506,0.46078,0.65098,0.64453,15.372
16.304,0.21359,0.34213,0.46078,0.63529,0.625,15.332
16.312,0.21165,0.34018,0.46078,0.6549,0.6543,15.254
16.32,0.21165,0.33822,0.46078,0.63529,0.62891,15.215
16.328,0.20971,0.33627,0.46078,0.62941,0.61523,15.02
16.336,0.20971,0.33333,0.46078,0.61569,0.58398,14.824
16.344,0.20777,0.32942,0.47059,0.6098,0.58008,14.589
16.352,0.20777,0.32454,0.46078,0.63529,0.60938,14.394
16.36,0.20583,0.31965,0.47451,0.62941,0.5957,14.12
16.368,0.20583,0.31476,0.46471,0.63529,0.60547,13.885
16.376,0.20388,0.30792,0.46471,0.6902,0.68945,13.807
16.384,0.20388,0.30205,0.46078,0.7098,0.72461,13.807
16.392,0.20194,0.29521,0.4549,0.59608,0.57031,14.003
16.4,0.20194,0.28935,0.46471,0.58431,0.55078,14.12
16.408,0.2,0.28543,0.47059,0.62941,0.59961,14.276
16.416,0.19806,0.2825,0.47059,0.63529,0.61523,14.394
16.424,0.19612,0.28055,0.47451,0.6098,0.57422,14.433
16.432,0.19417,0.28055,0.48039,0.63529,0.60547,14.628
16.44,0.19223,0.2825,0.46471,0.6549,0.64062,14.707
16.448,0.19029,0.28739,0.5,0.6451,0.61523,14.824
16.456,0.18835,0.29423,0.51961,0.64118,0.59961,14.902
16.464,0.18641,0.30401,0.5549,0.6451,0.57422,14.941
16.472,0.18252,0.31574,0.5902,0.62549,0.51953,15.02
16.48,0.17864,0.33138,0.60588,0.65098,0.51562,15.02
16.488,0.17476,0.348,0.6098,0.66078,0.56445,14.941
16.496,0.17087,0.36755,0.6451,0.59608,0.47461,15.02
16.504,0.16699,0.38905,0.65098,0.57059,0.4707,15.215
16.512,0.16311,0.40958,0.66078,0.57059,0.49023,15.372
16.52,0.15922,0.42815,0.63529,0.56078,0.50977,15.567
16.528,0.15534,0.45064,0.6098,0.56471,0.50586,15.645
16.536,0.15146,0.47312,0.58039,0.58431,0.54492,15.684
16.544,0.14563,0.49658,0.56078,0.6,0.57031,15.841
16.552,0.14175,0.51906,0.53529,0.61569,0.59961,15.997
16.56,0.13592,0.54057,0.52941,0.58431,0.55469,16.076
16.568,0.1301,0.56207,0.50588,0.61961,0.58008,16.154
16.576,0.12427,0.58162,0.4902,0.7,0.64453,16.271
16.584,0.12039,0.59922,0.57451,0.70588,0.58008,16.467
16.592,0.11456,0.61584,0.76667,0.73137,0.31445,16.623
16.6,0.11068,0.6305,1.0314,0.50588,-0.039062,16.819
16.608,0.1068,0.64223,1.0725,0.25882,-0.10352,17.014
16.616,0.10291,0.65103,0.83529,0.13922,0.18945,17.21
16.624,0.099029,0.66178,0.78627,0.029412,0.25977,17.327
16.632,0.097087,0.67253,0.6549,0.22353,0.44922,17.445
16.64,0.093204,0.68231,0.57059,0.49412,0.58984,17.562
16.648,0.08932,0.69208,0.4902,0.5902,0.61914,17.718
16.656,0.085437,0.6999,0.46078,0.63529,0.60938,17.836
16.664,0.081553,0.70674,0.4451,0.67647,0.67969,17.875
16.672,0.079612,0.71261,0.43529,0.6549,0.64453,18.07
16.68,0.075728,0.7175,0.42549,0.70588,0.70898,18.188
16.688,0.073786,0.72141,0.41961,0.67647,0.6543,18.383
16.696,0.071845,0.72336,0.42549,0.66078,0.625,18.462
16.704,0.069903,0.72532,0.41569,0.70588,0.70508,18.579
16.712,0.069903,0.72532,0.41961,0.6902,0.66992,18.696
16.72,0.067961,0.72532,0.41569,0.68627,0.66406,18.814
16.728,0.066019,0.72434,0.42549,0.67059,0.625,18.892
16.736,0.066019,0.72336,0.42941,0.7,0.65039,18.97
16.744,0.064078,0.72239,0.42549,0.72157,0.66406,18.97
16.752,0.064078,0.72043,0.42941,0.69608,0.64062,19.087
16.76,0.064078,0.71848,0.43922,0.71569,0.65039,19.205
16.768,0.062136,0.71554,0.43922,0.70588,0.62891,19.322
16.776,0.062136,0.71163,0.46078,0.68627,0.5957,19.439
16.784,0.062136,0.70772,0.47059,0.7098,0.61914,19.635
16.792,0.062136,0.70381,0.48039,0.72549,0.625,19.713
16.8,0.060194,0.69892,0.48431,0.70588,0.58008,19.752
16.808,0.060194,0.69404,0.5,0.71569,0.53516,19.83
16.816,0.060194,0.68915,0.5098,0.69608,0.52539,19.909
16.824,0.060194,0.68328,0.51569,0.70588,0.54492,20.026
16.832,0.058252,0.6784,0.52549,0.6902,0.52539,20.143
16.84,0.058252,0.67253,0.51961,0.7098,0.56055,20.222
16.848,0.058252,0.66764,0.53529,0.67647,0.51953,20.339
16.856,0.058252,0.66373,0.51961,0.66471,0.53516,20.378
16.864,0.058252,0.65885,0.51569,0.67647,0.54492,20.574
16.872,0.058252,0.65494,0.5098,0.6451,0.52539,20.691
16.88,0.058252,0.65005,0.50588,0.63529,0.54492,20.769
16.888,0.056311,0.64614,0.48431,0.67059,0.5957,20.887
16.896,0.056311,0.64125,0.48039,0.65098,0.58398,21.004
16.904,0.054369,0.63636,0.47059,0.66078,0.60547,21.121
16.912,0.054369,0.63148,0.46078,0.63529,0.57031,21.278
16.92,0.052427,0.62757,0.4451,0.6549,0.61523,21.395
16.928,0.052427,0.62268,0.43529,0.69608,0.66992,21.512
16.936,0.050485,0.61681,0.42941,0.66078,0.67578,21.63
16.944,0.050485,0.61193,0.43922,0.62941,0.58984,21.747
16.952,0.048544,0.60606,0.43529,0.67059,0.6543,21.825
16.96,0.048544,0.6002,0.43922,0.67647,0.66016,21.825
16.968,0.046602,0.59433,0.43529,0.6549,0.63477,21.747
16.976,0.04466,0.58847,0.43922,0.67647,0.6543,21.512
16.984,0.042718,0.5826,0.43922,0.66078,0.62891,21.004
16.992,0.040777,0.57771,0.44902,0.63529,0.58984,20.143
17,0.038835,0.57283,0.4451,0.6549,0.63477,19.126
17.008,0.036893,0.56891,0.44902,0.66078,0.64062,18.266
17.016,0.034951,0.56598,0.4549,0.66078,0.62891,17.562
17.024,0.03301,0.56305,0.4451,0.66471,0.6543,16.936
17.032,0.029126,0.56012,0.46078,0.64118,0.60547,16.271
17.04,0.025243,0.55718,0.46078,0.62549,0.58008,15.645
17.048,0.021359,0.55523,0.44902,0.66078,0.63477,15.254
17.056,0.019417,0.5523,0.46078,0.63529,0.60547,15.254
17.064,0.015534,0.55034,0.46471,0.62549,0.58398,15.45
17.072,0.01165,0.54839,0.46078,0.65098,0.61914,15.763
17.08,0.007767,0.54643,0.46078,0.67059,0.6543,16.076
17.088,0.0038835,0.54448,0.46078,0.63529,0.61523,16.271
17.096,0.0019417,0.5435,0.46471,0.64118,0.60938,16.389
17.104,0,0.5435,0.46078,0.62941,0.625,16.467
17.112,-0.0019417,0.54252,0.46078,0.63529,0.60547,16.584
17.12,-0.0038835,0.54252,0.47059,0.61961,0.5957,16.819
17.128,-0.0058252,0.5435,0.48431,0.63529,0.60938,17.014
17.136,-0.007767,0.54545,0.48039,0.62941,0.60547,17.21
17.144,-0.0097087,0.54741,0.48039,0.63529,0.61523,17.405
17.152,-0.01165,0.54839,0.47451,0.65098,0.64062,17.523
17.16,-0.013592,0.55034,0.48431,0.61569,0.58398,17.718
17.168,-0.015534,0.5523,0.48431,0.58431,0.54492,17.836
17.176,-0.017476,0.55425,0.48431,0.62549,0.60547,17.953
17.184,-0.017476,0.55621,0.48039,0.6451,0.61914,18.07
17.192,-0.019417,0.55914,0.50588,0.62941,0.58398,18.149
17.2,-0.019417,0.56305,0.52941,0.62549,0.55469,18.266
17.208,-0.021359,0.56598,0.55098,0.66471,0.5957,18.383
17.216,-0.023301,0.56891,0.55098,0.6451,0.55469,18.501
17.224,-0.025243,0.5738,0.57451,0.63529,0.53516,18.657
17.232,-0.027184,0.58065,0.58431,0.61961,0.53906,18.774
17.24,-0.029126,0.58749,0.6,0.58431,0.51562,18.814
17.248,-0.031068,0.59629,0.5902,0.5549,0.5,18.97
17.256,-0.03301,0.60508,0.57059,0.56078,0.51953,19.087
17.264,-0.03301,0.61584,0.5451,0.57059,0.5293,19.205
17.272,-0.034951,0.62659,0.51569,0.5902,0.56445,19.322
17.28,-0.034951,0.63734,0.49412,0.6098,0.5957,19.439
17.288,-0.036893,0.64809,0.48431,0.62941,0.62891,19.596
17.296,-0.038835,0.65885,0.48039,0.6098,0.5957,19.713
17.304,-0.040777,0.66764,0.4451,0.67647,0.6543,19.83
17.312,-0.040777,0.67449,0.48431,0.70588,0.66992,19.948
17.32,-0.042718,0.68231,0.60588,0.7451,0.53516,20.065
17.328,-0.04466,0.69013,0.87059,0.6451,0.14453,20.261
17.336,-0.046602,0.69697,1.0412,0.3451,-0.13867,20.378
17.344,-0.046602,0.70381,0.92549,0.16471,-0.1543,20.574
17.352,-0.048544,0.7087,0.81569,0.052941,0.23438,20.691
17.36,-0.050485,0.71359,0.73137,0.029412,0.33008,20.847
17.368,-0.052427,0.7175,0.62941,0.32353,0.48438,20.965
17.376,-0.052427,0.72043,0.53922,0.5549,0.59961,21.082
17.384,-0.056311,0.72239,0.50588,0.60588,0.61523,21.199
17.392,-0.058252,0.72239,0.48431,0.64118,0.62891,21.317
17.4,-0.058252,0.72239,0.48039,0.66471,0.66992,21.434
17.408,-0.060194,0.72043,0.48431,0.65098,0.64062,21.591
17.416,-0.062136,0.7175,0.47059,0.66078,0.63477,21.747
17.424,-0.062136,0.71359,0.48039,0.65098,0.61523,21.903
17.432,-0.064078,0.70968,0.47059,0.68039,0.64062,22.021
17.44,-0.066019,0.70479,0.47451,0.68627,0.6543,22.216
17.448,-0.067961,0.6999,0.48039,0.67647,0.66016,22.334
17.456,-0.069903,0.69404,0.48431,0.6549,0.61523,22.373
17.464,-0.069903,0.68719,0.50588,0.67647,0.61914,22.451
17.472,-0.071845,0.67937,0.50588,0.6549,0.58984,22.529
17.48,-0.071845,0.6696,0.5,0.67647,0.60547,22.568
17.488,-0.071845,0.65885,0.5098,0.69608,0.63477,22.647
17.496,-0.073786,0.64614,0.52941,0.67059,0.58984,22.686
17.504,-0.073786,0.63343,0.53922,0.68039,0.5957,22.842
17.512,-0.073786,0.62072,0.53529,0.68627,0.57422,22.96
17.52,-0.075728,0.60411,0.56078,0.66471,0.54492,23.194
17.528,-0.07767,0.58651,0.58431,0.67059,0.5293,23.312
17.536,-0.07767,0.56794,0.5902,0.65098,0.5,23.39
17.544,-0.079612,0.54839,0.61569,0.66471,0.50977,23.468
17.552,-0.081553,0.52884,0.6098,0.66078,0.49023,23.507
17.56,-0.083495,0.50831,0.62941,0.65098,0.4707,23.585
17.568,-0.083495,0.48876,0.6451,0.66471,0.48438,23.703
17.576,-0.085437,0.46921,0.61961,0.62941,0.44922,23.82
17.584,-0.085437,0.45064,0.62549,0.62549,0.4707,23.937
17.592,-0.085437,0.43206,0.6098,0.63529,0.5,24.094
17.6,-0.085437,0.41447,0.61569,0.6098,0.48438,24.25
17.608,-0.085437,0.39883,0.58431,0.61569,0.50977,24.407
17.616,-0.083495,0.38612,0.58039,0.60588,0.5293,24.563
17.624,-0.083495,0.37146,0.57059,0.59608,0.50586,24.72
17.632,-0.083495,0.35679,0.5451,0.63529,0.58008,24.876
17.64,-0.081553,0.34213,0.53529,0.60588,0.54492,25.072
17.648,-0.081553,0.32747,0.53529,0.59608,0.53516,25.189
17.656,-0.079612,0.31378,0.52941,0.6098,0.57422,25.267
17.664,-0.07767,0.30108,0.53529,0.62941,0.60547,25.385
17.672,-0.075728,0.28935,0.5,0.61961,0.60938,25.502
17.68,-0.073786,0.27957,0.48431,0.62941,0.5957,25.658
17.688,-0.073786,0.27077,0.47451,0.63529,0.61523,25.697
17.696,-0.071845,0.26197,0.4902,0.6549,0.60938,25.815
17.704,-0.069903,0.25709,0.48431,0.66078,0.62891,25.971
17.712,-0.067961,0.2522,0.50588,0.62941,0.58398,26.01
17.72,-0.066019,0.24731,0.49412,0.6098,0.57031,26.128
17.728,-0.064078,0.24242,0.47451,0.65098,0.625,26.206
17.736,-0.062136,0.23754,0.44902,0.6549,0.62891,26.323
17.744,-0.060194,0.23265,0.47059,0.66471,0.63477,26.402
17.752,-0.058252,0.22776,0.48431,0.63529,0.59961,26.519
17.76,-0.056311,0.22385,0.51569,0.61961,0.57031,26.597
17.768,-0.054369,0.21994,0.49412,0.6451,0.61523,26.714
17.776,-0.052427,0.21701,0.48431,0.63529,0.59961,26.832
17.784,-0.052427,0.2131,0.50588,0.63529,0.58984,26.949
17.792,-0.050485,0.21017,0.48039,0.6549,0.625,27.066
17.8,-0.050485,0.20626,0.47059,0.67059,0.64453,27.145
17.808,-0.050485,0.20528,0.47451,0.65098,0.61914,27.223
17.816,-0.050485,0.2043,0.5,0.62549,0.57422,27.262
17.824,-0.050485,0.20235,0.5098,0.61961,0.57031,27.34
17.832,-0.050485,0.19941,0.50588,0.66471,0.625,27.379
17.84,-0.050485,0.19648,0.51569,0.67059,0.64062,27.536
17.848,-0.050485,0.19355,0.52941,0.60588,0.55078,27.575
17.856,-0.050485,0.19159,0.5098,0.59608,0.53516,27.653
17.864,-0.050485,0.19062,0.5,0.62549,0.57422,27.77
17.872,-0.050485,0.18964,0.52941,0.6098,0.56445,27.849
17.88,-0.050485,0.19159,0.5098,0.6451,0.60547,27.966
17.888,-0.050485,0.19453,0.52549,0.64118,0.5957,28.005
17.896,-0.050485,0.20137,0.53529,0.68039,0.64062,28.083
17.904,-0.050485,0.20919,0.51569,0.61569,0.55078,28.201
17.912,-0.050485,0.21896,0.56078,0.59608,0.50977,28.201
17.92,-0.050485,0.23069,0.5902,0.62549,0.5293,28.279
17.928,-0.050485,0.24536,0.58039,0.66471,0.57031,28.318
17.936,-0.050485,0.261,0.57451,0.65098,0.54492,28.318
17.944,-0.050485,0.27761,0.6098,0.6451,0.53906,28.396
17.952,-0.050485,0.29619,0.62549,0.6549,0.54492,28.396
17.96,-0.050485,0.31476,0.65098,0.56471,0.46094,28.475
17.968,-0.050485,0.33333,0.66078,0.56078,0.46484,28.514
17.976,-0.050485,0.35191,0.61961,0.56078,0.47461,28.514
17.984,-0.048544,0.37048,0.59608,0.57059,0.51953,28.475
17.992,-0.046602,0.38905,0.62549,0.5451,0.5,28.279
18,-0.046602,0.40762,0.6098,0.56078,0.51953,28.162
18.008,-0.04466,0.42424,0.63529,0.57451,0.5293,27.888
18.016,-0.040777,0.43891,0.62549,0.6,0.54492,27.77
18.024,-0.038835,0.45455,0.69608,0.56078,0.49414,27.692
18.032,-0.034951,0.47019,0.69608,0.6451,0.55469,27.692
18.04,-0.031068,0.48583,0.81176,0.61569,0.46094,27.692
18.048,-0.029126,0.49951,0.99216,0.59608,0.20508,27.849
18.056,-0.025243,0.51222,1.2824,0.41961,-0.16016,28.005
18.064,-0.019417,0.52297,1.3882,0.14902,-0.32422,28.318
18.072,-0.015534,0.53177,1.2176,0.16471,0.019531,28.592
18.08,-0.0097087,0.53861,1.0412,0.094118,0.23047,28.827
18.088,-0.0038835,0.54448,0.86078,0.084314,0.33008,28.944
18.096,0.0019417,0.54839,0.8,0.40392,0.50977,29.022
18.104,0.007767,0.55034,0.6902,0.56078,0.59961,29.061
18.112,0.013592,0.55132,0.61569,0.51569,0.48047,29.218
18.12,0.019417,0.55132,0.58039,0.5451,0.51953,29.257
18.128,0.027184,0.55132,0.60588,0.6,0.56445,29.257
18.136,0.034951,0.55034,0.53922,0.6451,0.63477,29.218
18.144,0.042718,0.54936,0.50588,0.61569,0.59961,28.944
18.152,0.052427,0.54741,0.53529,0.61961,0.5957,28.592
18.16,0.064078,0.54545,0.5098,0.61569,0.60938,27.692
