Time [s], RESP, II, V, AVR, PLETH
0,0.54034,-0.125,0.75098,0.98047,0.59531
0.008,0.54523,-0.11914,0.74118,0.96875,0.57967
0.016,0.55012,-0.11523,0.75098,0.97461,0.56403
0.024,0.55501,-0.10938,0.75098,0.96875,0.54839
0.032,0.5599,-0.11523,0.75098,0.96875,0.53568
0.04,0.56235,-0.10938,0.75098,0.96875,0.52395
0.048,0.56724,-0.099609,0.76078,0.95508,0.51222
0.056,0.56968,-0.089844,0.76667,0.94531,0.50147
0.064,0.57457,-0.099609,0.77059,0.96484,0.49071
0.072,0.57702,-0.080078,0.77059,0.94531,0.48094
0.08,0.57946,-0.064453,0.77647,0.93555,0.47214
0.088,0.58191,-0.039062,0.77059,0.91992,0.46334
0.096,0.58435,-0.025391,0.77647,0.91406,0.45552
0.104,0.58435,0,0.78039,0.90039,0.44868
0.112,0.5868,0.025391,0.7902,0.87891,0.44184
0.12,0.5868,0.060547,0.7902,0.86523,0.43597
0.128,0.5868,0.095703,0.78627,0.84375,0.43011
0.136,0.5868,0.125,0.78039,0.82422,0.42424
0.144,0.5868,0.13086,0.77059,0.83008,0.41935
0.152,0.5868,0.14062,0.76078,0.82031,0.41447
0.16,0.5868,0.13477,0.75098,0.82031,0.40958
0.168,0.5868,0.14453,0.75098,0.80469,0.40469
0.176,0.5868,0.12109,0.73529,0.82422,0.3998
0.184,0.58435,0.085938,0.73137,0.84375,0.39394
0.192,0.58435,0.044922,0.72549,0.86914,0.38807
0.2,0.58191,0,0.71569,0.88867,0.38221
0.208,0.58191,-0.044922,0.7,0.91406,0.37634
0.216,0.57946,-0.074219,0.69608,0.92969,0.37048
0.224,0.57946,-0.09375,0.68039,0.94531,0.36559
0.232,0.57702,-0.10938,0.68039,0.94922,0.36168
0.24,0.57702,-0.11914,0.67647,0.95898,0.35679
0.248,0.57457,-0.12891,0.68039,0.96875,0.35191
0.256,0.57457,-0.13477,0.68039,0.96875,0.34702
0.264,0.57213,-0.13867,0.68627,0.96875,0.34115
0.272,0.57213,-0.14453,0.68039,0.97461,0.33627
0.28,0.57213,-0.14453,0.68039,0.96875,0.33236
0.288,0.56968,-0.14453,0.68627,0.97461,0.32747
0.296,0.56968,-0.14453,0.6902,0.98438,0.32356
0.304,0.56968,-0.14453,0.6902,0.96875,0.31965
0.312,0.56968,-0.13477,0.6902,0.96484,0.31574
0.32,0.56968,-0.125,0.68627,0.95898,0.31183
0.328,0.56968,-0.13867,0.68627,0.96875,0.3089
0.336,0.56968,-0.125,0.67647,0.95898,0.30596
0.344,0.57213,-0.125,0.67059,0.96484,0.30205
0.352,0.57457,-0.11914,0.66471,0.95898,0.29814
0.36,0.57702,-0.11523,0.66078,0.95508,0.29423
0.368,0.57946,-0.11914,0.6549,0.96484,0.28935
0.376,0.58191,-0.11523,0.65098,0.95898,0.28543
0.384,0.5868,-0.10352,0.6451,0.94922,0.28152
0.392,0.58924,-0.099609,0.6451,0.94531,0.27761
0.4,0.59413,-0.064453,0.6549,0.92383,0.2737
0.408,0.59658,-0.035156,0.66471,0.9043,0.27077
0.416,0.59902,-0.025391,0.67647,0.90039,0.26882
0.424,0.60391,-0.080078,0.6451,0.92969,0.26979
0.432,0.60636,-0.083984,0.61569,0.93555,0.2737
0.44,0.6088,-0.064453,0.61961,0.91406,0.28055
0.448,0.61369,-0.080078,0.60588,0.92383,0.29423
0.456,0.61614,-0.080078,0.60588,0.92383,0.31281
0.464,0.62103,-0.064453,0.61569,0.92383,0.33822
0.472,0.62347,-0.074219,0.61961,0.93555,0.3695
0.48,0.62836,-0.074219,0.62549,0.94531,0.40567
0.488,0.63081,-0.070312,0.62941,0.92969,0.44379
0.496,0.6357,-0.089844,0.62549,0.94922,0.48387
0.504,0.64059,-0.089844,0.62941,0.94531,0.52199
0.512,0.64548,-0.083984,0.62941,0.93945,0.55816
0.52,0.65281,-0.089844,0.62941,0.94922,0.5914
0.528,0.66015,-0.089844,0.62941,0.94922,0.61779
0.536,0.66504,-0.11523,0.63529,0.96484,0.63832
0.544,0.67237,-0.18359,0.6549,0.99414,0.65787
0.552,0.67971,-0.058594,0.6902,0.90039,0.67449
0.56,0.68704,0.27539,0.48431,0.66016,0.68719
0.568,0.69193,0.78516,0.058824,0.32422,0.69697
0.576,0.69927,1.0645,-0.30196,0.17969,0.70283
0.584,0.70416,0.52539,0.058824,0.56445,0.70479
0.592,0.70905,0.041016,0.52549,0.875,0.70479
0.6,0.71149,-0.044922,0.7098,0.92383,0.70186
0.608,0.71394,-0.089844,0.73529,0.95508,0.69599
0.616,0.71394,-0.125,0.74118,0.96875,0.68719
0.624,0.71394,-0.16016,0.74118,0.99414,0.67644
0.632,0.71394,-0.1543,0.75098,0.99414,0.66569
0.64,0.71149,-0.14453,0.75098,0.98438,0.652
0.648,0.70905,-0.1543,0.75098,0.99414,0.63734
0.656,0.70416,-0.14844,0.74118,0.98438,0.6217
0.664,0.69682,-0.14453,0.74118,0.98438,0.60606
0.672,0.68949,-0.14453,0.74118,0.99023,0.58944
0.68,0.67726,-0.13867,0.73529,0.98438,0.57283
0.688,0.66748,-0.125,0.74118,0.97461,0.55816
0.696,0.65281,-0.11914,0.7451,0.98047,0.54448
0.704,0.64059,-0.10938,0.7451,0.96875,0.53079
0.712,0.62347,-0.10352,0.7451,0.95898,0.51711
0.72,0.6088,-0.09375,0.75098,0.96484,0.50538
0.728,0.59169,-0.080078,0.75098,0.95508,0.49658
0.736,0.57702,-0.058594,0.75098,0.93555,0.48876
0.744,0.56235,-0.044922,0.75098,0.92383,0.48094
0.752,0.54523,-0.019531,0.76078,0.91016,0.4741
0.76,0.53056,0.0058594,0.76078,0.90039,0.46628
0.768,0.51345,0.054688,0.77647,0.86523,0.45943
0.776,0.49878,0.070312,0.77059,0.85938,0.45259
0.784,0.48166,0.099609,0.77059,0.84375,0.44575
0.792,0.46699,0.13477,0.77059,0.83008,0.43891
0.8,0.45232,0.15039,0.7549,0.81055,0.43206
0.808,0.4401,0.15039,0.75098,0.82031,0.4262
0.816,0.42543,0.16016,0.7451,0.80469,0.42033
0.824,0.4132,0.15625,0.73529,0.81055,0.41642
0.832,0.40098,0.15039,0.73137,0.80469,0.41349
0.84,0.38875,0.12109,0.72549,0.82422,0.40958
0.848,0.37653,0.089844,0.71569,0.83398,0.40469
0.856,0.3643,0.044922,0.7,0.85938,0.39883
0.864,0.35452,0,0.6902,0.88867,0.39394
0.872,0.3423,-0.025391,0.68039,0.90039,0.38807
0.88,0.33252,-0.064453,0.67059,0.92383,0.38221
0.888,0.32274,-0.083984,0.66078,0.93945,0.37732
0.896,0.3154,-0.09375,0.66078,0.94922,0.37341
0.904,0.30807,-0.09375,0.66078,0.94922,0.3695
0.912,0.30073,-0.089844,0.67059,0.93945,0.36559
0.92,0.2934,-0.11523,0.66078,0.95898,0.36168
0.928,0.28606,-0.11523,0.66078,0.95898,0.35875
0.936,0.27873,-0.10938,0.66471,0.95898,0.35679
0.944,0.27139,-0.09375,0.67059,0.94531,0.35386
0.952,0.2665,-0.10352,0.66471,0.95508,0.34995
0.96,0.26161,-0.10352,0.66078,0.95898,0.34604
0.968,0.25428,-0.10352,0.66471,0.95508,0.34213
0.976,0.24939,-0.09375,0.66471,0.94922,0.33822
0.984,0.24694,-0.089844,0.66471,0.94531,0.33431
0.992,0.24205,-0.083984,0.66078,0.94531,0.3304
1,0.23716,-0.089844,0.6549,0.94531,0.32649
1.008,0.23472,-0.09375,0.65098,0.94922,0.32258
1.016,0.23227,-0.09375,0.65098,0.94531,0.31867
1.024,0.22983,-0.09375,0.65098,0.94531,0.31672
1.032,0.22983,-0.09375,0.6451,0.94922,0.31378
1.04,0.22738,-0.080078,0.6451,0.93945,0.31085
1.048,0.22738,-0.083984,0.64118,0.94531,0.30596
1.056,0.22738,-0.09375,0.64118,0.94531,0.30205
1.064,0.22738,-0.048828,0.6549,0.91406,0.29814
1.072,0.22738,-0.044922,0.66471,0.91992,0.29521
1.08,0.22738,-0.074219,0.67647,0.91406,0.29619
1.088,0.22983,-0.099609,0.63529,0.94531,0.3001
1.096,0.23227,-0.09375,0.61961,0.93555,0.3089
1.104,0.23472,-0.083984,0.62941,0.93945,0.32356
1.112,0.23716,-0.11523,0.6098,0.94531,0.34311
1.12,0.23961,-0.11523,0.6098,0.94531,0.36852
1.128,0.24205,-0.099609,0.62549,0.94531,0.39296
1.136,0.2445,-0.10352,0.62549,0.95508,0.41935
1.144,0.24694,-0.09375,0.62549,0.94922,0.45161
1.152,0.24939,-0.099609,0.62941,0.94531,0.4868
1.16,0.25183,-0.10352,0.62941,0.95508,0.52199
1.168,0.25672,-0.09375,0.62941,0.94922,0.55718
1.176,0.25917,-0.09375,0.62941,0.95508,0.58847
1.184,0.26161,-0.083984,0.62941,0.94531,0.61779
1.192,0.26406,-0.080078,0.63529,0.94531,0.64321
1.2,0.26895,-0.13867,0.64118,0.97461,0.66569
1.208,0.27139,-0.16992,0.68039,0.99023,0.68426
1.216,0.27384,0.14062,0.60588,0.75977,0.6999
1.224,0.27628,0.66016,0.28431,0.41992,0.7087
1.232,0.27873,1.1387,-0.13725,0.12109,0.71457
1.24,0.28117,1.2441,-0.28824,0.080078,0.7175
1.248,0.28362,0.29492,0.31961,0.70898,0.71848
1.256,0.28606,0.019531,0.64118,0.89453,0.71652
1.264,0.28851,-0.044922,0.72157,0.93555,0.71261
1.272,0.29095,-0.09375,0.72549,0.96484,0.70577
1.28,0.29095,-0.11914,0.74118,0.98047,0.69599
1.288,0.2934,-0.13867,0.7451,0.98438,0.68328
1.296,0.2934,-0.14453,0.75098,0.99023,0.66764
1.304,0.2934,-0.13867,0.7549,0.98438,0.652
1.312,0.29584,-0.14453,0.7549,0.99023,0.63539
1.32,0.29584,-0.12891,0.7549,0.98047,0.61877
1.328,0.29584,-0.13477,0.75098,0.98438,0.60411
1.336,0.2934,-0.125,0.7549,0.97461,0.59042
1.344,0.2934,-0.11914,0.76078,0.96875,0.57576
1.352,0.2934,-0.11523,0.7549,0.96484,0.56109
1.36,0.29095,-0.11914,0.7549,0.96875,0.54839
1.368,0.28851,-0.125,0.7549,0.98047,0.53666
1.376,0.28851,-0.10938,0.76667,0.96875,0.5259
1.384,0.28606,-0.099609,0.76667,0.96484,0.51613
1.392,0.28362,-0.089844,0.77059,0.95898,0.50635
1.4,0.28117,-0.070312,0.77059,0.94531,0.49756
1.408,0.27873,-0.058594,0.77647,0.93945,0.48974
1.416,0.27628,-0.029297,0.78627,0.91992,0.48192
1.424,0.27384,-0.0097656,0.78039,0.9043,0.47507
1.432,0.27139,0.019531,0.7902,0.88477,0.46921
1.44,0.26895,0.060547,0.7902,0.875,0.46334
1.448,0.2665,0.080078,0.78627,0.85547,0.45748
1.456,0.26406,0.10547,0.78039,0.83984,0.45161
1.464,0.26161,0.12109,0.77647,0.83008,0.44575
1.472,0.25917,0.11523,0.76667,0.83398,0.43891
1.48,0.25428,0.125,0.76667,0.82422,0.43304
1.488,0.25183,0.099609,0.7451,0.83984,0.42815
1.496,0.24939,0.089844,0.74118,0.84375,0.42326
1.504,0.24694,0.054688,0.72549,0.86523,0.4174
1.512,0.24205,0.03125,0.72157,0.86914,0.41251
1.52,0.23961,-0.013672,0.7,0.89453,0.40567
1.528,0.23716,-0.058594,0.68039,0.92383,0.39883
1.536,0.23227,-0.083984,0.67059,0.93945,0.39296
1.544,0.22983,-0.10352,0.66471,0.94531,0.3871
1.552,0.22494,-0.125,0.66078,0.95898,0.38025
1.56,0.22005,-0.125,0.66471,0.96484,0.37439
1.568,0.21516,-0.12891,0.66471,0.96484,0.3695
1.576,0.21027,-0.13867,0.66078,0.96875,0.36559
1.584,0.20538,-0.14453,0.66078,0.96875,0.36168
1.592,0.20049,-0.13867,0.66471,0.97461,0.35777
1.6,0.1956,-0.13867,0.66471,0.96875,0.35288
1.608,0.19071,-0.125,0.67059,0.95898,0.348
1.616,0.18826,-0.11914,0.67059,0.96484,0.34213
1.624,0.18337,-0.11523,0.67647,0.95508,0.33822
1.632,0.18093,-0.10938,0.67647,0.94922,0.33529
1.64,0.17604,-0.11914,0.67059,0.95898,0.3304
1.648,0.17359,-0.11523,0.67059,0.95508,0.32551
1.656,0.17115,-0.10938,0.66471,0.95898,0.3216
1.664,0.1687,-0.099609,0.66471,0.94531,0.31769
1.672,0.16626,-0.10938,0.6549,0.95508,0.31476
1.68,0.16381,-0.10352,0.65098,0.95898,0.31085
1.688,0.16137,-0.09375,0.65098,0.94531,0.30792
1.696,0.16137,-0.099609,0.6451,0.94922,0.30401
1.704,0.15892,-0.09375,0.6451,0.94922,0.3001
1.712,0.15892,-0.083984,0.6549,0.93945,0.29717
1.72,0.15892,-0.054688,0.66471,0.91992,0.29326
1.728,0.15892,-0.044922,0.68039,0.91016,0.29228
1.736,0.15892,-0.089844,0.66471,0.92969,0.29228
1.744,0.15892,-0.099609,0.62549,0.93555,0.29423
1.752,0.15892,-0.10938,0.61961,0.94531,0.3001
1.76,0.15892,-0.10352,0.62549,0.93555,0.31085
1.768,0.15892,-0.11914,0.61569,0.92383,0.32747
1.776,0.15892,-0.09375,0.61961,0.92383,0.34995
1.784,0.15892,-0.10352,0.62549,0.94531,0.37732
1.792,0.15892,-0.11523,0.62941,0.95508,0.41153
1.8,0.15648,-0.11914,0.62941,0.95898,0.4477
1.808,0.15648,-0.11523,0.62941,0.96484,0.48485
1.816,0.15403,-0.11914,0.62941,0.96875,0.52297
1.824,0.15403,-0.11914,0.62941,0.95898,0.55523
1.832,0.15159,-0.10352,0.63529,0.94922,0.58358
1.84,0.14914,-0.099609,0.63529,0.95508,0.6129
1.848,0.1467,-0.11523,0.64118,0.94922,0.64125
1.856,0.14425,-0.17969,0.6549,0.99023,0.66764
1.864,0.14181,-0.074219,0.68627,0.9043,0.69013
1.872,0.13936,0.31445,0.5,0.62891,0.70968
1.88,0.13447,0.85547,0.094118,0.28516,0.72532
1.888,0.13203,1.1992,-0.28824,0.085938,0.73705
1.896,0.12958,0.68945,0.013725,0.45508,0.74389
1.904,0.12469,0.11523,0.48039,0.83398,0.74878
1.912,0.12225,-0.013672,0.6902,0.91016,0.74976
1.92,0.1198,-0.058594,0.72549,0.93945,0.7478
1.928,0.11736,-0.09375,0.73529,0.95898,0.74389
1.936,0.11491,-0.125,0.75098,0.98438,0.73705
1.944,0.11002,-0.14453,0.75098,0.99414,0.72825
1.952,0.10513,-0.14453,0.75098,0.98438,0.7175
1.96,0.10024,-0.12891,0.7549,0.97461,0.70577
1.968,0.095355,-0.13477,0.7549,0.98047,0.6911
1.976,0.090465,-0.12891,0.7549,0.97461,0.67546
1.984,0.085575,-0.13477,0.7549,0.98438,0.65885
1.992,0.080685,-0.11914,0.7549,0.97461,0.64223
2,0.075795,-0.11914,0.75098,0.97461,0.62463
2.008,0.070905,-0.11523,0.76078,0.96875,0.60899
2.016,0.06357,-0.10938,0.76078,0.96875,0.59335
2.024,0.05868,-0.11914,0.76667,0.97461,0.57967
2.032,0.05379,-0.10938,0.77059,0.96875,0.56794
2.04,0.046455,-0.099609,0.77059,0.96875,0.55718
2.048,0.041565,-0.09375,0.77647,0.96484,0.54741
2.056,0.03423,-0.074219,0.78627,0.94531,0.53763
2.064,0.026895,-0.048828,0.7902,0.93555,0.52884
2.072,0.01956,-0.035156,0.79608,0.92383,0.51906
2.08,0.01467,0.0058594,0.8,0.89453,0.51026
2.088,0.007335,0.025391,0.81176,0.87891,0.50049
2.096,0.002445,0.060547,0.8,0.86914,0.49169
2.104,-0.00489,0.085938,0.79608,0.84961,0.48387
2.112,-0.00978,0.10547,0.79608,0.84375,0.47605
2.12,-0.017115,0.125,0.7902,0.83008,0.46921
2.128,-0.02445,0.11523,0.77647,0.83008,0.46334
2.136,-0.031785,0.11133,0.77059,0.83008,0.4565
2.144,-0.03912,0.095703,0.76078,0.83984,0.44966
2.152,-0.046455,0.085938,0.75098,0.83984,0.44282
2.16,-0.05379,0.035156,0.73529,0.86523,0.43597
2.168,-0.061125,-0.0039062,0.72157,0.88867,0.42815
2.176,-0.06846,-0.044922,0.7,0.9043,0.42131
2.184,-0.075795,-0.070312,0.6902,0.92383,0.41349
2.192,-0.08313,-0.09375,0.68039,0.93945,0.40665
2.2,-0.090465,-0.11914,0.66471,0.95508,0.3998
2.208,-0.0978,-0.12891,0.66471,0.96484,0.39394
2.216,-0.10513,-0.12891,0.66471,0.95898,0.38807
2.224,-0.11247,-0.13477,0.67059,0.96484,0.38221
2.232,-0.1198,-0.13867,0.67059,0.96875,0.37732
2.24,-0.12714,-0.125,0.67647,0.94922,0.37243
2.248,-0.13203,-0.13477,0.67059,0.96484,0.36657
2.256,-0.13936,-0.12891,0.67059,0.96875,0.36168
2.264,-0.14425,-0.11914,0.67647,0.95898,0.35679
2.272,-0.15159,-0.125,0.67059,0.96484,0.35191
2.28,-0.15648,-0.125,0.67059,0.96875,0.34604
2.288,-0.16381,-0.11914,0.67647,0.96484,0.34018
2.296,-0.1687,-0.11523,0.67059,0.95898,0.33333
2.304,-0.17359,-0.099609,0.67647,0.94531,0.32747
2.312,-0.18093,-0.09375,0.67059,0.93945,0.3216
2.32,-0.18582,-0.10938,0.6549,0.95508,0.31769
2.328,-0.18826,-0.099609,0.6549,0.94531,0.31476
2.336,-0.19071,-0.099609,0.6549,0.94922,0.31281
2.344,-0.19315,-0.089844,0.6549,0.93555,0.30987
2.352,-0.1956,-0.099609,0.6549,0.94531,0.30596
2.36,-0.19804,-0.089844,0.6549,0.93945,0.30108
2.368,-0.19804,-0.054688,0.67059,0.92383,0.29521
2.376,-0.20049,-0.044922,0.68627,0.91406,0.29032
2.384,-0.20049,-0.070312,0.68039,0.92383,0.28641
2.392,-0.20049,-0.099609,0.64118,0.94531,0.28543
2.4,-0.20049,-0.083984,0.63529,0.92383,0.28739
2.408,-0.20049,-0.080078,0.62941,0.92383,0.29423
2.416,-0.20049,-0.11914,0.61961,0.94531,0.30596
2.424,-0.20049,-0.11914,0.61569,0.94531,0.32063
2.432,-0.20049,-0.10938,0.62941,0.95508,0.3392
2.44,-0.20049,-0.11914,0.62941,0.96484,0.36461
2.448,-0.20049,-0.11914,0.63529,0.95898,0.39492
2.456,-0.20049,-0.11914,0.63529,0.96875,0.42913
2.464,-0.20049,-0.11523,0.64118,0.95508,0.46432
2.472,-0.20049,-0.11914,0.64118,0.96875,0.49951
2.48,-0.20049,-0.11914,0.64118,0.96484,0.53372
2.488,-0.20049,-0.10938,0.6451,0.96484,0.56598
2.496,-0.20049,-0.099609,0.6451,0.95508,0.59531
2.504,-0.19804,-0.1543,0.6549,0.98438,0.62072
2.512,-0.19804,-0.18359,0.6902,1,0.64321
2.52,-0.19804,0.099609,0.6098,0.77539,0.65885
2.528,-0.19804,0.57031,0.26863,0.46094,0.67058
2.536,-0.1956,1.0254,-0.15686,0.16602,0.67351
2.544,-0.1956,1.1035,-0.30784,0.14062,0.67058
2.552,-0.1956,0.24023,0.2902,0.74414,0.6696
2.56,-0.1956,0.019531,0.62941,0.88867,0.66862
2.568,-0.1956,-0.035156,0.72549,0.92383,0.66569
2.576,-0.1956,-0.080078,0.74118,0.94922,0.6608
2.584,-0.1956,-0.11914,0.75098,0.97461,0.65396
2.592,-0.19804,-0.12891,0.75098,0.98438,0.64418
2.6,-0.19804,-0.125,0.7549,0.98438,0.63441
2.608,-0.19804,-0.12891,0.75098,0.98438,0.6217
2.616,-0.20049,-0.11914,0.7549,0.96875,0.60802
2.624,-0.20049,-0.11914,0.7549,0.96875,0.59433
2.632,-0.20293,-0.11523,0.76078,0.96875,0.58162
2.64,-0.20538,-0.11914,0.7549,0.96875,0.56696
2.648,-0.20538,-0.11523,0.75098,0.96875,0.5523
2.656,-0.20782,-0.11914,0.75098,0.96875,0.53763
2.664,-0.20782,-0.11523,0.75098,0.96484,0.52493
2.672,-0.21027,-0.10938,0.7549,0.96875,0.51222
2.68,-0.21271,-0.10352,0.76078,0.96484,0.50049
2.688,-0.21516,-0.099609,0.76078,0.96875,0.48974
2.696,-0.22005,-0.083984,0.77059,0.95508,0.48094
2.704,-0.22249,-0.074219,0.77059,0.94531,0.47214
2.712,-0.22738,-0.054688,0.77647,0.93945,0.4653
2.72,-0.22983,-0.035156,0.78627,0.92383,0.45846
2.728,-0.23227,-0.0039062,0.79608,0.9043,0.45357
2.736,-0.23472,0.015625,0.79608,0.88867,0.44575
2.744,-0.23716,0.060547,0.8,0.85547,0.43793
2.752,-0.23961,0.085938,0.79608,0.84375,0.43109
2.76,-0.2445,0.099609,0.79608,0.83984,0.42326
2.768,-0.24694,0.11133,0.79608,0.83008,0.41642
2.776,-0.25183,0.13086,0.7902,0.81445,0.40958
2.784,-0.25428,0.125,0.78039,0.82422,0.40274
2.792,-0.25672,0.125,0.77647,0.81445,0.39687
2.8,-0.25917,0.10547,0.77059,0.81055,0.39003
2.808,-0.26406,0.064453,0.75098,0.84375,0.38319
2.816,-0.2665,0.019531,0.73137,0.875,0.37732
2.824,-0.26895,-0.025391,0.71569,0.89453,0.37243
2.832,-0.27139,-0.054688,0.7,0.91406,0.36852
2.84,-0.27628,-0.083984,0.68627,0.92969,0.36559
2.848,-0.27873,-0.10352,0.67059,0.94531,0.36168
2.856,-0.28117,-0.11523,0.66471,0.94531,0.35777
2.864,-0.28362,-0.125,0.66471,0.95508,0.35386
2.872,-0.28851,-0.13477,0.66078,0.96484,0.348
2.88,-0.29095,-0.11914,0.66471,0.95898,0.34213
2.888,-0.2934,-0.125,0.66471,0.95508,0.33724
2.896,-0.29584,-0.125,0.66471,0.96484,0.33138
2.904,-0.29829,-0.11914,0.66471,0.95898,0.32649
2.912,-0.30073,-0.10938,0.67059,0.95508,0.3216
2.92,-0.30318,-0.10938,0.66471,0.94922,0.31867
2.928,-0.30562,-0.11523,0.66471,0.95508,0.31476
2.936,-0.30562,-0.10938,0.66471,0.95508,0.31183
2.944,-0.30807,-0.099609,0.66471,0.94531,0.3089
2.952,-0.30807,-0.09375,0.66078,0.94531,0.30596
2.96,-0.30807,-0.09375,0.6549,0.94531,0.30205
2.968,-0.30807,-0.089844,0.6549,0.93555,0.29912
2.976,-0.30562,-0.099609,0.65098,0.94531,0.29521
2.984,-0.30562,-0.09375,0.65098,0.94531,0.2913
2.992,-0.30318,-0.083984,0.65098,0.92969,0.28641
3,-0.30318,-0.09375,0.63529,0.94531,0.28152
3.008,-0.30073,-0.099609,0.63529,0.94531,0.27664
3.016,-0.29829,-0.09375,0.64118,0.94531,0.27175
3.024,-0.2934,-0.048828,0.66078,0.91992,0.26784
3.032,-0.29095,-0.039062,0.67059,0.91016,0.26491
3.04,-0.28851,-0.054688,0.68039,0.91992,0.26197
3.048,-0.28362,-0.089844,0.63529,0.92969,0.261
3.056,-0.28117,-0.09375,0.61569,0.93945,0.261
3.064,-0.27873,-0.080078,0.61961,0.92383,0.26588
3.072,-0.27384,-0.10352,0.60588,0.92383,0.27566
3.08,-0.27139,-0.11523,0.60588,0.93555,0.29032
3.088,-0.26895,-0.09375,0.61569,0.92969,0.31183
3.096,-0.2665,-0.089844,0.62941,0.93945,0.33822
3.104,-0.26406,-0.10352,0.61961,0.95508,0.36852
3.112,-0.26161,-0.10938,0.61961,0.96484,0.40078
3.12,-0.25917,-0.10352,0.61961,0.95898,0.43011
3.128,-0.25672,-0.10352,0.61961,0.96484,0.45748
3.136,-0.25428,-0.099609,0.61961,0.95508,0.48583
3.144,-0.25183,-0.089844,0.62549,0.94922,0.5132
3.152,-0.24939,-0.09375,0.62941,0.94922,0.53861
3.16,-0.24694,-0.12891,0.63529,0.96484,0.56012
3.168,-0.2445,-0.16406,0.66471,0.98047,0.57869
3.176,-0.24205,0.041016,0.68627,0.82031,0.59335
3.184,-0.23961,0.44922,0.3549,0.53516,0.60411
3.192,-0.23961,0.93555,-0.096078,0.2207,0.61095
3.2,-0.23716,1.0645,-0.30784,0.15039,0.61388
3.208,-0.23472,0.3457,0.17451,0.67969,0.61388
3.216,-0.23227,0.050781,0.57059,0.875,0.60997
3.224,-0.23227,-0.0039062,0.70588,0.9043,0.60411
3.232,-0.22983,-0.058594,0.72549,0.93945,0.59726
3.24,-0.22983,-0.089844,0.73529,0.95508,0.58847
3.248,-0.22983,-0.10938,0.7451,0.96875,0.57869
3.256,-0.22738,-0.11914,0.75098,0.97461,0.56794
3.264,-0.22738,-0.10938,0.75098,0.96875,0.55523
3.272,-0.22738,-0.10352,0.7549,0.96875,0.54154
3.28,-0.22738,-0.11523,0.75098,0.96875,0.52688
3.288,-0.22738,-0.11523,0.7549,0.96875,0.5132
3.296,-0.22738,-0.10352,0.75098,0.96484,0.49951
3.304,-0.22738,-0.11523,0.7549,0.96875,0.48583
3.312,-0.22738,-0.10352,0.76078,0.96484,0.4741
3.32,-0.22983,-0.11523,0.76078,0.96875,0.46432
3.328,-0.23227,-0.10352,0.76078,0.96875,0.4565
3.336,-0.23472,-0.099609,0.76667,0.96484,0.44966
3.344,-0.23472,-0.099609,0.76078,0.96484,0.44282
3.352,-0.23716,-0.089844,0.77059,0.95508,0.43597
3.36,-0.23961,-0.074219,0.77059,0.94531,0.42913
3.368,-0.24205,-0.054688,0.78627,0.92969,0.42229
3.376,-0.24205,-0.029297,0.78627,0.92383,0.41642
3.384,-0.2445,0,0.7902,0.90039,0.40958
3.392,-0.24694,0.019531,0.7902,0.88477,0.40274
3.4,-0.24694,0.054688,0.79608,0.86914,0.39785
3.408,-0.24939,0.085938,0.7902,0.84961,0.39101
3.416,-0.25183,0.11523,0.79608,0.83008,0.38416
3.424,-0.25183,0.125,0.78039,0.83008,0.37928
3.432,-0.25428,0.13477,0.78039,0.82031,0.37537
3.44,-0.25428,0.14062,0.77647,0.80469,0.3695
3.448,-0.25672,0.15039,0.78039,0.78906,0.36461
3.456,-0.25672,0.12109,0.77059,0.81445,0.3607
3.464,-0.25672,0.076172,0.75098,0.83984,0.35679
3.472,-0.25917,0.041016,0.74118,0.85938,0.35191
3.48,-0.25917,0,0.72157,0.87891,0.34702
3.488,-0.25917,-0.039062,0.69608,0.9043,0.34213
3.496,-0.25917,-0.064453,0.68039,0.92383,0.33627
3.504,-0.26161,-0.083984,0.66471,0.93555,0.3304
3.512,-0.26161,-0.09375,0.6549,0.93555,0.32551
3.52,-0.26161,-0.10938,0.6549,0.94531,0.3216
3.528,-0.26161,-0.11523,0.6549,0.94922,0.31769
3.536,-0.26161,-0.11914,0.6549,0.95898,0.31378
3.544,-0.26161,-0.11523,0.6549,0.95508,0.30987
3.552,-0.26161,-0.099609,0.66078,0.93945,0.30596
3.56,-0.25917,-0.11523,0.6549,0.95508,0.30303
3.568,-0.25672,-0.11914,0.65098,0.95898,0.29912
3.576,-0.25428,-0.11523,0.6549,0.95508,0.29619
3.584,-0.25183,-0.11914,0.6549,0.95508,0.29228
3.592,-0.24694,-0.099609,0.6549,0.94922,0.28837
3.6,-0.24205,-0.089844,0.6451,0.93945,0.28446
3.608,-0.23716,-0.083984,0.65098,0.92969,0.27957
3.616,-0.23227,-0.099609,0.6451,0.94531,0.27566
3.624,-0.22738,-0.10938,0.64118,0.94922,0.2737
3.632,-0.22005,-0.10938,0.63529,0.94922,0.27175
3.64,-0.21516,-0.10938,0.63529,0.94922,0.26882
3.648,-0.20782,-0.099609,0.63529,0.94531,0.26686
3.656,-0.19804,-0.09375,0.62941,0.94531,0.26295
3.664,-0.19071,-0.099609,0.62941,0.94531,0.25904
3.672,-0.18093,-0.10352,0.63529,0.94922,0.25513
3.68,-0.17359,-0.080078,0.65098,0.93555,0.2522
3.688,-0.16381,-0.048828,0.66078,0.91992,0.24829
3.696,-0.15648,-0.044922,0.67647,0.91016,0.24536
3.704,-0.1467,-0.09375,0.65098,0.93555,0.24438
3.712,-0.13692,-0.099609,0.61569,0.92969,0.24536
3.72,-0.12714,-0.09375,0.61961,0.93945,0.24927
3.728,-0.11736,-0.11914,0.60588,0.92969,0.25709
3.736,-0.10513,-0.11914,0.6,0.93555,0.26882
3.744,-0.095355,-0.10938,0.60588,0.93945,0.28641
3.752,-0.085575,-0.11914,0.61569,0.95898,0.30987
3.76,-0.07335,-0.10352,0.61961,0.94922,0.33724
3.768,-0.066015,-0.10938,0.62549,0.95898,0.36755
3.776,-0.056235,-0.099609,0.61569,0.95508,0.39883
3.784,-0.046455,-0.11523,0.61569,0.96875,0.43011
3.792,-0.03912,-0.10352,0.61961,0.96484,0.46041
3.8,-0.02934,-0.09375,0.61961,0.95508,0.4868
3.808,-0.022005,-0.089844,0.62549,0.94922,0.51026
3.816,-0.012225,-0.10352,0.62549,0.95508,0.52884
3.824,-0.00489,-0.16992,0.62941,0.98438,0.5435
3.832,0.002445,-0.064453,0.66471,0.90039,0.55621
3.84,0.012225,0.25586,0.47059,0.67578,0.56696
3.848,0.01956,0.73438,0.029412,0.35938,0.5738
3.856,0.026895,1.0352,-0.36275,0.19531,0.57771
3.864,0.03423,0.57422,-0.021569,0.5293,0.57869
3.872,0.041565,0.080078,0.48039,0.85547,0.57674
3.88,0.0489,-0.0039062,0.68627,0.91016,0.57283
3.888,0.056235,-0.044922,0.72549,0.92969,0.56598
3.896,0.06357,-0.080078,0.73137,0.95508,0.55718
3.904,0.07335,-0.099609,0.74118,0.96875,0.54741
3.912,0.080685,-0.10352,0.73529,0.96875,0.53568
3.92,0.08802,-0.099609,0.74118,0.96875,0.52493
3.928,0.09291,-0.10352,0.7451,0.96484,0.51417
3.936,0.10024,-0.09375,0.75098,0.95508,0.50049
3.944,0.10758,-0.099609,0.74118,0.96875,0.4868
3.952,0.11247,-0.10352,0.7451,0.96484,0.47312
3.96,0.11736,-0.099609,0.74118,0.96875,0.46139
3.968,0.12225,-0.083984,0.74118,0.94922,0.44966
3.976,0.12714,-0.074219,0.7451,0.94531,0.43891
3.984,0.13203,-0.09375,0.74118,0.96484,0.42913
3.992,0.13447,-0.089844,0.75098,0.95508,0.42033
4,0.13936,-0.089844,0.75098,0.95508,0.41153
4.008,0.14181,-0.074219,0.75098,0.94531,0.40371
4.016,0.1467,-0.058594,0.76078,0.93945,0.39883
4.024,0.14914,-0.029297,0.76078,0.92383,0.39394
4.032,0.15403,-0.019531,0.77059,0.91992,0.38905
4.04,0.15648,-0.0039062,0.77059,0.91406,0.38221
4.048,0.16137,0.025391,0.77059,0.89453,0.37732
4.056,0.16626,0.054688,0.77059,0.875,0.37146
4.064,0.1687,0.085938,0.77059,0.84961,0.36657
4.072,0.17359,0.11523,0.77059,0.83984,0.36266
4.08,0.17848,0.13086,0.76078,0.83008,0.35875
4.088,0.18337,0.14062,0.7549,0.82031,0.35484
4.096,0.18826,0.15625,0.7549,0.79883,0.35191
4.104,0.19071,0.13477,0.7451,0.81445,0.348
4.112,0.1956,0.11523,0.75098,0.82422,0.34409
4.12,0.19804,0.095703,0.73529,0.83008,0.34018
4.128,0.20293,0.064453,0.72549,0.84961,0.33724
4.136,0.20782,0.019531,0.7098,0.86914,0.33333
4.144,0.21271,-0.013672,0.6902,0.90039,0.32942
4.152,0.2176,-0.048828,0.68039,0.91992,0.32454
4.16,0.22005,-0.074219,0.66471,0.92969,0.32063
4.168,0.22494,-0.074219,0.66078,0.93555,0.31574
4.176,0.22738,-0.09375,0.6549,0.94922,0.31281
4.184,0.23227,-0.099609,0.65098,0.94531,0.3089
4.192,0.23716,-0.10938,0.65098,0.95898,0.30596
4.2,0.24205,-0.099609,0.6549,0.95508,0.30205
4.208,0.24694,-0.10938,0.6549,0.95898,0.29814
4.216,0.25183,-0.09375,0.6549,0.94531,0.29521
4.224,0.25917,-0.09375,0.6549,0.94531,0.29326
4.232,0.26406,-0.089844,0.66078,0.93945,0.28935
4.24,0.27139,-0.09375,0.6549,0.94531,0.28543
4.248,0.27628,-0.089844,0.6549,0.94531,0.28152
4.256,0.28362,-0.074219,0.6549,0.92969,0.27859
4.264,0.28851,-0.074219,0.65098,0.92383,0.27566
4.272,0.29584,-0.074219,0.6451,0.93945,0.2737
4.28,0.30318,-0.074219,0.64118,0.92969,0.27077
4.288,0.31051,-0.083984,0.63529,0.94531,0.26784
4.296,0.31785,-0.089844,0.63529,0.94531,0.26491
4.304,0.32763,-0.080078,0.63529,0.94531,0.26197
4.312,0.33496,-0.083984,0.62941,0.94531,0.25904
4.32,0.34474,-0.074219,0.62941,0.92969,0.25611
4.328,0.35208,-0.083984,0.62941,0.94531,0.25513
4.336,0.35941,-0.080078,0.63529,0.93945,0.2522
4.344,0.36919,-0.054688,0.65098,0.91992,0.25024
4.352,0.37653,-0.019531,0.66471,0.88477,0.24829
4.36,0.38631,-0.044922,0.66471,0.9043,0.24731
4.368,0.39609,-0.080078,0.64118,0.91992,0.24829
4.376,0.40587,-0.089844,0.60588,0.92969,0.2522
4.384,0.41565,-0.074219,0.60588,0.92383,0.25904
4.392,0.42543,-0.080078,0.6,0.91406,0.27077
4.4,0.43521,-0.09375,0.5902,0.92383,0.28641
4.408,0.44254,-0.070312,0.60588,0.92383,0.30694
4.416,0.44988,-0.080078,0.6098,0.93555,0.32845
4.424,0.45721,-0.080078,0.61569,0.93945,0.35191
4.432,0.46699,-0.074219,0.61961,0.93945,0.37928
4.44,0.47188,-0.074219,0.61569,0.94531,0.4086
4.448,0.47922,-0.074219,0.61569,0.93945,0.43891
4.456,0.48655,-0.080078,0.61961,0.94531,0.46823
4.464,0.49389,-0.064453,0.61569,0.92383,0.49462
4.472,0.49878,-0.070312,0.61961,0.93945,0.51906
4.48,0.50367,-0.089844,0.61569,0.94922,0.53861
4.488,0.50856,-0.1543,0.62941,0.98047,0.55327
4.496,0.51345,-0.029297,0.66078,0.875,0.56403
4.504,0.51834,0.34961,0.43922,0.60938,0.57185
4.512,0.52078,0.83008,0.023529,0.30469,0.57576
4.52,0.52323,1.1094,-0.33333,0.16016,0.57674
4.528,0.52812,0.56055,0.052941,0.55078,0.57576
4.536,0.52812,0.10547,0.5,0.84375,0.5738
4.544,0.53056,0.025391,0.68627,0.89453,0.56989
4.552,0.53301,-0.013672,0.71569,0.91992,0.56403
4.56,0.53301,-0.048828,0.72549,0.93945,0.55425
4.568,0.53545,-0.074219,0.73137,0.95508,0.54252
4.576,0.53545,-0.064453,0.74118,0.93945,0.53079
4.584,0.53545,-0.074219,0.73529,0.95508,0.52884
4.592,0.53545,-0.074219,0.73529,0.94531,0.53275
4.6,0.53301,-0.080078,0.73529,0.95508,0.52786
4.608,0.53301,-0.064453,0.74118,0.94531,0.51906
4.616,0.53056,-0.080078,0.73137,0.95508,0.51124
4.624,0.52812,-0.080078,0.73137,0.94922,0.50342
4.632,0.52323,-0.074219,0.73529,0.94531,0.49365
4.64,0.52078,-0.064453,0.74118,0.93945,0.48387
4.648,0.51834,-0.058594,0.75098,0.93945,0.4741
4.656,0.51589,-0.074219,0.7451,0.94531,0.4653
4.664,0.511,-0.080078,0.75098,0.95508,0.45748
4.672,0.50611,-0.074219,0.75098,0.94531,0.45064
4.68,0.49878,-0.048828,0.76078,0.93555,0.44379
4.688,0.49144,-0.029297,0.77059,0.92383,0.43793
4.696,0.48411,-0.013672,0.77059,0.91992,0.43206
4.704,0.47433,0.0058594,0.77647,0.90039,0.4262
4.712,0.46455,0.025391,0.77647,0.88477,0.42131
4.72,0.45477,0.064453,0.78039,0.86523,0.41642
4.728,0.44499,0.099609,0.78627,0.84375,0.41349
4.736,0.43521,0.125,0.77647,0.83008,0.40958
4.744,0.42543,0.14453,0.77059,0.81055,0.40567
4.752,0.41565,0.16016,0.76667,0.79883,0.40274
4.76,0.40342,0.15039,0.7549,0.81055,0.39883
4.768,0.3912,0.16016,0.75098,0.79883,0.39589
4.776,0.37897,0.15039,0.75098,0.80469,0.39198
4.784,0.36675,0.13086,0.75098,0.81055,0.38807
4.792,0.35452,0.085938,0.73137,0.83984,0.38514
4.8,0.3423,0.050781,0.72549,0.85547,0.38123
4.808,0.33007,0.015625,0.70588,0.875,0.37634
4.816,0.31785,-0.013672,0.68627,0.89453,0.37341
4.824,0.30562,-0.039062,0.67647,0.91016,0.37146
4.832,0.29095,-0.064453,0.66078,0.92969,0.36755
4.84,0.27628,-0.070312,0.6549,0.92383,0.36266
4.848,0.26161,-0.074219,0.6549,0.93945,0.35875
4.856,0.24694,-0.080078,0.6549,0.94531,0.35386
4.864,0.22983,-0.070312,0.6549,0.92969,0.35093
4.872,0.21516,-0.074219,0.6549,0.92969,0.348
4.88,0.19804,-0.074219,0.6549,0.94531,0.34604
4.888,0.18582,-0.070312,0.6549,0.93555,0.34409
4.896,0.17115,-0.048828,0.6549,0.92383,0.34213
4.904,0.15892,-0.058594,0.6549,0.92969,0.34018
4.912,0.1467,-0.048828,0.6549,0.92383,0.33822
4.92,0.13692,-0.058594,0.65098,0.92383,0.33724
4.928,0.12714,-0.058594,0.6549,0.92383,0.33724
4.936,0.11736,-0.054688,0.6549,0.91406,0.33529
4.944,0.11002,-0.058594,0.6451,0.92383,0.33333
4.952,0.10269,-0.054688,0.63529,0.92383,0.32942
4.96,0.095355,-0.064453,0.62941,0.92969,0.32649
4.968,0.08802,-0.064453,0.64118,0.92969,0.32258
4.976,0.080685,-0.058594,0.64118,0.91992,0.31867
4.984,0.075795,-0.064453,0.63529,0.93555,0.31574
4.992,0.070905,-0.070312,0.63529,0.93555,0.31281
5,0.066015,-0.074219,0.63529,0.93555,0.30987
5.008,0.06357,-0.048828,0.65098,0.91016,0.30694
5.016,0.05868,-0.025391,0.66078,0.90039,0.30596
5.024,0.056235,-0.029297,0.67647,0.89453,0.30499
5.032,0.05379,-0.058594,0.65098,0.91016,0.30596
5.04,0.051345,-0.064453,0.62549,0.90039,0.30792
5.048,0.0489,-0.048828,0.62549,0.91016,0.31476
5.056,0.046455,-0.09375,0.6098,0.92383,0.32747
5.064,0.046455,-0.09375,0.60588,0.92383,0.34409
5.072,0.04401,-0.083984,0.61961,0.92969,0.36559
5.08,0.041565,-0.099609,0.62549,0.94531,0.39198
5.088,0.03912,-0.10938,0.61569,0.95508,0.42131
5.096,0.036675,-0.09375,0.62549,0.94922,0.45161
5.104,0.031785,-0.10352,0.62941,0.95508,0.48192
5.112,0.02934,-0.09375,0.62549,0.95508,0.51124
5.12,0.026895,-0.09375,0.62941,0.94531,0.5347
5.128,0.02445,-0.083984,0.61961,0.94531,0.55425
5.136,0.022005,-0.080078,0.62941,0.93945,0.5738
5.144,0.01956,-0.089844,0.62941,0.94531,0.59042
5.152,0.017115,-0.1543,0.62941,0.97461,0.60508
5.16,0.012225,-0.16992,0.68039,0.98047,0.61584
5.168,0.007335,0.17969,0.5451,0.72461,0.62268
5.176,0.002445,0.69922,0.15882,0.37109,0.62659
5.184,0,1.1035,-0.27255,0.13477,0.62854
5.192,-0.00489,0.82031,-0.31765,0.36523,0.62757
5.2,-0.007335,0.19531,0.3902,0.7793,0.62366
5.208,-0.012225,0.041016,0.65098,0.875,0.61779
5.216,-0.01467,-0.025391,0.7,0.91992,0.61095
5.224,-0.01956,-0.070312,0.72549,0.94922,0.60313
5.232,-0.022005,-0.09375,0.73137,0.96875,0.59335
5.24,-0.02445,-0.099609,0.73529,0.96484,0.58162
5.248,-0.02934,-0.11523,0.73137,0.98047,0.56989
5.256,-0.03423,-0.10352,0.73529,0.96875,0.55718
5.264,-0.036675,-0.099609,0.73529,0.96875,0.54448
5.272,-0.041565,-0.09375,0.73529,0.96484,0.53275
5.28,-0.046455,-0.09375,0.73529,0.95898,0.52004
5.288,-0.051345,-0.089844,0.73529,0.96484,0.50831
5.296,-0.05379,-0.09375,0.73529,0.96875,0.49756
5.304,-0.061125,-0.09375,0.73529,0.95898,0.4868
5.312,-0.066015,-0.089844,0.74118,0.95898,0.47605
5.32,-0.07335,-0.083984,0.75098,0.95508,0.46725
5.328,-0.080685,-0.074219,0.75098,0.94531,0.46041
5.336,-0.08802,-0.074219,0.7549,0.94922,0.45455
5.344,-0.095355,-0.064453,0.76667,0.94531,0.44966
5.352,-0.10269,-0.054688,0.76667,0.94531,0.44379
5.36,-0.11002,-0.035156,0.77059,0.92969,0.43891
5.368,-0.11736,-0.0097656,0.77647,0.91992,0.43304
5.376,-0.12469,0.019531,0.78039,0.90039,0.42815
5.384,-0.13203,0.044922,0.78039,0.88477,0.42326
5.392,-0.13692,0.080078,0.78627,0.85938,0.41838
5.4,-0.14425,0.10547,0.78039,0.84375,0.41349
5.408,-0.15159,0.125,0.77647,0.83008,0.4086
5.416,-0.15892,0.14062,0.77059,0.82422,0.40567
5.424,-0.16626,0.14062,0.76667,0.83008,0.40371
5.432,-0.17115,0.13477,0.76667,0.82422,0.3998
5.44,-0.17848,0.14062,0.76078,0.81055,0.39687
5.448,-0.18337,0.11523,0.75098,0.82031,0.39296
5.456,-0.18826,0.070312,0.7451,0.84961,0.38905
5.464,-0.1956,0.03125,0.73137,0.86914,0.38514
5.472,-0.20049,-0.013672,0.7098,0.88867,0.38025
5.48,-0.20782,-0.054688,0.69608,0.91992,0.37537
5.488,-0.21516,-0.074219,0.68039,0.92969,0.3695
5.496,-0.22005,-0.089844,0.68039,0.93945,0.36461
5.504,-0.22738,-0.099609,0.67647,0.94922,0.3607
5.512,-0.23472,-0.09375,0.67059,0.93945,0.35582
5.52,-0.23961,-0.10938,0.66471,0.95508,0.35288
5.528,-0.24694,-0.11523,0.66078,0.95898,0.35093
5.536,-0.25183,-0.11523,0.66078,0.95898,0.348
5.544,-0.25428,-0.10938,0.66471,0.95508,0.34506
5.552,-0.25917,-0.099609,0.66471,0.94922,0.34115
5.56,-0.26161,-0.09375,0.66471,0.95508,0.33724
5.568,-0.2665,-0.09375,0.66471,0.94531,0.33431
5.576,-0.26895,-0.089844,0.6549,0.94531,0.33236
5.584,-0.27139,-0.080078,0.6549,0.93945,0.32942
5.592,-0.27384,-0.080078,0.65098,0.93945,0.32747
5.6,-0.27628,-0.080078,0.65098,0.93945,0.32454
5.608,-0.27628,-0.070312,0.65098,0.93555,0.3216
5.616,-0.27873,-0.064453,0.6451,0.92969,0.32063
5.624,-0.27873,-0.074219,0.64118,0.93945,0.31867
5.632,-0.27628,-0.074219,0.63529,0.93945,0.31574
5.64,-0.27628,-0.074219,0.63529,0.92969,0.31378
5.648,-0.27384,-0.070312,0.62941,0.92383,0.31085
5.656,-0.27139,-0.074219,0.62941,0.93555,0.30792
5.664,-0.26895,-0.089844,0.62941,0.94531,0.30596
5.672,-0.2665,-0.080078,0.6451,0.93945,0.30303
5.68,-0.26406,-0.035156,0.66471,0.91406,0.30108
5.688,-0.26161,-0.019531,0.67647,0.90039,0.29912
5.696,-0.25917,-0.039062,0.67647,0.9043,0.29814
5.704,-0.25672,-0.064453,0.62941,0.91406,0.3001
5.712,-0.25428,-0.054688,0.62549,0.91992,0.30499
5.72,-0.25183,-0.074219,0.62941,0.91406,0.31378
5.728,-0.24939,-0.09375,0.60588,0.92383,0.32845
5.736,-0.24694,-0.089844,0.6098,0.92383,0.34897
5.744,-0.24205,-0.083984,0.61961,0.93945,0.37243
5.752,-0.23961,-0.09375,0.61569,0.94922,0.3998
5.76,-0.23716,-0.089844,0.61961,0.94922,0.43011
5.768,-0.23472,-0.089844,0.62549,0.94531,0.46041
5.776,-0.23227,-0.09375,0.61961,0.94922,0.48876
5.784,-0.22983,-0.09375,0.61961,0.95898,0.51613
5.792,-0.22983,-0.083984,0.61961,0.94531,0.54154
5.8,-0.22738,-0.083984,0.61961,0.94922,0.56305
5.808,-0.22738,-0.080078,0.62549,0.94531,0.58162
5.816,-0.22494,-0.10938,0.62549,0.95898,0.59629
5.824,-0.22494,-0.17383,0.64118,0.99023,0.60508
5.832,-0.22249,-0.025391,0.67647,0.86914,0.6129
5.84,-0.22249,0.3457,0.42549,0.60547,0.61877
5.848,-0.22005,0.84375,-0.0019608,0.26953,0.6217
5.856,-0.22005,1.0586,-0.32745,0.16602,0.6217
5.864,-0.22005,0.50977,0.07451,0.56445,0.61975
5.872,-0.22005,0.089844,0.51569,0.84961,0.61584
5.88,-0.2176,0,0.68039,0.9043,0.60997
5.888,-0.2176,-0.039062,0.71569,0.92383,0.60215
5.896,-0.2176,-0.083984,0.72549,0.95508,0.59238
5.904,-0.2176,-0.099609,0.73529,0.96875,0.58065
5.912,-0.21516,-0.09375,0.74118,0.96484,0.57087
5.92,-0.21516,-0.099609,0.73529,0.96875,0.56012
5.928,-0.21271,-0.099609,0.74118,0.96484,0.54839
5.936,-0.21271,-0.10938,0.74118,0.96875,0.5347
5.944,-0.21271,-0.10938,0.74118,0.96875,0.52199
5.952,-0.21271,-0.10938,0.74118,0.98047,0.51026
5.96,-0.21271,-0.11523,0.74118,0.96875,0.49951
5.968,-0.21516,-0.099609,0.7451,0.96484,0.48876
5.976,-0.21516,-0.10938,0.74118,0.96875,0.47801
5.984,-0.2176,-0.10352,0.7451,0.96484,0.46823
5.992,-0.2176,-0.09375,0.75098,0.95898,0.46139
6,-0.22005,-0.09375,0.75098,0.95508,0.45552
6.008,-0.22249,-0.074219,0.75098,0.94531,0.44966
6.016,-0.22249,-0.058594,0.76667,0.93945,0.44477
6.024,-0.22494,-0.039062,0.77059,0.92969,0.44086
6.032,-0.22494,-0.025391,0.77647,0.91406,0.43597
6.04,-0.22738,0,0.78039,0.90039,0.43109
6.048,-0.22983,0.03125,0.78627,0.88867,0.4262
6.056,-0.23227,0.054688,0.7902,0.875,0.42131
6.064,-0.23472,0.089844,0.79608,0.84961,0.41544
6.072,-0.23716,0.10547,0.7902,0.83984,0.41056
6.08,-0.23961,0.125,0.77647,0.83008,0.40665
6.088,-0.24205,0.14062,0.77059,0.82422,0.40274
6.096,-0.2445,0.14453,0.76667,0.80469,0.3998
6.104,-0.24694,0.14062,0.76078,0.80469,0.39687
6.112,-0.24939,0.125,0.7549,0.81055,0.39492
6.12,-0.25183,0.095703,0.75098,0.83008,0.39198
6.128,-0.25428,0.054688,0.73529,0.84961,0.38905
6.136,-0.25917,0.0058594,0.72157,0.875,0.38612
6.144,-0.26161,-0.029297,0.7,0.90039,0.38123
6.152,-0.2665,-0.064453,0.68627,0.91992,0.37537
6.16,-0.26895,-0.083984,0.68039,0.92969,0.37048
6.168,-0.27384,-0.099609,0.66471,0.94531,0.36559
6.176,-0.27628,-0.10352,0.66078,0.94922,0.3607
6.184,-0.27873,-0.11523,0.6549,0.95508,0.35679
6.192,-0.27873,-0.11914,0.6549,0.95898,0.35386
6.2,-0.28117,-0.11914,0.6549,0.96484,0.35093
6.208,-0.28362,-0.11523,0.6549,0.94922,0.348
6.216,-0.28606,-0.10352,0.6549,0.94531,0.34604
6.224,-0.28606,-0.11523,0.65098,0.95508,0.34506
6.232,-0.28851,-0.10938,0.65098,0.94922,0.34311
6.24,-0.29095,-0.10352,0.65098,0.94922,0.34018
6.248,-0.29095,-0.099609,0.6549,0.93945,0.33724
6.256,-0.29095,-0.089844,0.6549,0.93555,0.33529
6.264,-0.2934,-0.099609,0.65098,0.94531,0.33333
6.272,-0.2934,-0.09375,0.64118,0.94922,0.33138
6.28,-0.29095,-0.09375,0.64118,0.94531,0.32845
6.288,-0.29095,-0.089844,0.63529,0.93945,0.32551
6.296,-0.29095,-0.09375,0.64118,0.94531,0.32258
6.304,-0.28851,-0.089844,0.63529,0.94531,0.32063
6.312,-0.28606,-0.089844,0.62941,0.93945,0.31965
6.32,-0.28362,-0.09375,0.63529,0.94531,0.31769
6.328,-0.28117,-0.089844,0.63529,0.93555,0.31476
6.336,-0.27628,-0.10352,0.62941,0.94922,0.31085
6.344,-0.27139,-0.089844,0.6451,0.93945,0.30596
6.352,-0.26895,-0.054688,0.6549,0.92383,0.30205
6.36,-0.26406,-0.039062,0.67059,0.91016,0.29912
6.368,-0.25917,-0.064453,0.68039,0.92383,0.29912
6.376,-0.25672,-0.074219,0.62549,0.92383,0.30205
6.384,-0.25183,-0.058594,0.61961,0.91406,0.3089
6.392,-0.24694,-0.089844,0.62549,0.92383,0.3216
6.4,-0.2445,-0.10352,0.60588,0.92383,0.3392
6.408,-0.24205,-0.09375,0.6098,0.92383,0.36266
6.416,-0.23716,-0.083984,0.62549,0.93945,0.38514
6.424,-0.23472,-0.11523,0.61569,0.95898,0.4086
6.432,-0.22983,-0.10938,0.62549,0.95508,0.43597
6.44,-0.22738,-0.09375,0.62549,0.94531,0.46237
6.448,-0.22249,-0.10352,0.62549,0.94922,0.48974
6.456,-0.2176,-0.09375,0.62549,0.95508,0.51613
6.464,-0.21516,-0.09375,0.62941,0.94922,0.54057
6.472,-0.21271,-0.09375,0.62941,0.94922,0.56012
6.48,-0.20782,-0.083984,0.62941,0.93945,0.57771
6.488,-0.20538,-0.125,0.63529,0.96875,0.5914
6.496,-0.20293,-0.18945,0.65098,1,0.60215
6.504,-0.20293,-0.029297,0.68627,0.86914,0.60997
6.512,-0.20049,0.3457,0.41961,0.59961,0.61486
6.52,-0.19804,0.83008,-0.021569,0.2793,0.61681
6.528,-0.1956,0.99414,-0.31765,0.18555,0.61681
6.536,-0.19315,0.42578,0.11373,0.625,0.61388
6.544,-0.19315,0.054688,0.55098,0.86914,0.60899
6.552,-0.19071,-0.019531,0.70588,0.91992,0.60215
6.56,-0.19071,-0.070312,0.72549,0.94531,0.59238
6.568,-0.18826,-0.099609,0.7451,0.96484,0.58162
6.576,-0.18826,-0.11914,0.75098,0.98047,0.56989
6.584,-0.18582,-0.125,0.7549,0.97461,0.55718
6.592,-0.18582,-0.11914,0.75098,0.98047,0.5435
6.6,-0.18582,-0.12891,0.75098,0.97461,0.53079
6.608,-0.18582,-0.11914,0.7549,0.97461,0.51906
6.616,-0.18582,-0.10938,0.75098,0.96875,0.50929
6.624,-0.18582,-0.10938,0.75098,0.96875,0.50049
6.632,-0.18826,-0.099609,0.75098,0.95898,0.50147
6.64,-0.18826,-0.10938,0.7451,0.96875,0.50538
6.648,-0.19071,-0.10352,0.75098,0.95898,0.50147
6.656,-0.19071,-0.09375,0.7549,0.94531,0.4956
6.664,-0.19315,-0.10938,0.75098,0.96875,0.48778
6.672,-0.19315,-0.09375,0.7549,0.96484,0.48094
6.68,-0.1956,-0.09375,0.76667,0.95898,0.4741
6.688,-0.1956,-0.070312,0.77059,0.93945,0.46628
6.696,-0.19804,-0.048828,0.77059,0.92969,0.45943
6.704,-0.19804,-0.025391,0.77647,0.92383,0.45259
6.712,-0.19804,-0.0097656,0.77647,0.91406,0.44673
6.72,-0.20049,0.025391,0.78039,0.89453,0.44282
6.728,-0.20049,0.054688,0.78627,0.86914,0.43695
6.736,-0.20049,0.085938,0.78627,0.84961,0.43206
6.744,-0.20049,0.099609,0.77647,0.83984,0.42815
6.752,-0.19804,0.125,0.77647,0.83008,0.42424
6.76,-0.19804,0.13477,0.77059,0.81445,0.41935
6.768,-0.1956,0.125,0.77059,0.82031,0.41447
6.776,-0.19315,0.11523,0.76078,0.82422,0.40958
6.784,-0.19071,0.11133,0.76078,0.81445,0.40567
6.792,-0.18826,0.076172,0.75098,0.83398,0.40078
6.8,-0.18582,0.03125,0.73529,0.86523,0.39589
6.808,-0.18337,-0.019531,0.72157,0.89453,0.39101
6.816,-0.17848,-0.054688,0.7,0.91406,0.3871
6.824,-0.17604,-0.083984,0.68039,0.92969,0.38319
6.832,-0.17359,-0.11523,0.68039,0.94531,0.37928
6.84,-0.1687,-0.11914,0.67059,0.94922,0.37537
6.848,-0.16626,-0.11523,0.67059,0.93945,0.37048
6.856,-0.16137,-0.13867,0.6549,0.96484,0.36657
6.864,-0.15892,-0.14453,0.6549,0.96875,0.3607
6.872,-0.15403,-0.14453,0.66078,0.96875,0.35582
6.88,-0.15159,-0.13867,0.66078,0.96875,0.35288
6.888,-0.1467,-0.13867,0.66078,0.96875,0.34995
6.896,-0.14181,-0.125,0.66471,0.95898,0.34604
6.904,-0.13447,-0.11914,0.66078,0.95508,0.34213
6.912,-0.12958,-0.11914,0.66078,0.94922,0.3392
6.92,-0.12225,-0.11523,0.66471,0.95898,0.33822
6.928,-0.11491,-0.09375,0.66078,0.94531,0.33529
6.936,-0.10513,-0.10352,0.65098,0.94531,0.33236
6.944,-0.095355,-0.10938,0.6451,0.95508,0.32747
6.952,-0.08313,-0.10352,0.65098,0.94922,0.32356
6.96,-0.07335,-0.099609,0.6451,0.94922,0.31965
6.968,-0.061125,-0.10938,0.63529,0.94922,0.31769
6.976,-0.051345,-0.11523,0.63529,0.95508,0.31476
6.984,-0.03912,-0.099609,0.64118,0.93945,0.31085
6.992,-0.02934,-0.09375,0.64118,0.94531,0.30694
7,-0.017115,-0.09375,0.64118,0.93945,0.30108
7.008,-0.002445,-0.089844,0.64118,0.92969,0.29619
7.016,0.00978,-0.09375,0.65098,0.94531,0.29228
7.024,0.02445,-0.048828,0.66471,0.91016,0.29032
7.032,0.036675,-0.039062,0.68039,0.9043,0.28837
7.04,0.0489,-0.070312,0.66471,0.91406,0.28837
7.048,0.061125,-0.089844,0.61961,0.92383,0.2913
7.056,0.07335,-0.074219,0.62549,0.91406,0.3001
7.064,0.085575,-0.089844,0.61569,0.92383,0.31574
7.072,0.0978,-0.09375,0.60588,0.92383,0.3392
7.08,0.11002,-0.083984,0.61569,0.92383,0.36755
7.088,0.12225,-0.099609,0.62549,0.93945,0.40078
7.096,0.13447,-0.09375,0.61569,0.94531,0.43695
7.104,0.14914,-0.099609,0.61961,0.95508,0.4741
7.112,0.16137,-0.09375,0.61961,0.95898,0.50635
7.12,0.17604,-0.083984,0.62549,0.94531,0.53568
7.128,0.18826,-0.09375,0.62941,0.93945,0.565
7.136,0.19804,-0.089844,0.62941,0.94531,0.59433
7.144,0.20782,-0.083984,0.62941,0.94531,0.62072
7.152,0.22005,-0.074219,0.62941,0.93555,0.64418
7.16,0.22983,-0.13477,0.62941,0.96484,0.66276
7.168,0.23961,-0.16992,0.66078,0.98438,0.6784
7.176,0.24939,0.060547,0.67059,0.79883,0.68915
7.184,0.26161,0.5,0.27451,0.50586,0.69599
7.192,0.26895,0.92969,-0.18235,0.24023,0.69795
7.2,0.27873,1.0293,-0.35294,0.20117,0.69697
7.208,0.28606,0.25977,0.24902,0.74023,0.69306
7.216,0.2934,0.041016,0.61569,0.875,0.68719
7.224,0.30318,-0.013672,0.7098,0.91016,0.6784
7.232,0.31051,-0.054688,0.72549,0.93555,0.66764
7.24,0.31785,-0.089844,0.74118,0.95508,0.65494
7.248,0.32763,-0.083984,0.7451,0.94922,0.64125
7.256,0.33496,-0.089844,0.75098,0.94531,0.62561
7.264,0.34474,-0.09375,0.7451,0.95898,0.60704
7.272,0.35208,-0.09375,0.7451,0.95508,0.58944
7.28,0.36186,-0.089844,0.75098,0.94922,0.5738
7.288,0.36675,-0.099609,0.7451,0.96484,0.55816
7.296,0.37408,-0.09375,0.75098,0.95898,0.54448
7.304,0.37897,-0.089844,0.75098,0.95508,0.53079
7.312,0.38631,-0.089844,0.75098,0.95508,0.52102
7.32,0.3912,-0.080078,0.75098,0.94531,0.5132
7.328,0.39609,-0.074219,0.7549,0.93555,0.5044
7.336,0.40098,-0.064453,0.7549,0.93945,0.49756
7.344,0.40831,-0.070312,0.76078,0.92969,0.48974
7.352,0.41076,-0.044922,0.7549,0.93555,0.48289
7.36,0.41565,-0.039062,0.76078,0.92383,0.47605
7.368,0.42054,-0.025391,0.7549,0.91992,0.46921
7.376,0.42543,0,0.77059,0.90039,0.46237
7.384,0.42787,0.019531,0.77647,0.88477,0.45552
7.392,0.43276,0.060547,0.77647,0.86914,0.44868
7.4,0.43521,0.085938,0.77647,0.85547,0.44184
7.408,0.4401,0.11133,0.77647,0.83398,0.43695
7.416,0.44499,0.14062,0.77647,0.81055,0.43304
7.424,0.44743,0.14453,0.76667,0.82031,0.43011
7.432,0.45232,0.14453,0.76078,0.81445,0.4262
7.44,0.45721,0.15625,0.76078,0.80469,0.42326
7.448,0.4621,0.16016,0.76078,0.79883,0.41838
7.456,0.46699,0.13086,0.75098,0.81055,0.41447
7.464,0.46944,0.10547,0.7451,0.82422,0.40958
7.472,0.47188,0.060547,0.73529,0.84375,0.40567
7.48,0.47677,0.019531,0.71569,0.86914,0.40176
7.488,0.47922,-0.029297,0.7,0.90039,0.39883
7.496,0.48166,-0.048828,0.6902,0.91406,0.39589
7.504,0.48655,-0.080078,0.68039,0.92969,0.39296
7.512,0.489,-0.080078,0.67647,0.93945,0.39101
7.52,0.49144,-0.074219,0.68039,0.92969,0.38905
7.528,0.49389,-0.089844,0.67647,0.93555,0.38612
7.536,0.49633,-0.10938,0.66471,0.95898,0.38221
7.544,0.49878,-0.10352,0.67059,0.94922,0.37732
7.552,0.50367,-0.10938,0.66471,0.95508,0.37243
7.56,0.50611,-0.09375,0.67059,0.94922,0.36755
7.568,0.511,-0.09375,0.67647,0.94922,0.36168
7.576,0.51589,-0.089844,0.67647,0.94531,0.35777
7.584,0.52078,-0.080078,0.67059,0.93945,0.35484
7.592,0.52567,-0.080078,0.67059,0.93945,0.35191
7.6,0.53056,-0.080078,0.67059,0.93555,0.34897
7.608,0.53545,-0.070312,0.67059,0.92383,0.348
7.616,0.54034,-0.064453,0.66471,0.92969,0.34702
7.624,0.54523,-0.070312,0.66078,0.93555,0.34604
7.632,0.55012,-0.074219,0.6549,0.92969,0.34409
7.64,0.55746,-0.080078,0.65098,0.93945,0.34213
7.648,0.56479,-0.074219,0.65098,0.92969,0.34018
7.656,0.57213,-0.064453,0.6451,0.91992,0.33724
7.664,0.57946,-0.058594,0.64118,0.92383,0.33333
7.672,0.58435,-0.070312,0.64118,0.91992,0.32942
7.68,0.59169,-0.058594,0.6451,0.91406,0.32649
7.688,0.59902,-0.064453,0.65098,0.92383,0.32356
7.696,0.60391,-0.019531,0.66471,0.90039,0.3216
7.704,0.61125,-0.0097656,0.68039,0.89453,0.32063
7.712,0.61614,-0.070312,0.65098,0.92383,0.3216
7.72,0.62347,-0.074219,0.61569,0.92383,0.32747
7.728,0.63081,-0.054688,0.61961,0.91406,0.33724
7.736,0.63814,-0.070312,0.6098,0.91016,0.35093
7.744,0.64303,-0.074219,0.60588,0.92383,0.37048
7.752,0.65037,-0.080078,0.60588,0.92969,0.39687
7.76,0.6577,-0.064453,0.61569,0.92383,0.42815
7.768,0.66259,-0.070312,0.61961,0.93555,0.46334
7.776,0.66748,-0.064453,0.61961,0.93945,0.50049
7.784,0.66993,-0.064453,0.61961,0.94531,0.53763
7.792,0.67482,-0.070312,0.61961,0.93555,0.57283
7.8,0.67726,-0.058594,0.61961,0.93555,0.60508
7.808,0.67971,-0.058594,0.61961,0.93945,0.63148
7.816,0.68215,-0.048828,0.61961,0.92383,0.65103
7.824,0.6846,-0.064453,0.62549,0.93555,0.6696
7.832,0.6846,-0.14453,0.62941,0.97461,0.68622
7.84,0.6846,-0.14844,0.68039,0.91406,0.6999
7.848,0.6846,0.24609,0.5098,0.68555,0.7087
7.856,0.68704,0.75391,0.11373,0.34961,0.71359
7.864,0.68704,1.1289,-0.27647,0.13086,0.71457
7.872,0.68704,0.73438,-0.05098,0.42969,0.71359
7.88,0.6846,0.14062,0.43922,0.82422,0.70968
7.888,0.6846,0.0097656,0.67059,0.9043,0.70186
7.896,0.68215,-0.029297,0.71569,0.92969,0.69208
7.904,0.67971,-0.074219,0.73137,0.94922,0.67937
7.912,0.67482,-0.09375,0.7451,0.95898,0.66667
7.92,0.67237,-0.10352,0.75098,0.96875,0.65298
7.928,0.66748,-0.10352,0.75098,0.96875,0.63832
7.936,0.66259,-0.10352,0.75098,0.96875,0.62268
7.944,0.66015,-0.10352,0.75098,0.96484,0.60704
7.952,0.65526,-0.11523,0.7451,0.97461,0.59042
7.96,0.64792,-0.099609,0.7451,0.96484,0.57478
7.968,0.64303,-0.10352,0.74118,0.96875,0.56207
7.976,0.6357,-0.10352,0.74118,0.96875,0.55034
7.984,0.62592,-0.09375,0.7451,0.96484,0.54057
7.992,0.61858,-0.083984,0.7451,0.95508,0.53079
8,0.61125,-0.080078,0.75098,0.94922,0.52102
8.008,0.60147,-0.070312,0.75098,0.93945,0.51222
8.016,0.59169,-0.074219,0.7549,0.94922,0.50538
8.024,0.58191,-0.044922,0.75098,0.93555,0.49951
8.032,0.57213,-0.025391,0.76667,0.92383,0.49365
8.04,0.55746,0,0.77059,0.9043,0.48778
8.048,0.54523,0.0097656,0.77059,0.90039,0.48289
8.056,0.53301,0.041016,0.78039,0.88477,0.47801
8.064,0.51834,0.085938,0.78627,0.84961,0.4741
8.072,0.50611,0.099609,0.77647,0.84375,0.46823
8.08,0.49144,0.125,0.77059,0.83008,0.46139
8.088,0.47922,0.15039,0.76667,0.81445,0.45455
8.096,0.46699,0.16016,0.76078,0.80469,0.4477
8.104,0.45477,0.16016,0.75098,0.80469,0.44086
8.112,0.44254,0.16602,0.75098,0.79883,0.43597
8.12,0.42787,0.14453,0.73529,0.81055,0.43206
8.128,0.41565,0.13086,0.73529,0.82031,0.42913
8.136,0.40342,0.089844,0.72549,0.83008,0.4262
8.144,0.38875,0.054688,0.7098,0.84961,0.42229
8.152,0.37653,0.0097656,0.6902,0.87891,0.41838
8.16,0.3643,-0.019531,0.68039,0.90039,0.41544
8.168,0.35452,-0.039062,0.67647,0.9043,0.41251
8.176,0.3423,-0.054688,0.66471,0.91992,0.40958
8.184,0.33007,-0.080078,0.66078,0.93945,0.40665
8.192,0.31785,-0.09375,0.6549,0.94531,0.40371
8.2,0.30562,-0.09375,0.6549,0.94531,0.40078
8.208,0.2934,-0.099609,0.6549,0.94531,0.3998
8.216,0.28362,-0.089844,0.66078,0.93945,0.39785
8.224,0.27139,-0.089844,0.66471,0.94531,0.39492
8.232,0.25917,-0.09375,0.67059,0.94531,0.39101
8.24,0.24939,-0.083984,0.67059,0.93555,0.38807
8.248,0.23961,-0.074219,0.66471,0.92969,0.38514
8.256,0.22983,-0.080078,0.66078,0.93945,0.38123
8.264,0.22249,-0.074219,0.67059,0.93555,0.37732
8.272,0.21271,-0.083984,0.66078,0.94531,0.37341
8.28,0.20782,-0.074219,0.6549,0.93945,0.36852
8.288,0.20049,-0.083984,0.65098,0.94531,0.36364
8.296,0.1956,-0.074219,0.65098,0.92969,0.3607
8.304,0.19071,-0.080078,0.64118,0.93555,0.35777
8.312,0.18582,-0.083984,0.63529,0.94531,0.35484
8.32,0.18337,-0.080078,0.63529,0.94531,0.35386
8.328,0.17848,-0.083984,0.63529,0.93945,0.35288
8.336,0.17604,-0.070312,0.64118,0.92383,0.35093
8.344,0.17359,-0.080078,0.63529,0.93555,0.34897
8.352,0.17115,-0.089844,0.64118,0.94531,0.34702
8.36,0.1687,-0.080078,0.65098,0.93555,0.34409
8.368,0.16626,-0.035156,0.67059,0.91016,0.34213
8.376,0.16381,-0.025391,0.68039,0.90039,0.34115
8.384,0.16137,-0.054688,0.66471,0.91016,0.34506
8.392,0.15892,-0.070312,0.62941,0.91992,0.35288
8.4,0.15648,-0.074219,0.61961,0.92383,0.36852
8.408,0.15648,-0.089844,0.61569,0.92969,0.3871
8.416,0.15403,-0.083984,0.60588,0.92383,0.40958
8.424,0.15159,-0.09375,0.6098,0.92383,0.43891
8.432,0.14914,-0.074219,0.62941,0.92383,0.47116
8.44,0.14914,-0.080078,0.61961,0.93945,0.50635
8.448,0.1467,-0.083984,0.61961,0.94531,0.54154
8.456,0.14425,-0.080078,0.61569,0.93945,0.57674
8.464,0.14181,-0.09375,0.61569,0.95508,0.60997
8.472,0.13936,-0.080078,0.62549,0.94531,0.64027
8.48,0.13692,-0.080078,0.62941,0.94531,0.66862
8.488,0.13447,-0.074219,0.62941,0.94531,0.69404
8.496,0.13203,-0.074219,0.62941,0.93945,0.71457
8.504,0.12958,-0.11523,0.64118,0.95508,0.73021
8.512,0.12714,-0.1543,0.67647,0.97461,0.74096
8.52,0.12469,0.11523,0.58431,0.76953,0.74682
8.528,0.12225,0.61523,0.24902,0.42969,0.74976
8.536,0.11736,1.0488,-0.18235,0.15625,0.74878
8.544,0.11491,1.1387,-0.32745,0.125,0.74389
8.552,0.11247,0.26953,0.29412,0.73047,0.73607
8.56,0.11002,0.041016,0.61569,0.87891,0.72727
8.568,0.10758,-0.0097656,0.70588,0.91016,0.71652
8.576,0.10513,-0.054688,0.72549,0.93555,0.70479
8.584,0.10024,-0.083984,0.73529,0.95508,0.69208
8.592,0.0978,-0.099609,0.7451,0.96484,0.6784
8.6,0.09291,-0.10352,0.7451,0.96875,0.66276
8.608,0.090465,-0.10352,0.74118,0.96875,0.64907
8.616,0.085575,-0.10352,0.74118,0.96875,0.63636
8.624,0.080685,-0.09375,0.75098,0.95898,0.6217
8.632,0.075795,-0.089844,0.7451,0.95898,0.60802
8.64,0.070905,-0.09375,0.74118,0.95508,0.59531
8.648,0.06846,-0.080078,0.7451,0.94531,0.58162
8.656,0.06357,-0.089844,0.74118,0.95508,0.56989
8.664,0.05868,-0.089844,0.7451,0.95898,0.55914
8.672,0.051345,-0.074219,0.74118,0.94531,0.54936
8.68,0.046455,-0.083984,0.75098,0.95898,0.5347
8.688,0.03912,-0.074219,0.75098,0.94922,0.51711
8.696,0.031785,-0.064453,0.7549,0.94531,0.5044
8.704,0.02445,-0.048828,0.76078,0.93555,0.49462
8.712,0.017115,-0.025391,0.77059,0.92383,0.48583
8.72,0.012225,-0.0039062,0.77647,0.91406,0.48094
8.728,0.00489,0.019531,0.7902,0.90039,0.47703
8.736,-0.002445,0.044922,0.7902,0.87891,0.47214
8.744,-0.007335,0.076172,0.7902,0.85938,0.46725
8.752,-0.01467,0.11133,0.79608,0.83984,0.46237
8.76,-0.01956,0.13477,0.78039,0.82422,0.4565
8.768,-0.026895,0.15039,0.77059,0.81055,0.44966
8.776,-0.031785,0.14062,0.76078,0.82031,0.44379
8.784,-0.03912,0.14453,0.76078,0.81445,0.43695
8.792,-0.04401,0.14062,0.7549,0.81445,0.43109
8.8,-0.0489,0.12109,0.75098,0.81445,0.42522
8.808,-0.05379,0.089844,0.73529,0.83008,0.42131
8.816,-0.05868,0.050781,0.72549,0.84961,0.4174
8.824,-0.06357,0.0058594,0.70588,0.87891,0.41349
8.832,-0.06846,-0.025391,0.69608,0.89453,0.4086
8.84,-0.075795,-0.070312,0.67647,0.92383,0.40371
8.848,-0.08313,-0.089844,0.66078,0.93945,0.3998
8.856,-0.090465,-0.10938,0.65098,0.94922,0.39492
8.864,-0.0978,-0.099609,0.65098,0.94531,0.39101
8.872,-0.10513,-0.11523,0.6451,0.95508,0.3871
8.88,-0.11247,-0.11914,0.6451,0.95898,0.38319
8.888,-0.1198,-0.11914,0.6451,0.96484,0.38025
8.896,-0.12714,-0.10938,0.65098,0.94531,0.37732
8.904,-0.13447,-0.11914,0.6451,0.95898,0.37341
8.912,-0.13936,-0.10938,0.65098,0.95508,0.37048
8.92,-0.1467,-0.09375,0.6549,0.94531,0.36755
8.928,-0.15159,-0.083984,0.6549,0.93555,0.36461
8.936,-0.15648,-0.09375,0.6451,0.94922,0.3607
8.944,-0.16137,-0.09375,0.6451,0.94531,0.35582
8.952,-0.16626,-0.080078,0.6451,0.93555,0.35288
8.96,-0.17115,-0.089844,0.6451,0.94531,0.34995
8.968,-0.17359,-0.089844,0.65098,0.94531,0.34702
8.976,-0.17604,-0.083984,0.64118,0.93945,0.34506
8.984,-0.17604,-0.089844,0.64118,0.94531,0.34213
8.992,-0.17848,-0.083984,0.63529,0.93945,0.34018
9,-0.17848,-0.089844,0.63529,0.94531,0.33724
9.008,-0.17848,-0.09375,0.62941,0.94531,0.33529
9.016,-0.17604,-0.089844,0.62941,0.93945,0.33431
9.024,-0.17604,-0.083984,0.62941,0.93945,0.33333
9.032,-0.17359,-0.09375,0.62941,0.94531,0.33138
9.04,-0.17115,-0.048828,0.6549,0.91406,0.32942
9.048,-0.1687,-0.029297,0.66471,0.90039,0.32845
9.056,-0.1687,-0.048828,0.67059,0.9043,0.3304
9.064,-0.16626,-0.058594,0.64118,0.91406,0.33724
9.072,-0.16381,-0.048828,0.62549,0.9043,0.348
9.08,-0.16381,-0.074219,0.62941,0.92383,0.36559
9.088,-0.16137,-0.09375,0.60588,0.92969,0.39003
9.096,-0.16137,-0.09375,0.60588,0.92383,0.41935
9.104,-0.15892,-0.083984,0.62549,0.93945,0.45161
9.112,-0.15892,-0.09375,0.61961,0.94531,0.48094
9.12,-0.15892,-0.099609,0.62549,0.94922,0.50831
9.128,-0.15892,-0.09375,0.61961,0.95898,0.53861
9.136,-0.15648,-0.10938,0.61569,0.95508,0.56891
9.144,-0.15648,-0.10352,0.61961,0.96484,0.59824
9.152,-0.15648,-0.10352,0.61961,0.95508,0.62561
9.16,-0.15648,-0.089844,0.62549,0.94531,0.65005
9.168,-0.15648,-0.083984,0.62549,0.94531,0.67155
9.176,-0.15648,-0.125,0.61961,0.96484,0.69013
9.184,-0.15648,-0.18945,0.6451,0.99414,0.70381
9.192,-0.15648,-0.025391,0.67647,0.86914,0.71652
9.2,-0.15648,0.38477,0.4,0.57422,0.71945
9.208,-0.15648,0.85938,-0.037255,0.26953,0.71848
9.216,-0.15648,1.0449,-0.33725,0.16992,0.71261
9.224,-0.15892,0.42969,0.1098,0.625,0.70381
9.232,-0.15892,0.054688,0.52941,0.87891,0.69404
9.24,-0.15892,-0.019531,0.6902,0.91992,0.68231
9.248,-0.15892,-0.064453,0.72549,0.94531,0.67058
9.256,-0.16137,-0.099609,0.73529,0.96875,0.65787
9.264,-0.16137,-0.11523,0.7451,0.97461,0.64321
9.272,-0.16137,-0.11914,0.7451,0.99023,0.62757
9.28,-0.16137,-0.10938,0.7549,0.96875,0.61193
9.288,-0.16381,-0.11914,0.75098,0.98047,0.59726
9.296,-0.16626,-0.125,0.75098,0.99023,0.58358
9.304,-0.1687,-0.11914,0.75098,0.98438,0.57185
9.312,-0.17115,-0.11914,0.75098,0.98047,0.56012
9.32,-0.17359,-0.11914,0.75098,0.98047,0.55034
9.328,-0.17604,-0.10938,0.7549,0.96875,0.54057
9.336,-0.17848,-0.10352,0.7549,0.96875,0.53177
9.344,-0.18337,-0.10352,0.7549,0.96875,0.52297
9.352,-0.18582,-0.09375,0.76078,0.95898,0.51417
9.36,-0.19071,-0.089844,0.76667,0.95898,0.50538
9.368,-0.19315,-0.083984,0.76667,0.96484,0.49658
9.376,-0.19804,-0.070312,0.77059,0.94531,0.48876
9.384,-0.20049,-0.044922,0.77647,0.92969,0.48192
9.392,-0.20538,-0.025391,0.78039,0.91992,0.47605
9.4,-0.20782,0,0.78039,0.9043,0.47214
9.408,-0.21271,0.025391,0.7902,0.88867,0.46921
9.416,-0.21516,0.060547,0.7902,0.875,0.46628
9.424,-0.2176,0.085938,0.7902,0.85547,0.46237
9.432,-0.22005,0.11133,0.79608,0.83984,0.45748
9.44,-0.22249,0.13477,0.78039,0.82422,0.45357
9.448,-0.22494,0.14062,0.77059,0.83008,0.44966
9.456,-0.22738,0.14062,0.77059,0.82031,0.44477
9.464,-0.22983,0.14062,0.77059,0.81445,0.43891
9.472,-0.23227,0.125,0.76667,0.81055,0.43304
9.48,-0.23472,0.089844,0.75098,0.83398,0.4262
9.488,-0.23716,0.044922,0.73137,0.86523,0.42033
9.496,-0.23961,0.0058594,0.71569,0.88477,0.41544
9.504,-0.24205,-0.039062,0.7,0.91016,0.41153
9.512,-0.2445,-0.070312,0.68039,0.92383,0.40762
9.52,-0.24694,-0.089844,0.66471,0.93945,0.40469
9.528,-0.24939,-0.10938,0.6549,0.94531,0.40274
9.536,-0.25183,-0.11914,0.6549,0.95508,0.39883
9.544,-0.25428,-0.12891,0.6451,0.96875,0.39492
9.552,-0.25672,-0.125,0.6451,0.96875,0.39101
9.56,-0.25917,-0.125,0.6451,0.96875,0.3871
9.568,-0.26161,-0.11914,0.6549,0.96484,0.38221
9.576,-0.26406,-0.11914,0.65098,0.96875,0.3783
9.584,-0.2665,-0.10938,0.6549,0.95508,0.37341
9.592,-0.26895,-0.10352,0.65098,0.94922,0.3695
9.6,-0.26895,-0.11523,0.6549,0.96484,0.36657
9.608,-0.26895,-0.10352,0.65098,0.95898,0.36364
9.616,-0.26895,-0.10938,0.6451,0.96875,0.35973
9.624,-0.26895,-0.099609,0.65098,0.94922,0.35582
9.632,-0.26895,-0.09375,0.6549,0.95508,0.34995
9.64,-0.26895,-0.10352,0.64118,0.95898,0.34702
9.648,-0.2665,-0.10352,0.64118,0.95508,0.34409
9.656,-0.2665,-0.10352,0.63529,0.95508,0.34018
9.664,-0.26406,-0.09375,0.64118,0.94531,0.33822
9.672,-0.25917,-0.10352,0.63529,0.94922,0.33627
9.68,-0.25672,-0.10352,0.62941,0.94922,0.33431
9.688,-0.25428,-0.09375,0.62941,0.94531,0.33236
9.696,-0.24939,-0.10352,0.62941,0.95508,0.33236
9.704,-0.24694,-0.099609,0.64118,0.95898,0.3304
9.712,-0.24205,-0.064453,0.6549,0.93555,0.3304
9.72,-0.23961,-0.048828,0.66471,0.91992,0.33431
9.728,-0.23472,-0.044922,0.67059,0.9043,0.34115
9.736,-0.22983,-0.054688,0.64118,0.91016,0.35484
9.744,-0.22494,-0.054688,0.62549,0.91406,0.37341
9.752,-0.22249,-0.083984,0.60588,0.92383,0.41251
9.76,-0.2176,-0.09375,0.6,0.92383,0.44379
9.768,-0.21271,-0.080078,0.60588,0.92383,0.47801
9.776,-0.20782,-0.070312,0.61569,0.93555,0.52981
9.784,-0.20538,-0.099609,0.6098,0.95898,0.55914
9.792,-0.20049,-0.099609,0.6098,0.95898,0.58456
9.8,-0.19804,-0.09375,0.61569,0.95898,0.6129
9.808,-0.19315,-0.09375,0.61961,0.95508,0.6393
9.816,-0.19071,-0.099609,0.61569,0.96484,0.66276
9.824,-0.18582,-0.09375,0.61961,0.95508,0.68231
9.832,-0.18337,-0.080078,0.62549,0.94531,0.69697
9.84,-0.17848,-0.083984,0.61961,0.94922,0.7087
9.848,-0.17604,-0.12891,0.62549,0.97461,0.71065
9.856,-0.17359,-0.16992,0.66078,0.99414,0.70968
9.864,-0.17115,0.041016,0.67647,0.82031,0.70186
9.872,-0.16626,0.44922,0.2902,0.53906,0.69404
9.88,-0.16381,0.88867,-0.17255,0.25586,0.68622
9.888,-0.15892,1.0098,-0.35686,0.20508,0.67742
9.896,-0.15403,0.27539,0.21373,0.73047,0.66764
9.904,-0.14914,0.03125,0.5902,0.89453,0.65689
9.912,-0.14425,-0.019531,0.7,0.92383,0.64321
9.92,-0.13936,-0.064453,0.72549,0.94922,0.62854
9.928,-0.13447,-0.099609,0.73529,0.96484,0.61388
9.936,-0.12958,-0.11914,0.74118,0.98438,0.59726
9.944,-0.12469,-0.11914,0.7451,0.98047,0.5826
9.952,-0.11736,-0.125,0.75098,0.98438,0.56696
9.96,-0.11002,-0.11914,0.75098,0.98047,0.5523
9.968,-0.10513,-0.11914,0.75098,0.98047,0.54057
9.976,-0.0978,-0.11914,0.7451,0.98047,0.53177
9.984,-0.08802,-0.11914,0.7451,0.98438,0.52395
9.992,-0.080685,-0.10938,0.75098,0.96875,0.51515
10,-0.07335,-0.11523,0.7451,0.96875,0.50733
10.008,-0.06846,-0.099609,0.75098,0.96484,0.49853
10.016,-0.061125,-0.099609,0.7451,0.96875,0.48974
10.024,-0.056235,-0.09375,0.75098,0.95898,0.48192
10.032,-0.0489,-0.089844,0.75098,0.95508,0.47507
10.04,-0.04401,-0.074219,0.75098,0.94531,0.47019
10.048,-0.036675,-0.058594,0.7549,0.93945,0.4653
10.056,-0.031785,-0.039062,0.7549,0.92383,0.46139
10.064,-0.02445,-0.013672,0.76078,0.91406,0.4565
10.072,-0.01956,0.015625,0.76667,0.90039,0.45357
10.08,-0.012225,0.050781,0.77059,0.86914,0.44966
10.088,-0.007335,0.076172,0.77647,0.85938,0.44477
10.096,-0.002445,0.10547,0.77059,0.83984,0.43988
10.104,0.002445,0.13086,0.77059,0.82422,0.435
10.112,0.00978,0.16016,0.76667,0.80469,0.42913
10.12,0.01467,0.16016,0.75098,0.81055,0.42424
10.128,0.022005,0.15039,0.75098,0.81445,0.41838
10.136,0.02934,0.14453,0.75098,0.81055,0.41349
10.144,0.036675,0.13086,0.7451,0.80469,0.40958
10.152,0.04401,0.10547,0.74118,0.82422,0.40665
10.16,0.051345,0.060547,0.72157,0.84375,0.40371
10.168,0.056235,0.015625,0.7,0.86914,0.3998
10.176,0.06357,-0.029297,0.68039,0.89453,0.39589
10.184,0.070905,-0.058594,0.67059,0.91992,0.39394
10.192,0.075795,-0.070312,0.66078,0.92383,0.39101
10.2,0.08313,-0.080078,0.6549,0.92383,0.38807
10.208,0.08802,-0.10938,0.65098,0.95508,0.38514
10.216,0.095355,-0.10352,0.65098,0.95508,0.38123
10.224,0.10269,-0.09375,0.65098,0.94922,0.37732
10.232,0.10758,-0.10938,0.6549,0.95898,0.37341
10.24,0.11247,-0.10352,0.6549,0.95508,0.3695
10.248,0.11736,-0.09375,0.6549,0.94531,0.36559
10.256,0.12225,-0.083984,0.6549,0.93945,0.3607
10.264,0.12958,-0.080078,0.66078,0.93555,0.35679
10.272,0.13692,-0.083984,0.66471,0.93945,0.35288
10.28,0.14425,-0.074219,0.6549,0.92969,0.35093
10.288,0.15403,-0.080078,0.6549,0.94531,0.348
10.296,0.16381,-0.080078,0.6451,0.93945,0.34506
10.304,0.17359,-0.074219,0.64118,0.94531,0.34311
10.312,0.18337,-0.074219,0.63529,0.93945,0.34018
10.32,0.19315,-0.074219,0.64118,0.93555,0.33822
10.328,0.20293,-0.080078,0.6451,0.93555,0.33627
10.336,0.21271,-0.080078,0.63529,0.94531,0.33431
10.344,0.22249,-0.080078,0.63529,0.94531,0.33138
10.352,0.23227,-0.074219,0.62941,0.94531,0.3304
10.36,0.2445,-0.074219,0.62941,0.93945,0.32942
10.368,0.25428,-0.083984,0.62941,0.94531,0.33138
10.376,0.26895,-0.048828,0.65098,0.91992,0.33627
10.384,0.28117,-0.025391,0.6549,0.91016,0.34213
10.392,0.2934,-0.025391,0.66471,0.90039,0.35288
10.4,0.30318,-0.054688,0.6549,0.91406,0.37048
10.408,0.3154,-0.070312,0.61961,0.91992,0.39394
10.416,0.32518,-0.048828,0.61569,0.9043,0.42229
10.424,0.33741,-0.080078,0.61961,0.91992,0.45455
10.432,0.34719,-0.074219,0.5902,0.92383,0.48974
10.44,0.35941,-0.080078,0.61569,0.92383,0.52493
10.448,0.37164,-0.074219,0.61961,0.93945,0.55914
10.456,0.38386,-0.09375,0.6098,0.94531,0.59042
10.464,0.39364,-0.080078,0.61961,0.93555,0.61975
10.472,0.40587,-0.09375,0.61569,0.94922,0.64223
10.48,0.41809,-0.09375,0.6098,0.95508,0.65982
10.488,0.42543,-0.09375,0.61961,0.94922,0.67546
10.496,0.43521,-0.089844,0.61569,0.94922,0.68817
10.504,0.44499,-0.074219,0.61569,0.94531,0.69892
10.512,0.45232,-0.083984,0.61961,0.94531,0.70577
10.52,0.4621,-0.14844,0.62549,0.98047,0.7087
10.528,0.46944,-0.17383,0.66471,0.99414,0.70772
10.536,0.47922,0.14453,0.53922,0.75391,0.70283
10.544,0.48655,0.625,0.14902,0.43555,0.69501
10.552,0.49389,1.0293,-0.30196,0.19531,0.68524
10.56,0.50122,1.0352,-0.35686,0.41016,0.67351
10.568,0.50611,0.14062,0.38431,0.82031,0.6608
10.576,0.51345,0,0.65098,0.9043,0.64809
10.584,0.52078,-0.039062,0.7098,0.93555,0.63539
10.592,0.52567,-0.074219,0.72549,0.94922,0.62072
10.6,0.53301,-0.089844,0.73529,0.95898,0.60508
10.608,0.5379,-0.09375,0.73529,0.96484,0.59042
10.616,0.54279,-0.099609,0.74118,0.95898,0.57674
10.624,0.55012,-0.11523,0.74118,0.97461,0.56305
10.632,0.55501,-0.099609,0.74118,0.96484,0.55132
10.64,0.5599,-0.10938,0.73529,0.96875,0.54154
10.648,0.56235,-0.10352,0.74118,0.97461,0.53177
10.656,0.56479,-0.10938,0.74118,0.96875,0.52297
10.664,0.56724,-0.09375,0.73529,0.95898,0.51417
10.672,0.56968,-0.083984,0.7451,0.94531,0.50831
10.68,0.57213,-0.070312,0.75098,0.93555,0.50244
10.688,0.57457,-0.083984,0.75098,0.94922,0.49658
10.696,0.57702,-0.089844,0.75098,0.95898,0.48289
10.704,0.57702,-0.080078,0.75098,0.94922,0.46628
10.712,0.57946,-0.064453,0.7549,0.93945,0.45552
10.72,0.57946,-0.048828,0.76078,0.92969,0.4477
10.728,0.57946,-0.029297,0.76667,0.91992,0.44184
10.736,0.58191,-0.0039062,0.77059,0.9043,0.43695
10.744,0.58191,0.015625,0.77647,0.90039,0.43206
10.752,0.58191,0.060547,0.78039,0.86914,0.42717
10.76,0.58191,0.089844,0.77647,0.84961,0.42229
10.768,0.58435,0.11133,0.76667,0.83398,0.4174
10.776,0.58435,0.13477,0.76078,0.82422,0.41251
10.784,0.58435,0.15625,0.75098,0.80469,0.4086
10.792,0.58435,0.16602,0.75098,0.79492,0.40469
10.8,0.5868,0.14453,0.73529,0.80469,0.40078
10.808,0.5868,0.14062,0.73529,0.81055,0.39589
10.816,0.5868,0.12109,0.73137,0.81445,0.39003
10.824,0.5868,0.085938,0.72549,0.83398,0.38416
10.832,0.5868,0.044922,0.7098,0.85547,0.37928
10.84,0.5868,0.015625,0.7,0.875,0.37537
10.848,0.5868,-0.019531,0.6902,0.89453,0.37243
10.856,0.5868,-0.054688,0.67647,0.91992,0.3695
10.864,0.5868,-0.074219,0.66471,0.92383,0.36657
10.872,0.5868,-0.089844,0.66078,0.93945,0.36559
10.88,0.5868,-0.09375,0.66078,0.94531,0.36364
10.888,0.5868,-0.099609,0.6549,0.94531,0.35973
10.896,0.5868,-0.09375,0.6549,0.94531,0.35679
10.904,0.5868,-0.080078,0.66471,0.92383,0.35386
10.912,0.5868,-0.089844,0.66078,0.93555,0.35191
10.92,0.5868,-0.09375,0.6549,0.94531,0.34995
10.928,0.58924,-0.089844,0.66078,0.93945,0.34702
10.936,0.58924,-0.074219,0.66471,0.92969,0.34506
10.944,0.59169,-0.083984,0.6549,0.94531,0.34115
10.952,0.59413,-0.080078,0.6549,0.93555,0.33724
10.96,0.59658,-0.074219,0.66078,0.93555,0.33431
10.968,0.59902,-0.074219,0.6549,0.92969,0.33138
10.976,0.60147,-0.083984,0.6451,0.94531,0.32845
10.984,0.60391,-0.080078,0.6451,0.93945,0.32649
10.992,0.60636,-0.083984,0.6451,0.93945,0.32258
11,0.6088,-0.083984,0.64118,0.94531,0.31867
11.008,0.61369,-0.089844,0.62941,0.93945,0.31378
11.016,0.61614,-0.083984,0.63529,0.92969,0.3089
11.024,0.62103,-0.09375,0.63529,0.93945,0.30499
11.032,0.62347,-0.09375,0.63529,0.94531,0.30303
11.04,0.62592,-0.09375,0.63529,0.94531,0.30303
11.048,0.62836,-0.074219,0.6549,0.92383,0.3089
11.056,0.63325,-0.048828,0.66078,0.91016,0.32063
11.064,0.63325,-0.044922,0.67647,0.9043,0.3392
11.072,0.63325,-0.080078,0.6549,0.92969,0.3607
11.08,0.63325,-0.089844,0.61961,0.92383,0.38612
11.088,0.63325,-0.080078,0.61569,0.91992,0.41838
11.096,0.63081,-0.099609,0.60588,0.92969,0.4565
11.104,0.62836,-0.099609,0.60588,0.91992,0.49756
11.112,0.62592,-0.10938,0.61569,0.93555,0.53666
11.12,0.62103,-0.09375,0.61961,0.95508,0.57478
11.128,0.61614,-0.11914,0.61569,0.96484,0.61095
11.136,0.61125,-0.11523,0.61961,0.96484,0.64321
11.144,0.60636,-0.10938,0.62549,0.95508,0.67058
11.152,0.60147,-0.10352,0.62941,0.94922,0.69306
11.16,0.59169,-0.11523,0.62941,0.96875,0.71065
11.168,0.58435,-0.10938,0.62941,0.95898,0.72336
11.176,0.57702,-0.099609,0.62941,0.95898,0.73216
11.184,0.56724,-0.10938,0.62941,0.96484,0.73705
11.192,0.55746,-0.17383,0.62941,0.99023,0.739
11.2,0.54768,-0.18945,0.68039,0.93945,0.73803
11.208,0.54034,0.20508,0.53922,0.71484,0.73509
11.216,0.53056,0.71484,0.1549,0.37109,0.72825
11.224,0.51834,1.1191,-0.27647,0.14062,0.71945
11.232,0.50856,0.7793,-0.30784,0.39453,0.70772
11.24,0.49633,0.15039,0.41569,0.81445,0.69404
11.248,0.48411,0.0058594,0.66471,0.91016,0.6784
11.256,0.47188,-0.035156,0.72157,0.92383,0.66276
11.264,0.45966,-0.080078,0.72549,0.95508,0.64614
11.272,0.44743,-0.09375,0.73529,0.95898,0.63148
11.28,0.43521,-0.11523,0.74118,0.97461,0.61779
11.288,0.42543,-0.11523,0.73529,0.97461,0.60313
11.296,0.4132,-0.10938,0.74118,0.96484,0.58847
11.304,0.40098,-0.099609,0.7451,0.95898,0.57478
11.312,0.3912,-0.11523,0.74118,0.96875,0.56109
11.32,0.37897,-0.099609,0.74118,0.96484,0.54839
11.328,0.36919,-0.10938,0.74118,0.96875,0.53666
11.336,0.35697,-0.099609,0.74118,0.95898,0.5259
11.344,0.34474,-0.10352,0.74118,0.96875,0.51808
11.352,0.33496,-0.10352,0.74118,0.96484,0.51124
11.36,0.32274,-0.09375,0.75098,0.94922,0.5044
11.368,0.31296,-0.09375,0.7451,0.95898,0.49853
11.376,0.30318,-0.083984,0.75098,0.94922,0.49365
11.384,0.29095,-0.074219,0.7549,0.94531,0.48778
11.392,0.28117,-0.064453,0.7549,0.93945,0.48289
11.4,0.26895,-0.044922,0.77059,0.92383,0.47703
11.408,0.25672,-0.025391,0.77647,0.91406,0.47116
11.416,0.2445,0,0.78039,0.90039,0.46628
11.424,0.23472,0.025391,0.78627,0.88867,0.46041
11.432,0.22249,0.050781,0.7902,0.86914,0.45455
11.44,0.21271,0.089844,0.7902,0.84375,0.44966
11.448,0.20293,0.099609,0.77647,0.83984,0.44477
11.456,0.19071,0.11523,0.77647,0.82422,0.43891
11.464,0.18093,0.125,0.76667,0.82422,0.43304
11.472,0.17115,0.11133,0.75098,0.83008,0.42717
11.48,0.16137,0.11133,0.75098,0.83008,0.42229
11.488,0.15159,0.089844,0.7451,0.83008,0.41642
11.496,0.14181,0.064453,0.75098,0.84375,0.40958
11.504,0.13203,0.0097656,0.72157,0.87891,0.40274
11.512,0.12225,-0.025391,0.70588,0.90039,0.39687
11.52,0.11247,-0.064453,0.68627,0.91992,0.39101
11.528,0.10269,-0.09375,0.68039,0.94531,0.38514
11.536,0.09291,-0.11914,0.67059,0.94922,0.38025
11.544,0.08313,-0.11914,0.67059,0.95898,0.37634
11.552,0.07335,-0.125,0.67059,0.95898,0.37341
11.56,0.06357,-0.12891,0.66471,0.95508,0.37048
11.568,0.05379,-0.13477,0.66471,0.96875,0.36852
11.576,0.041565,-0.13477,0.66471,0.96875,0.36755
11.584,0.031785,-0.12891,0.67059,0.96484,0.36559
11.592,0.022005,-0.125,0.67647,0.96484,0.36364
11.6,0.012225,-0.11914,0.67647,0.95508,0.35973
11.608,0.002445,-0.11523,0.67647,0.95898,0.35582
11.616,-0.00489,-0.10352,0.68039,0.94922,0.35191
11.624,-0.012225,-0.10938,0.67647,0.95508,0.34897
11.632,-0.01956,-0.099609,0.67647,0.94922,0.34702
11.64,-0.026895,-0.09375,0.67647,0.94531,0.34409
11.648,-0.031785,-0.09375,0.67059,0.94531,0.34115
11.656,-0.036675,-0.09375,0.66471,0.94922,0.33724
11.664,-0.041565,-0.09375,0.66471,0.94531,0.33236
11.672,-0.046455,-0.09375,0.66078,0.94531,0.32942
11.68,-0.051345,-0.083984,0.66078,0.92969,0.32649
11.688,-0.056235,-0.09375,0.6549,0.94531,0.32258
11.696,-0.061125,-0.089844,0.6549,0.94531,0.31867
11.704,-0.06357,-0.089844,0.65098,0.94531,0.31672
11.712,-0.066015,-0.099609,0.6451,0.94531,0.31672
11.72,-0.06846,-0.089844,0.6549,0.94922,0.32356
11.728,-0.070905,-0.039062,0.68039,0.91016,0.33627
11.736,-0.07335,-0.025391,0.6902,0.9043,0.35582
11.744,-0.075795,-0.070312,0.68039,0.92969,0.38221
11.752,-0.07824,-0.09375,0.63529,0.93555,0.41544
11.76,-0.07824,-0.074219,0.62941,0.92383,0.45259
11.768,-0.080685,-0.09375,0.62941,0.92969,0.48583
11.776,-0.080685,-0.10352,0.61569,0.92383,0.51808
11.784,-0.08313,-0.09375,0.62549,0.92383,0.55327
11.792,-0.08313,-0.10352,0.62941,0.94922,0.58847
11.8,-0.085575,-0.10938,0.63529,0.95508,0.62268
11.808,-0.085575,-0.10352,0.62941,0.95898,0.65396
11.816,-0.08802,-0.10352,0.63529,0.94922,0.68328
11.824,-0.090465,-0.11914,0.62549,0.96875,0.70772
11.832,-0.090465,-0.11523,0.62941,0.96484,0.72727
11.84,-0.09291,-0.10938,0.62941,0.95898,0.74291
11.848,-0.09291,-0.09375,0.63529,0.94922,0.75464
11.856,-0.095355,-0.09375,0.63529,0.94531,0.76149
11.864,-0.095355,-0.14453,0.65098,0.96875,0.76344
11.872,-0.0978,-0.17969,0.68627,0.99414,0.76149
11.88,-0.0978,0.099609,0.5902,0.77539,0.7566
11.888,-0.10024,0.56055,0.25882,0.46484,0.74878
11.896,-0.10269,1.0137,-0.19216,0.17578,0.739
11.904,-0.10513,1.084,-0.32745,0.15625,0.72825
11.912,-0.10513,0.24023,0.3098,0.74414,0.71457
11.92,-0.10758,0.019531,0.64118,0.88477,0.6999
11.928,-0.11002,-0.035156,0.72549,0.92383,0.68426
11.936,-0.11247,-0.083984,0.7451,0.95508,0.66862
11.944,-0.11491,-0.11523,0.75098,0.96875,0.652
11.952,-0.11736,-0.11914,0.76667,0.96875,0.63441
11.96,-0.1198,-0.125,0.76078,0.98047,0.61779
11.968,-0.12225,-0.12891,0.76667,0.98438,0.60313
11.976,-0.12469,-0.125,0.76667,0.97461,0.58944
11.984,-0.12958,-0.12891,0.76078,0.98438,0.57576
11.992,-0.13203,-0.125,0.7549,0.97461,0.56207
12,-0.13447,-0.11914,0.76078,0.96875,0.55034
12.008,-0.13936,-0.10352,0.7549,0.95508,0.53763
12.016,-0.14181,-0.099609,0.76078,0.94922,0.52786
12.024,-0.1467,-0.11523,0.7549,0.96875,0.52004
12.032,-0.15159,-0.10352,0.76078,0.95898,0.51222
12.04,-0.15648,-0.10938,0.76667,0.96875,0.50635
12.048,-0.16137,-0.080078,0.77059,0.93945,0.49951
12.056,-0.16626,-0.070312,0.77059,0.93555,0.49267
12.064,-0.17115,-0.064453,0.77647,0.93555,0.48583
12.072,-0.17604,-0.054688,0.78039,0.93555,0.47898
12.08,-0.18093,-0.039062,0.78039,0.92383,0.47214
12.088,-0.18582,-0.0097656,0.79608,0.91016,0.4653
12.096,-0.18826,0.019531,0.79608,0.88867,0.45846
12.104,-0.19315,0.054688,0.80588,0.86914,0.45161
12.112,-0.1956,0.085938,0.79608,0.84961,0.44673
12.12,-0.20049,0.11133,0.7902,0.83398,0.44086
12.128,-0.20293,0.125,0.78627,0.82422,0.43597
12.136,-0.20538,0.13477,0.78039,0.81445,0.43109
12.144,-0.20782,0.125,0.77059,0.82031,0.4262
12.152,-0.21271,0.11523,0.76667,0.82422,0.42033
12.16,-0.21516,0.089844,0.76078,0.83398,0.41349
12.168,-0.2176,0.054688,0.7451,0.84961,0.4086
12.176,-0.22005,0.019531,0.73529,0.86914,0.40567
12.184,-0.22494,-0.0097656,0.72157,0.88477,0.40078
12.192,-0.22738,-0.054688,0.7,0.91406,0.39492
12.2,-0.23227,-0.083984,0.68039,0.92969,0.38807
12.208,-0.23716,-0.10352,0.67059,0.94531,0.38221
12.216,-0.24205,-0.11914,0.66471,0.94922,0.37634
12.224,-0.24694,-0.11914,0.66471,0.94922,0.37146
12.232,-0.25183,-0.125,0.6549,0.96484,0.36657
12.24,-0.25672,-0.12891,0.6549,0.96875,0.36266
12.248,-0.26161,-0.125,0.6549,0.96484,0.35973
12.256,-0.26406,-0.125,0.6549,0.95898,0.35679
12.264,-0.2665,-0.11914,0.66078,0.96484,0.35484
12.272,-0.27139,-0.11914,0.6549,0.95898,0.35386
12.28,-0.27384,-0.11914,0.6549,0.96484,0.35288
12.288,-0.27384,-0.11914,0.6549,0.95898,0.34995
12.296,-0.27628,-0.099609,0.6549,0.94922,0.34604
12.304,-0.27873,-0.09375,0.6549,0.94531,0.34213
12.312,-0.27873,-0.10352,0.65098,0.95508,0.33724
12.32,-0.27873,-0.09375,0.6451,0.94531,0.33333
12.328,-0.27873,-0.099609,0.64118,0.94922,0.32845
12.336,-0.27873,-0.09375,0.64118,0.94922,0.32356
12.344,-0.27873,-0.09375,0.64118,0.94922,0.31867
12.352,-0.27628,-0.099609,0.64118,0.94922,0.31378
12.36,-0.27384,-0.09375,0.64118,0.95508,0.30987
12.368,-0.27139,-0.09375,0.6451,0.94531,0.30694
12.376,-0.2665,-0.09375,0.64118,0.94922,0.30596
12.384,-0.26161,-0.09375,0.63529,0.94531,0.30596
12.392,-0.25917,-0.099609,0.62941,0.94922,0.31085
12.4,-0.25428,-0.054688,0.6549,0.91992,0.3216
12.408,-0.24939,-0.044922,0.66471,0.91406,0.34018
12.416,-0.2445,-0.064453,0.67647,0.92383,0.36559
12.424,-0.24205,-0.083984,0.63529,0.92969,0.39687
12.432,-0.23716,-0.09375,0.61569,0.93555,0.43206
12.44,-0.23227,-0.083984,0.62549,0.92383,0.47116
12.448,-0.22738,-0.10938,0.60588,0.93555,0.51124
12.456,-0.22494,-0.11914,0.6,0.92969,0.55132
12.464,-0.22005,-0.099609,0.61569,0.94531,0.58944
12.472,-0.2176,-0.10352,0.61569,0.94922,0.62072
12.48,-0.21516,-0.099609,0.62549,0.94531,0.64809
12.488,-0.21027,-0.10938,0.62941,0.95508,0.67546
12.496,-0.20782,-0.10938,0.62549,0.95898,0.70088
12.504,-0.20538,-0.10938,0.62549,0.95508,0.72434
12.512,-0.20293,-0.099609,0.62941,0.94922,0.74291
12.52,-0.20049,-0.099609,0.62941,0.94922,0.75758
12.528,-0.1956,-0.089844,0.62941,0.94922,0.76735
12.536,-0.1956,-0.11523,0.63529,0.96484,0.77224
12.544,-0.19315,-0.17969,0.66078,0.99023,0.77224
12.552,-0.19071,0.0058594,0.68627,0.84375,0.76931
12.56,-0.19071,0.38477,0.4,0.57422,0.76149
12.568,-0.18826,0.87891,-0.047059,0.25,0.75171
12.576,-0.18826,1.0449,-0.33725,0.16016,0.74194
12.584,-0.18582,0.42969,0.11961,0.625,0.72923
12.592,-0.18582,0.060547,0.55098,0.86914,0.71554
12.6,-0.18582,-0.019531,0.7,0.91992,0.69892
12.608,-0.18582,-0.064453,0.72549,0.94531,0.68133
12.616,-0.18582,-0.09375,0.73529,0.96484,0.66373
12.624,-0.18582,-0.10938,0.7451,0.96875,0.64516
12.632,-0.18582,-0.11914,0.75098,0.97461,0.62659
12.64,-0.18582,-0.11914,0.7549,0.98438,0.61095
12.648,-0.18582,-0.125,0.75098,0.97461,0.59629
12.656,-0.18582,-0.11523,0.7549,0.96875,0.58358
12.664,-0.18826,-0.11914,0.75098,0.97461,0.57087
12.672,-0.18826,-0.11523,0.7549,0.96875,0.56012
12.68,-0.19071,-0.10352,0.75098,0.96484,0.55034
12.688,-0.19315,-0.09375,0.76078,0.94922,0.53959
12.696,-0.1956,-0.09375,0.7549,0.95898,0.52884
12.704,-0.19804,-0.089844,0.76078,0.94922,0.51906
12.712,-0.20049,-0.09375,0.75098,0.96484,0.51026
12.72,-0.20293,-0.080078,0.76078,0.94922,0.50342
12.728,-0.20293,-0.070312,0.76078,0.94531,0.49756
12.736,-0.20538,-0.054688,0.76667,0.93945,0.49169
12.744,-0.20782,-0.039062,0.77059,0.92969,0.47703
12.752,-0.21027,-0.025391,0.77647,0.92383,0.45846
12.76,-0.21271,0,0.78627,0.9043,0.44575
12.768,-0.21271,0.035156,0.79608,0.88477,0.43695
12.776,-0.21516,0.064453,0.79608,0.86523,0.43109
12.784,-0.2176,0.10547,0.8,0.83984,0.42424
12.792,-0.22005,0.12109,0.79608,0.84375,0.41935
12.8,-0.22005,0.14062,0.78627,0.82422,0.41447
12.808,-0.22249,0.14453,0.78039,0.82031,0.41056
12.816,-0.22249,0.14062,0.77059,0.82422,0.40665
12.824,-0.22249,0.14062,0.77059,0.81445,0.40176
12.832,-0.22494,0.13086,0.76078,0.81445,0.39785
12.84,-0.22738,0.089844,0.75098,0.83984,0.39198
12.848,-0.22738,0.050781,0.73529,0.85938,0.38612
12.856,-0.22983,0.0058594,0.72157,0.87891,0.37928
12.864,-0.23227,-0.029297,0.7,0.90039,0.37439
12.872,-0.23472,-0.058594,0.68627,0.92383,0.3695
12.88,-0.23472,-0.080078,0.68039,0.92969,0.36364
12.888,-0.23716,-0.099609,0.66471,0.94531,0.35777
12.896,-0.23961,-0.10352,0.66078,0.94531,0.35288
12.904,-0.23961,-0.11523,0.6549,0.94922,0.34897
12.912,-0.24205,-0.11914,0.6549,0.95508,0.34506
12.92,-0.2445,-0.11523,0.66078,0.95508,0.34213
12.928,-0.2445,-0.11914,0.66078,0.95898,0.3392
12.936,-0.24694,-0.10352,0.66471,0.94531,0.33627
12.944,-0.24939,-0.10938,0.67059,0.94922,0.33236
12.952,-0.24939,-0.10352,0.66471,0.95508,0.32845
12.96,-0.25183,-0.099609,0.66471,0.94531,0.32454
12.968,-0.25183,-0.09375,0.66078,0.95508,0.3216
12.976,-0.25183,-0.099609,0.6549,0.95508,0.32063
12.984,-0.25183,-0.09375,0.6549,0.94922,0.31769
12.992,-0.24939,-0.09375,0.66078,0.94531,0.31574
13,-0.24939,-0.089844,0.6549,0.94531,0.31281
13.008,-0.24694,-0.083984,0.65098,0.93555,0.30987
13.016,-0.2445,-0.083984,0.65098,0.93945,0.30596
13.024,-0.24205,-0.089844,0.6451,0.94531,0.30205
13.032,-0.23716,-0.080078,0.6451,0.92969,0.29814
13.04,-0.23472,-0.089844,0.64118,0.93945,0.29423
13.048,-0.22983,-0.080078,0.64118,0.94531,0.29032
13.056,-0.22738,-0.083984,0.63529,0.93945,0.28739
13.064,-0.22249,-0.089844,0.64118,0.94531,0.28739
13.072,-0.22005,-0.070312,0.65098,0.92969,0.2913
13.08,-0.21516,-0.029297,0.66471,0.9043,0.30108
13.088,-0.21027,-0.025391,0.68039,0.90039,0.31769
13.096,-0.20782,-0.058594,0.66471,0.91406,0.34115
13.104,-0.20293,-0.074219,0.62549,0.92969,0.37146
13.112,-0.19804,-0.064453,0.61569,0.91992,0.40665
13.12,-0.19315,-0.083984,0.61961,0.92969,0.44575
13.128,-0.19071,-0.089844,0.6,0.92383,0.48485
13.136,-0.18582,-0.083984,0.61569,0.92969,0.52297
13.144,-0.18337,-0.080078,0.62549,0.94531,0.55914
13.152,-0.17848,-0.089844,0.61961,0.94531,0.59238
13.16,-0.17604,-0.080078,0.61961,0.94922,0.62268
13.168,-0.17115,-0.09375,0.62549,0.95898,0.64614
13.176,-0.1687,-0.089844,0.62549,0.95508,0.66373
13.184,-0.16381,-0.09375,0.62549,0.94531,0.68035
13.192,-0.15892,-0.080078,0.62549,0.94531,0.69404
13.2,-0.15403,-0.083984,0.62941,0.94531,0.70283
13.208,-0.14914,-0.09375,0.62941,0.95508,0.7087
13.216,-0.14425,-0.14844,0.62941,0.97461,0.71065
13.224,-0.13936,-0.16992,0.67647,0.98438,0.7087
13.232,-0.13203,0.125,0.5549,0.75977,0.70381
13.24,-0.12714,0.58984,0.16471,0.44531,0.69501
13.248,-0.1198,0.99414,-0.30196,0.20508,0.68524
13.256,-0.11491,1.0039,-0.37255,0.39453,0.67351
13.264,-0.10758,0.15625,0.3549,0.80469,0.6608
13.272,-0.10024,0.0058594,0.65098,0.90039,0.64712
13.28,-0.095355,-0.035156,0.72157,0.92969,0.6305
13.288,-0.08802,-0.074219,0.73529,0.94922,0.61388
13.296,-0.08313,-0.099609,0.75098,0.96875,0.59726
13.304,-0.075795,-0.10352,0.7549,0.97461,0.57967
13.312,-0.070905,-0.099609,0.76078,0.95898,0.56403
13.32,-0.06357,-0.10938,0.7549,0.96875,0.54936
13.328,-0.056235,-0.10352,0.75098,0.96484,0.53763
13.336,-0.0489,-0.099609,0.75098,0.96875,0.5259
13.344,-0.04401,-0.099609,0.75098,0.96484,0.51417
13.352,-0.036675,-0.099609,0.75098,0.96484,0.50342
13.36,-0.02934,-0.09375,0.75098,0.95898,0.49267
13.368,-0.02445,-0.083984,0.75098,0.94922,0.48485
13.376,-0.01956,-0.083984,0.75098,0.95508,0.47703
13.384,-0.01467,-0.074219,0.75098,0.94531,0.47019
13.392,-0.00978,-0.070312,0.75098,0.94531,0.46237
13.4,-0.00489,-0.074219,0.7549,0.94531,0.45552
13.408,0,-0.054688,0.76078,0.93945,0.44966
13.416,0.002445,-0.029297,0.76667,0.92383,0.44477
13.424,0.007335,-0.025391,0.77059,0.91992,0.43988
13.432,0.00978,0.0058594,0.77059,0.90039,0.435
13.44,0.012225,0.03125,0.77647,0.88477,0.43011
13.448,0.017115,0.064453,0.78039,0.875,0.42424
13.456,0.01956,0.089844,0.78039,0.84961,0.41838
13.464,0.022005,0.11523,0.77647,0.83008,0.41349
13.472,0.026895,0.14453,0.77647,0.81445,0.40958
13.48,0.031785,0.16602,0.77059,0.79883,0.40567
13.488,0.036675,0.17578,0.76667,0.80469,0.40176
13.496,0.041565,0.16016,0.76667,0.78906,0.39687
13.504,0.0489,0.16992,0.7549,0.7793,0.39198
13.512,0.05379,0.125,0.7451,0.81445,0.38612
13.52,0.061125,0.089844,0.72549,0.83398,0.37928
13.528,0.06846,0.044922,0.72157,0.86523,0.37341
13.536,0.07335,-0.0039062,0.7,0.88867,0.36657
13.544,0.07824,-0.035156,0.6902,0.9043,0.35973
13.552,0.085575,-0.054688,0.68039,0.92383,0.35386
13.56,0.090465,-0.074219,0.66078,0.93945,0.34897
13.568,0.0978,-0.09375,0.6549,0.94531,0.34604
13.576,0.10513,-0.09375,0.6549,0.94531,0.34409
13.584,0.11247,-0.09375,0.6549,0.94531,0.34213
13.592,0.11736,-0.10352,0.6549,0.94922,0.33822
13.6,0.12469,-0.10352,0.6549,0.95508,0.33431
13.608,0.12958,-0.099609,0.6549,0.94922,0.33138
13.616,0.13692,-0.09375,0.6549,0.94922,0.32942
13.624,0.14425,-0.09375,0.6549,0.94531,0.32649
13.632,0.15159,-0.09375,0.6549,0.94922,0.32356
13.64,0.15892,-0.089844,0.6549,0.93945,0.32063
13.648,0.1687,-0.080078,0.65098,0.94531,0.31672
13.656,0.17604,-0.070312,0.65098,0.93555,0.31378
13.664,0.18582,-0.074219,0.65098,0.92969,0.31183
13.672,0.19804,-0.074219,0.64118,0.93945,0.31085
13.68,0.20782,-0.064453,0.62941,0.93555,0.30792
13.688,0.2176,-0.074219,0.63529,0.93945,0.30401
13.696,0.22738,-0.064453,0.62941,0.92969,0.3001
13.704,0.23716,-0.074219,0.62941,0.93945,0.29619
13.712,0.24694,-0.074219,0.62941,0.93945,0.29228
13.72,0.25672,-0.070312,0.62941,0.93555,0.28837
13.728,0.2665,-0.074219,0.62941,0.93945,0.28739
13.736,0.27873,-0.074219,0.62549,0.94531,0.28935
13.744,0.29095,-0.083984,0.62549,0.94531,0.29423
13.752,0.30073,-0.035156,0.65098,0.91992,0.30401
13.76,0.31051,-0.013672,0.6549,0.90039,0.31867
13.768,0.32029,-0.039062,0.66471,0.91016,0.33627
13.776,0.33007,-0.070312,0.61961,0.91992,0.35777
13.784,0.33985,-0.054688,0.6098,0.92383,0.38514
13.792,0.34963,-0.070312,0.61961,0.91016,0.4174
13.8,0.35941,-0.080078,0.6,0.92383,0.45259
13.808,0.36919,-0.080078,0.6,0.92383,0.48974
13.816,0.38142,-0.070312,0.61569,0.93945,0.5259
13.824,0.3912,-0.074219,0.6098,0.94531,0.56207
13.832,0.40098,-0.074219,0.61569,0.94531,0.59531
13.84,0.41076,-0.074219,0.61569,0.93945,0.62463
13.848,0.41809,-0.074219,0.61569,0.93945,0.65103
13.856,0.42787,-0.080078,0.61569,0.94531,0.67253
13.864,0.43521,-0.080078,0.62549,0.94922,0.68719
13.872,0.44254,-0.074219,0.61961,0.94531,0.69795
13.88,0.44988,-0.074219,0.61961,0.93945,0.70772
13.888,0.45966,-0.10938,0.62549,0.95508,0.71261
13.896,0.46699,-0.14453,0.6549,0.96875,0.71554
13.904,0.47677,0.064453,0.5902,0.81055,0.71359
13.912,0.48411,0.49414,0.26863,0.52539,0.7087
13.92,0.49144,0.97461,-0.19216,0.22461,0.70088
13.928,0.49878,1.0742,-0.35294,0.17969,0.69013
13.936,0.50367,0.25977,0.25882,0.74414,0.67644
13.944,0.511,0.019531,0.62549,0.90039,0.66276
13.952,0.51834,-0.019531,0.72157,0.92383,0.64809
13.96,0.52323,-0.058594,0.73137,0.94531,0.63245
13.968,0.53056,-0.083984,0.74118,0.96484,0.61779
13.976,0.53545,-0.09375,0.7451,0.96484,0.60606
13.984,0.54034,-0.09375,0.75098,0.96875,0.5914
13.992,0.54523,-0.09375,0.7451,0.95898,0.57674
14,0.55257,-0.089844,0.74118,0.95508,0.56305
14.008,0.55501,-0.09375,0.7451,0.94922,0.54936
14.016,0.5599,-0.09375,0.74118,0.96484,0.53666
14.024,0.56235,-0.089844,0.74118,0.95508,0.5259
14.032,0.56724,-0.083984,0.7451,0.94922,0.51417
14.04,0.56724,-0.080078,0.74118,0.94922,0.50342
14.048,0.56968,-0.074219,0.7451,0.94531,0.49462
14.056,0.57213,-0.070312,0.7451,0.93945,0.48778
14.064,0.57457,-0.070312,0.7451,0.94531,0.48192
14.072,0.57457,-0.048828,0.75098,0.92969,0.47801
14.08,0.57457,-0.054688,0.75098,0.94531,0.4741
14.088,0.57457,-0.039062,0.75098,0.92969,0.46921
14.096,0.57457,-0.013672,0.76078,0.91406,0.46334
14.104,0.57457,0.0058594,0.76667,0.90039,0.45748
14.112,0.57457,0.03125,0.76667,0.88477,0.45161
14.12,0.57457,0.054688,0.77059,0.875,0.44575
14.128,0.57457,0.089844,0.76667,0.84961,0.43988
14.136,0.57457,0.12109,0.77059,0.83008,0.435
14.144,0.57457,0.14062,0.7549,0.82422,0.43109
14.152,0.57457,0.16016,0.75098,0.80469,0.4262
14.16,0.57457,0.17578,0.75098,0.79492,0.42229
14.168,0.57213,0.16992,0.74118,0.78906,0.41838
14.176,0.57213,0.16016,0.73529,0.79883,0.41642
14.184,0.57213,0.15039,0.72549,0.80469,0.41153
14.192,0.57213,0.125,0.72549,0.81055,0.40665
14.2,0.57213,0.080078,0.71569,0.83984,0.40078
14.208,0.57213,0.035156,0.69608,0.85938,0.39492
14.216,0.57213,0,0.68039,0.88477,0.38807
14.224,0.57213,-0.029297,0.66471,0.90039,0.38221
14.232,0.57213,-0.048828,0.66078,0.91406,0.37537
14.24,0.57213,-0.070312,0.6549,0.92969,0.3695
14.248,0.56968,-0.074219,0.65098,0.93555,0.36461
14.256,0.56968,-0.070312,0.6549,0.92383,0.35973
14.264,0.56968,-0.080078,0.6549,0.94531,0.35582
14.272,0.56968,-0.083984,0.6549,0.94531,0.35288
14.28,0.56724,-0.089844,0.6549,0.93945,0.34995
14.288,0.56724,-0.074219,0.6549,0.93555,0.348
14.296,0.56724,-0.089844,0.6549,0.94531,0.34506
14.304,0.56724,-0.080078,0.6549,0.94531,0.34311
14.312,0.56724,-0.080078,0.6549,0.94531,0.34115
14.32,0.56724,-0.074219,0.6549,0.93945,0.33822
14.328,0.56479,-0.074219,0.6549,0.94531,0.33627
14.336,0.56479,-0.074219,0.6549,0.93555,0.33333
14.344,0.56479,-0.080078,0.65098,0.94531,0.3304
14.352,0.56479,-0.080078,0.65098,0.94531,0.32649
14.36,0.56479,-0.080078,0.6451,0.93945,0.32258
14.368,0.56235,-0.089844,0.64118,0.94531,0.31867
14.376,0.56235,-0.089844,0.6451,0.94531,0.31672
14.384,0.5599,-0.09375,0.64118,0.94531,0.31281
14.392,0.5599,-0.089844,0.6451,0.94531,0.30987
14.4,0.55746,-0.083984,0.64118,0.93945,0.3089
14.408,0.55746,-0.089844,0.64118,0.94531,0.3089
14.416,0.55501,-0.099609,0.63529,0.93945,0.31281
14.424,0.55257,-0.083984,0.6451,0.94531,0.3216
14.432,0.55257,-0.048828,0.6549,0.91992,0.33529
14.44,0.54768,-0.048828,0.67059,0.91406,0.35484
14.448,0.54523,-0.080078,0.6549,0.92383,0.38025
14.456,0.54034,-0.09375,0.61569,0.93555,0.41056
14.464,0.53545,-0.074219,0.62549,0.92383,0.44086
14.472,0.53056,-0.09375,0.6098,0.93555,0.47214
14.48,0.52567,-0.099609,0.60588,0.92383,0.50831
14.488,0.51834,-0.083984,0.61569,0.93555,0.54643
14.496,0.51345,-0.080078,0.62549,0.92969,0.58456
14.504,0.50856,-0.089844,0.61961,0.94922,0.62072
14.512,0.50122,-0.089844,0.62549,0.95508,0.65298
14.52,0.49389,-0.083984,0.62549,0.94531,0.68231
14.528,0.489,-0.074219,0.61961,0.94531,0.70772
14.536,0.47922,-0.074219,0.61569,0.93945,0.72825
14.544,0.47188,-0.074219,0.61569,0.93945,0.74389
14.552,0.46455,-0.064453,0.61961,0.94531,0.75464
14.56,0.45721,-0.058594,0.62549,0.93555,0.76051
14.568,0.44988,-0.13477,0.62941,0.96875,0.76149
14.576,0.44254,-0.14844,0.68039,0.91406,0.75758
14.584,0.43521,0.25977,0.52549,0.67969,0.75269
14.592,0.42787,0.78516,0.12941,0.33594,0.74682
14.6,0.41809,1.1641,-0.27647,0.10547,0.73803
14.608,0.41076,0.78516,-0.28824,0.40039,0.72727
14.616,0.40098,0.16016,0.43529,0.81055,0.71457
14.624,0.39364,0.025391,0.67059,0.90039,0.70088
14.632,0.38386,-0.025391,0.71569,0.92383,0.68719
14.64,0.37653,-0.080078,0.72549,0.95898,0.67155
14.648,0.36675,-0.09375,0.74118,0.96875,0.65689
14.656,0.35941,-0.10352,0.74118,0.97461,0.64125
14.664,0.35208,-0.099609,0.75098,0.96484,0.62659
14.672,0.34474,-0.10938,0.75098,0.97461,0.61388
14.68,0.33496,-0.11914,0.75098,0.98047,0.60117
14.688,0.32518,-0.11914,0.75098,0.97461,0.58847
14.696,0.3154,-0.099609,0.7451,0.96875,0.57576
14.704,0.30807,-0.09375,0.7451,0.95898,0.56305
14.712,0.29829,-0.09375,0.7451,0.96484,0.55132
14.72,0.29095,-0.089844,0.75098,0.94531,0.54057
14.728,0.28362,-0.099609,0.75098,0.96484,0.52981
14.736,0.27628,-0.089844,0.7549,0.96875,0.52102
14.744,0.2665,-0.074219,0.76667,0.94531,0.5132
14.752,0.25917,-0.080078,0.76078,0.95508,0.50538
14.76,0.24939,-0.064453,0.76667,0.94531,0.49951
14.768,0.23961,-0.048828,0.77647,0.92969,0.49365
14.776,0.22983,-0.035156,0.77647,0.92383,0.48778
14.784,0.22005,-0.013672,0.78039,0.91406,0.48289
14.792,0.21027,0.0097656,0.78627,0.90039,0.47312
14.8,0.20049,0.035156,0.79608,0.87891,0.46041
14.808,0.19315,0.070312,0.79608,0.85938,0.45161
14.816,0.18337,0.095703,0.79608,0.84375,0.44477
14.824,0.17604,0.12109,0.78039,0.83008,0.43793
14.832,0.16626,0.125,0.77647,0.83398,0.43206
14.84,0.15892,0.13086,0.77059,0.83008,0.4262
14.848,0.14914,0.12109,0.76078,0.83008,0.42033
14.856,0.13936,0.11523,0.7549,0.83008,0.41447
14.864,0.13203,0.099609,0.75098,0.82422,0.41056
14.872,0.12225,0.060547,0.73529,0.84961,0.40762
14.88,0.11491,0.019531,0.72549,0.87891,0.40469
14.888,0.10758,-0.013672,0.70588,0.89453,0.40078
14.896,0.10024,-0.054688,0.6902,0.91992,0.39785
14.904,0.090465,-0.074219,0.68039,0.92383,0.39394
14.912,0.080685,-0.09375,0.67647,0.93555,0.39003
14.92,0.070905,-0.099609,0.67059,0.94531,0.38514
14.928,0.06357,-0.10938,0.66078,0.94531,0.37928
14.936,0.051345,-0.11914,0.66471,0.95898,0.37439
14.944,0.041565,-0.11914,0.66471,0.95898,0.36852
14.952,0.031785,-0.11523,0.67059,0.94922,0.36461
14.96,0.022005,-0.11914,0.67059,0.95508,0.3607
14.968,0.012225,-0.10938,0.67059,0.94922,0.35777
14.976,0.002445,-0.10938,0.67059,0.95898,0.35484
14.984,-0.00489,-0.10938,0.66471,0.95508,0.35093
14.992,-0.012225,-0.099609,0.67059,0.94531,0.34897
15,-0.01956,-0.09375,0.67647,0.94531,0.34604
15.008,-0.02445,-0.09375,0.66471,0.94531,0.34311
15.016,-0.02934,-0.080078,0.67059,0.92969,0.34018
15.024,-0.03423,-0.083984,0.66078,0.93945,0.33627
15.032,-0.03912,-0.089844,0.6549,0.94531,0.33431
15.04,-0.04401,-0.083984,0.65098,0.94531,0.33138
15.048,-0.046455,-0.089844,0.65098,0.94531,0.32845
15.056,-0.051345,-0.089844,0.65098,0.94531,0.32551
15.064,-0.05379,-0.09375,0.6451,0.94531,0.32356
15.072,-0.056235,-0.089844,0.64118,0.94531,0.32258
15.08,-0.056235,-0.083984,0.63529,0.93945,0.32258
15.088,-0.05868,-0.089844,0.6451,0.94531,0.32356
15.096,-0.061125,-0.09375,0.6451,0.94922,0.32845
15.104,-0.061125,-0.099609,0.6549,0.94531,0.33822
15.112,-0.06357,-0.044922,0.67647,0.91406,0.35288
15.12,-0.06357,-0.035156,0.68627,0.9043,0.37243
15.128,-0.066015,-0.070312,0.67647,0.92383,0.39785
15.136,-0.066015,-0.089844,0.62941,0.92969,0.42717
15.144,-0.06846,-0.074219,0.63529,0.92383,0.45943
15.152,-0.06846,-0.09375,0.62941,0.93555,0.49365
15.16,-0.06846,-0.10938,0.61961,0.92969,0.52297
15.168,-0.070905,-0.11523,0.61569,0.94531,0.54936
15.176,-0.070905,-0.09375,0.63529,0.94531,0.57771
15.184,-0.07335,-0.11523,0.62941,0.96875,0.60704
15.192,-0.07335,-0.10938,0.62941,0.95898,0.63343
15.2,-0.075795,-0.10352,0.63529,0.95898,0.65689
15.208,-0.075795,-0.11523,0.62941,0.96875,0.67742
15.216,-0.07824,-0.10352,0.62941,0.96484,0.69404
15.224,-0.080685,-0.10938,0.62941,0.96875,0.70674
15.232,-0.08313,-0.10352,0.63529,0.95898,0.71554
15.24,-0.085575,-0.099609,0.63529,0.95508,0.72043
15.248,-0.08802,-0.1543,0.64118,0.98438,0.72239
15.256,-0.090465,-0.17969,0.6902,0.99414,0.72141
15.264,-0.09291,0.15039,0.57059,0.74414,0.7175
15.272,-0.095355,0.64062,0.2,0.41992,0.71163
15.28,-0.0978,1.0449,-0.23725,0.16602,0.70381
15.288,-0.10024,1.0703,-0.32157,0.36523,0.69404
15.296,-0.10269,0.17969,0.35882,0.78516,0.68328
15.304,-0.10513,0,0.65098,0.9043,0.6696
15.312,-0.10758,-0.044922,0.72157,0.93555,0.65591
15.32,-0.11002,-0.09375,0.73529,0.96484,0.64125
15.328,-0.11491,-0.11523,0.75098,0.96875,0.62659
15.336,-0.11736,-0.13477,0.7549,0.99414,0.6129
15.344,-0.12225,-0.12891,0.76078,0.98438,0.6002
15.352,-0.12469,-0.12891,0.76667,0.98047,0.58749
15.36,-0.12714,-0.11914,0.76667,0.96875,0.57674
15.368,-0.12958,-0.13477,0.76078,0.99023,0.56696
15.376,-0.13447,-0.12891,0.7549,0.99023,0.55621
15.384,-0.13692,-0.125,0.7549,0.98047,0.54545
15.392,-0.14181,-0.11914,0.7549,0.97461,0.5347
15.4,-0.14425,-0.11523,0.7549,0.97461,0.52493
15.408,-0.14914,-0.10352,0.75098,0.96875,0.51613
15.416,-0.15403,-0.10938,0.75098,0.96875,0.50831
15.424,-0.15892,-0.099609,0.7549,0.96484,0.50147
15.432,-0.16381,-0.09375,0.76078,0.96875,0.4956
15.44,-0.1687,-0.074219,0.76667,0.94531,0.48876
15.448,-0.17359,-0.064453,0.76667,0.93945,0.48094
15.456,-0.17848,-0.048828,0.77059,0.93555,0.4741
15.464,-0.18337,-0.025391,0.78039,0.92383,0.46823
15.472,-0.18826,0,0.78627,0.9043,0.46334
15.48,-0.19315,0.03125,0.7902,0.88867,0.45846
15.488,-0.19804,0.064453,0.79608,0.875,0.45357
15.496,-0.20293,0.089844,0.79608,0.85547,0.44868
15.504,-0.20538,0.12109,0.78627,0.83398,0.44379
15.512,-0.21027,0.13086,0.77647,0.82422,0.43793
15.52,-0.21516,0.14062,0.77059,0.82031,0.43206
15.528,-0.2176,0.13477,0.76078,0.82422,0.42522
15.536,-0.22005,0.12109,0.7549,0.82422,0.41838
15.544,-0.22494,0.099609,0.75098,0.83008,0.41251
15.552,-0.22738,0.070312,0.74118,0.84375,0.40567
15.56,-0.23227,0.025391,0.72549,0.86914,0.40078
15.568,-0.23472,-0.013672,0.70588,0.89453,0.39687
15.576,-0.23961,-0.054688,0.6902,0.91992,0.39198
15.584,-0.2445,-0.080078,0.68039,0.93555,0.3871
15.592,-0.24939,-0.099609,0.67059,0.94531,0.38123
15.6,-0.25183,-0.11523,0.66078,0.94922,0.37732
15.608,-0.25672,-0.11914,0.66078,0.95898,0.37341
15.616,-0.25917,-0.11914,0.6549,0.96484,0.3695
15.624,-0.26406,-0.125,0.6549,0.96875,0.36559
15.632,-0.2665,-0.11914,0.6549,0.95898,0.3607
15.64,-0.26895,-0.11914,0.6549,0.95898,0.35582
15.648,-0.27139,-0.11914,0.66078,0.96484,0.35191
15.656,-0.27384,-0.10938,0.66078,0.95898,0.348
15.664,-0.27628,-0.099609,0.66078,0.94922,0.34506
15.672,-0.27628,-0.09375,0.66078,0.94922,0.34311
15.68,-0.27873,-0.09375,0.66078,0.94922,0.34018
15.688,-0.27873,-0.09375,0.6549,0.94922,0.33627
15.696,-0.27873,-0.089844,0.6549,0.94531,0.33333
15.704,-0.27628,-0.09375,0.6549,0.94531,0.32942
15.712,-0.27628,-0.09375,0.6451,0.94531,0.32551
15.72,-0.27628,-0.089844,0.6451,0.94531,0.3216
15.728,-0.27384,-0.083984,0.64118,0.94531,0.31867
15.736,-0.27139,-0.089844,0.63529,0.94531,0.31476
15.744,-0.26895,-0.083984,0.62941,0.93945,0.31085
15.752,-0.2665,-0.083984,0.63529,0.93945,0.30792
15.76,-0.26406,-0.083984,0.63529,0.93945,0.30596
15.768,-0.25917,-0.089844,0.62941,0.94531,0.30694
15.776,-0.25672,-0.083984,0.63529,0.93945,0.31085
15.784,-0.25428,-0.048828,0.6549,0.91992,0.31867
15.792,-0.25183,-0.025391,0.67059,0.9043,0.33236
15.8,-0.24939,-0.035156,0.68039,0.90039,0.35191
15.808,-0.24694,-0.074219,0.64118,0.92383,0.37537
15.816,-0.2445,-0.080078,0.62549,0.92383,0.40469
15.824,-0.24205,-0.070312,0.62941,0.91992,0.43793
15.832,-0.23961,-0.099609,0.6098,0.92969,0.47312
15.84,-0.23716,-0.10938,0.60588,0.93945,0.50929
15.848,-0.23472,-0.089844,0.62549,0.93945,0.54448
15.856,-0.23472,-0.09375,0.61569,0.95508,0.57771
15.864,-0.23227,-0.09375,0.62549,0.95508,0.60411
15.872,-0.23227,-0.09375,0.61961,0.95508,0.62561
15.88,-0.23227,-0.099609,0.61961,0.95898,0.64809
15.888,-0.23227,-0.09375,0.62549,0.94922,0.66862
15.896,-0.23472,-0.09375,0.62549,0.95508,0.68622
15.904,-0.23472,-0.083984,0.62549,0.94922,0.70088
15.912,-0.23716,-0.080078,0.62941,0.94922,0.71065
15.92,-0.23961,-0.12891,0.62941,0.97461,0.7175
15.928,-0.23961,-0.17969,0.6549,0.99414,0.72043
15.936,-0.24205,0.019531,0.68039,0.83398,0.72043
15.944,-0.2445,0.43555,0.35882,0.54492,0.71652
15.952,-0.24694,0.88477,-0.076471,0.25,0.71065
15.96,-0.24939,1.0449,-0.31765,0.16602,0.70283
15.968,-0.25183,0.37109,0.15882,0.66016,0.69306
15.976,-0.25428,0.054688,0.56078,0.875,0.68231
15.984,-0.25917,0,0.70588,0.91016,0.6696
15.992,-0.26161,-0.054688,0.72549,0.93945,0.65591
16,-0.26406,-0.089844,0.7451,0.95898,0.64125
16.008,-0.2665,-0.10352,0.75098,0.96875,0.62561
16.016,-0.26895,-0.10938,0.75098,0.97461,0.60997
16.024,-0.27384,-0.11523,0.75098,0.96875,0.59531
16.032,-0.27873,-0.10352,0.75098,0.96875,0.5826
16.04,-0.28362,-0.10938,0.75098,0.97461,0.56989
16.048,-0.28851,-0.099609,0.7549,0.96875,0.55914
16.056,-0.2934,-0.10352,0.75098,0.96875,0.54741
16.064,-0.29829,-0.099609,0.75098,0.96875,0.53763
16.072,-0.30318,-0.09375,0.75098,0.96484,0.52786
16.08,-0.31051,-0.09375,0.75098,0.95898,0.51906
16.088,-0.3154,-0.080078,0.7549,0.95508,0.51222
16.096,-0.32029,-0.074219,0.75098,0.95898,0.5044
16.104,-0.32518,-0.080078,0.76078,0.94922,0.49853
16.112,-0.33007,-0.070312,0.7549,0.94531,0.49169
16.12,-0.33496,-0.048828,0.76667,0.92969,0.48485
16.128,-0.33985,-0.029297,0.77059,0.92383,0.47898
16.136,-0.34474,-0.0097656,0.77647,0.91406,0.47312
16.144,-0.34963,0.0058594,0.78627,0.90039,0.46823
16.152,-0.35208,0.035156,0.7902,0.88477,0.46334
16.16,-0.35452,0.076172,0.79608,0.85938,0.45943
16.168,-0.35697,0.099609,0.79608,0.84375,0.45455
16.176,-0.35941,0.13086,0.7902,0.83008,0.44966
16.184,-0.36186,0.14062,0.78039,0.82031,0.44379
16.192,-0.36186,0.15039,0.77059,0.80469,0.43793
16.2,-0.3643,0.16016,0.77059,0.80469,0.43206
16.208,-0.3643,0.15625,0.76667,0.79492,0.4262
16.216,-0.3643,0.125,0.76078,0.82031,0.41935
16.224,-0.3643,0.095703,0.75098,0.83008,0.41349
16.232,-0.3643,0.064453,0.74118,0.84375,0.40762
16.24,-0.3643,0.0097656,0.72157,0.88477,0.40176
16.248,-0.3643,-0.029297,0.7,0.9043,0.39687
16.256,-0.36186,-0.064453,0.68627,0.92383,0.39101
16.264,-0.35941,-0.083984,0.68039,0.93555,0.38612
16.272,-0.35941,-0.09375,0.67059,0.93945,0.38221
16.28,-0.35697,-0.10352,0.66471,0.94922,0.37732
16.288,-0.35452,-0.10938,0.66471,0.94922,0.37243
16.296,-0.35452,-0.11523,0.66078,0.95898,0.36852
16.304,-0.35208,-0.099609,0.66471,0.94531,0.36461
16.312,-0.34963,-0.10352,0.67059,0.95508,0.35973
16.32,-0.34963,-0.10938,0.66471,0.95898,0.35484
16.328,-0.34719,-0.099609,0.66471,0.95508,0.34995
16.336,-0.34474,-0.09375,0.67059,0.94922,0.34604
16.344,-0.3423,-0.09375,0.66471,0.94531,0.34213
16.352,-0.33985,-0.089844,0.66471,0.94531,0.3392
16.36,-0.33741,-0.080078,0.66471,0.93945,0.33724
16.368,-0.33252,-0.083984,0.66078,0.94531,0.33627
16.376,-0.33007,-0.074219,0.6549,0.93945,0.33431
16.384,-0.32518,-0.080078,0.6549,0.93945,0.33236
16.392,-0.32029,-0.074219,0.65098,0.93555,0.3304
16.4,-0.3154,-0.074219,0.65098,0.92383,0.32747
16.408,-0.31051,-0.074219,0.6451,0.92969,0.32356
16.416,-0.30562,-0.074219,0.64118,0.92969,0.31965
16.424,-0.30073,-0.074219,0.63529,0.92383,0.31574
16.432,-0.29584,-0.070312,0.62941,0.92969,0.31183
16.44,-0.2934,-0.074219,0.62941,0.93555,0.3089
16.448,-0.28851,-0.074219,0.63529,0.92969,0.3089
16.456,-0.28362,-0.048828,0.6549,0.91406,0.31183
16.464,-0.27873,-0.025391,0.67059,0.89453,0.31965
16.472,-0.27384,-0.019531,0.68039,0.89453,0.33236
16.48,-0.26895,-0.058594,0.6549,0.91406,0.35191
16.488,-0.2665,-0.070312,0.61961,0.91992,0.3783
16.496,-0.26161,-0.054688,0.62941,0.91016,0.4086
16.504,-0.25672,-0.080078,0.61569,0.91992,0.44379
16.512,-0.25183,-0.083984,0.60588,0.91016,0.47898
16.52,-0.24939,-0.074219,0.61961,0.92383,0.51417
16.528,-0.2445,-0.083984,0.62549,0.94531,0.54741
16.536,-0.23961,-0.089844,0.61569,0.94531,0.57967
16.544,-0.23472,-0.089844,0.62549,0.94922,0.60899
16.552,-0.22983,-0.09375,0.62549,0.95508,0.63441
16.56,-0.22494,-0.089844,0.62941,0.94922,0.65494
16.568,-0.22005,-0.089844,0.62941,0.94531,0.6696
16.576,-0.21516,-0.083984,0.62941,0.94531,0.68231
16.584,-0.21027,-0.083984,0.62941,0.94531,0.69306
16.592,-0.20782,-0.099609,0.63529,0.95508,0.6999
16.6,-0.20293,-0.16992,0.64118,0.99023,0.70479
16.608,-0.19804,-0.039062,0.67647,0.87891,0.70577
16.616,-0.1956,0.32031,0.43529,0.625,0.70283
16.624,-0.19071,0.79492,0.0039216,0.31055,0.69892
16.632,-0.18826,1.0293,-0.36275,0.19531,0.6911
16.64,-0.18582,0.48438,0.039216,0.58008,0.68231
16.648,-0.18337,0.080078,0.49412,0.84961,0.67058
16.656,-0.18093,0.0058594,0.6902,0.9043,0.65885
16.664,-0.17848,-0.029297,0.72549,0.92383,0.64614
16.672,-0.17604,-0.074219,0.74118,0.94531,0.63245
16.68,-0.17359,-0.083984,0.7451,0.95898,0.61877
16.688,-0.17115,-0.089844,0.75098,0.95898,0.60508
16.696,-0.17115,-0.09375,0.75098,0.96484,0.5914
16.704,-0.1687,-0.09375,0.75098,0.95508,0.57967
16.712,-0.1687,-0.083984,0.75098,0.95898,0.56794
16.72,-0.16626,-0.089844,0.75098,0.95508,0.55621
16.728,-0.16626,-0.09375,0.75098,0.95898,0.54448
16.736,-0.16626,-0.09375,0.7451,0.96484,0.53275
16.744,-0.16626,-0.083984,0.75098,0.95508,0.52199
16.752,-0.16626,-0.083984,0.75098,0.94922,0.51222
16.76,-0.16626,-0.074219,0.76078,0.94531,0.50342
16.768,-0.16626,-0.074219,0.76667,0.94531,0.49658
16.776,-0.16626,-0.083984,0.76667,0.95898,0.48876
16.784,-0.16381,-0.074219,0.77059,0.95508,0.48289
16.792,-0.16381,-0.058594,0.77059,0.94531,0.47605
16.8,-0.16381,-0.039062,0.77059,0.92969,0.46921
16.808,-0.16381,-0.019531,0.77647,0.91992,0.46334
16.816,-0.16137,0,0.78627,0.9043,0.4565
16.824,-0.16137,0.019531,0.78627,0.89453,0.45064
16.832,-0.15892,0.054688,0.79608,0.875,0.44379
16.84,-0.15648,0.089844,0.79608,0.84961,0.435
16.848,-0.15403,0.11133,0.78627,0.83984,0.42522
16.856,-0.15159,0.13086,0.78039,0.83008,0.41838
16.864,-0.1467,0.13477,0.77059,0.82422,0.41251
16.872,-0.14425,0.14062,0.76667,0.81445,0.40762
16.88,-0.13936,0.13086,0.76667,0.81445,0.40176
16.888,-0.13447,0.11523,0.77059,0.82031,0.39687
16.896,-0.13203,0.089844,0.75098,0.83008,0.39296
16.904,-0.12714,0.050781,0.73529,0.85547,0.38807
16.912,-0.12469,0,0.71569,0.88477,0.38416
16.92,-0.1198,-0.048828,0.7,0.91406,0.3783
16.928,-0.11736,-0.074219,0.68039,0.92969,0.37341
16.936,-0.11247,-0.099609,0.67059,0.94531,0.36852
16.944,-0.11002,-0.11914,0.66078,0.95508,0.36266
16.952,-0.10513,-0.125,0.6549,0.96875,0.35875
16.96,-0.10269,-0.12891,0.65098,0.96484,0.35582
16.968,-0.0978,-0.125,0.6549,0.96484,0.35191
16.976,-0.095355,-0.11914,0.65098,0.95898,0.348
16.984,-0.090465,-0.11914,0.65098,0.96484,0.34311
16.992,-0.085575,-0.125,0.65098,0.96875,0.3392
17,-0.080685,-0.11914,0.65098,0.95898,0.33431
17.008,-0.075795,-0.11523,0.65098,0.95898,0.3304
17.016,-0.070905,-0.11914,0.65098,0.96484,0.32747
17.024,-0.066015,-0.099609,0.65098,0.94922,0.32356
17.032,-0.05868,-0.09375,0.65098,0.94531,0.31965
17.04,-0.051345,-0.089844,0.64118,0.94531,0.31672
17.048,-0.04401,-0.09375,0.64118,0.94531,0.31378
17.056,-0.036675,-0.09375,0.64118,0.94922,0.31281
17.064,-0.02934,-0.080078,0.64118,0.92969,0.31183
17.072,-0.022005,-0.083984,0.64118,0.93945,0.30987
17.08,-0.01467,-0.080078,0.63529,0.93555,0.30694
17.088,-0.00489,-0.09375,0.62941,0.94531,0.30303
17.096,0.007335,-0.089844,0.63529,0.94922,0.29912
17.104,0.017115,-0.083984,0.64118,0.93555,0.29521
17.112,0.026895,-0.09375,0.63529,0.94531,0.29228
17.12,0.036675,-0.083984,0.6451,0.92969,0.2913
17.128,0.046455,-0.058594,0.66078,0.91406,0.29423
17.136,0.056235,-0.019531,0.67059,0.88867,0.30205
17.144,0.06846,-0.044922,0.62941,0.90039,0.31574
17.152,0.07824,-0.074219,0.60588,0.91406,0.33627
17.16,0.090465,-0.074219,0.6098,0.91992,0.35777
17.168,0.10024,-0.064453,0.62549,0.92383,0.38221
17.176,0.11247,-0.089844,0.61569,0.94531,0.41251
17.184,0.12469,-0.10352,0.61569,0.93945,0.44575
17.192,0.13447,-0.10938,0.61961,0.96484,0.48094
17.2,0.1467,-0.11523,0.61961,0.95898,0.51515
17.208,0.15648,-0.09375,0.62549,0.95508,0.54839
17.216,0.1687,-0.10352,0.61961,0.95898,0.57771
17.224,0.17604,-0.10352,0.61569,0.95898,0.60411
17.232,0.18582,-0.099609,0.61569,0.95898,0.62757
17.24,0.1956,-0.12891,0.61961,0.96875,0.64614
17.248,0.20538,-0.18945,0.6451,0.99414,0.66178
17.256,0.21516,-0.035156,0.67647,0.86914,0.67155
17.264,0.22249,0.3457,0.38431,0.60938,0.67742
17.272,0.23227,0.83398,-0.086275,0.29492,0.68133
17.28,0.23961,1.0254,-0.38235,0.20508,0.68426
17.288,0.24694,0.40039,0.094118,0.64453,0.68328
17.296,0.25428,0.03125,0.53529,0.88477,0.67937
17.304,0.26161,-0.025391,0.6902,0.91992,0.67253
17.312,0.26895,-0.058594,0.71569,0.94531,0.66373
17.32,0.27628,-0.083984,0.72549,0.94922,0.652
17.328,0.28606,-0.10352,0.74118,0.96875,0.6393
17.336,0.29095,-0.11523,0.74118,0.96875,0.62659
17.344,0.29829,-0.10938,0.74118,0.96875,0.61388
17.352,0.30562,-0.11914,0.7451,0.96875,0.59922
17.36,0.31051,-0.11914,0.74118,0.97461,0.58651
17.368,0.3154,-0.10938,0.7451,0.96875,0.5738
17.376,0.32274,-0.11523,0.75098,0.96875,0.56207
17.384,0.32518,-0.10352,0.7451,0.96484,0.55034
17.392,0.33007,-0.10938,0.75098,0.95898,0.53959
17.4,0.33496,-0.09375,0.7549,0.95508,0.52786
17.408,0.33985,-0.09375,0.7549,0.95898,0.51808
17.416,0.3423,-0.089844,0.76078,0.95508,0.50831
17.424,0.34719,-0.080078,0.76667,0.94922,0.49951
17.432,0.34963,-0.070312,0.77059,0.93945,0.48974
17.44,0.35452,-0.074219,0.77059,0.94922,0.48192
17.448,0.35697,-0.048828,0.77059,0.93555,0.47312
17.456,0.36186,-0.029297,0.77647,0.92383,0.46628
17.464,0.36675,0,0.77647,0.90039,0.46041
17.472,0.36919,0.03125,0.78627,0.88867,0.45357
17.48,0.37408,0.050781,0.78627,0.875,0.4477
17.488,0.37653,0.085938,0.78627,0.84961,0.44184
17.496,0.38142,0.11523,0.78039,0.83008,0.43597
17.504,0.38386,0.14062,0.77647,0.81445,0.43109
17.512,0.38631,0.14453,0.76667,0.81445,0.4262
17.52,0.3912,0.14062,0.76078,0.82031,0.42131
17.528,0.39364,0.13477,0.7549,0.81055,0.41642
17.536,0.39609,0.11523,0.75098,0.82422,0.41251
17.544,0.39853,0.085938,0.7451,0.83984,0.40762
17.552,0.40098,0.050781,0.73137,0.84961,0.40274
17.56,0.40342,0.0097656,0.7098,0.875,0.3998
17.568,0.40587,-0.039062,0.6902,0.9043,0.39589
17.576,0.40831,-0.074219,0.68039,0.92383,0.39198
17.584,0.41076,-0.089844,0.67059,0.92969,0.3871
17.592,0.4132,-0.10938,0.6549,0.94531,0.38221
17.6,0.41565,-0.11523,0.66078,0.94922,0.3783
17.608,0.41809,-0.10938,0.6549,0.94531,0.37439
17.616,0.42054,-0.11914,0.66078,0.95508,0.3695
17.624,0.42298,-0.11914,0.66078,0.95898,0.36461
17.632,0.42543,-0.10938,0.66471,0.94922,0.3607
17.64,0.43032,-0.11523,0.66078,0.95508,0.35679
17.648,0.43521,-0.10938,0.66078,0.94922,0.35191
17.656,0.4401,-0.10352,0.66078,0.94922,0.348
17.664,0.44499,-0.099609,0.66078,0.94531,0.34409
17.672,0.44988,-0.09375,0.6549,0.94531,0.34115
17.68,0.45477,-0.089844,0.6549,0.93555,0.33724
17.688,0.4621,-0.089844,0.65098,0.93945,0.33431
17.696,0.46699,-0.083984,0.6451,0.93555,0.3304
17.704,0.47433,-0.089844,0.6451,0.94531,0.32551
17.712,0.47922,-0.09375,0.64118,0.94531,0.3216
17.72,0.48655,-0.083984,0.63529,0.93945,0.31867
17.728,0.49389,-0.080078,0.63529,0.93945,0.31574
17.736,0.50122,-0.080078,0.63529,0.93555,0.31281
17.744,0.511,-0.089844,0.63529,0.94531,0.3089
17.752,0.51834,-0.089844,0.63529,0.94531,0.30596
17.76,0.52567,-0.083984,0.62941,0.93945,0.30596
17.768,0.53301,-0.09375,0.63529,0.94531,0.30596
17.776,0.54034,-0.054688,0.6549,0.9043,0.3089
17.784,0.54768,-0.025391,0.67059,0.89453,0.31574
17.792,0.55501,-0.035156,0.62941,0.88867,0.32649
17.8,0.56479,-0.074219,0.60588,0.91406,0.34213
17.808,0.57213,-0.074219,0.60588,0.92383,0.36461
17.816,0.57946,-0.054688,0.62941,0.91406,0.39101
17.824,0.58924,-0.089844,0.62549,0.93945,0.42131
17.832,0.59658,-0.099609,0.61961,0.94922,0.45455
17.84,0.60391,-0.099609,0.61961,0.95508,0.48778
17.848,0.6088,-0.10938,0.61569,0.95898,0.52102
17.856,0.61369,-0.10938,0.6098,0.96484,0.54741
17.864,0.61858,-0.099609,0.61961,0.95508,0.57185
17.872,0.62347,-0.09375,0.61961,0.94922,0.59629
17.88,0.62836,-0.09375,0.62549,0.94922,0.61877
17.888,0.63325,-0.11914,0.62549,0.96484,0.64027
17.896,0.6357,-0.18359,0.6451,0.99414,0.65689
17.904,0.64059,-0.019531,0.67647,0.86914,0.67058
17.912,0.64303,0.35938,0.38431,0.59961,0.67937
17.92,0.64792,0.86914,-0.072549,0.2793,0.68524
17.928,0.65037,1.0742,-0.37255,0.17969,0.68719
17.936,0.65281,0.44922,0.10392,0.61523,0.68622
17.944,0.65526,0.054688,0.55098,0.86914,0.68133
17.952,0.66015,-0.0097656,0.69608,0.91016,0.67351
17.96,0.66259,-0.048828,0.72549,0.93555,0.66471
17.968,0.66504,-0.080078,0.72549,0.95508,0.65494
17.976,0.66748,-0.09375,0.73529,0.96484,0.64321
17.984,0.66993,-0.09375,0.74118,0.95898,0.62952
17.992,0.66993,-0.10352,0.73529,0.96484,0.61486
18,0.66993,-0.10352,0.74118,0.96875,0.59922
18.008,0.66993,-0.099609,0.7451,0.96875,0.58358
18.016,0.67237,-0.099609,0.73529,0.96875,0.56794
18.024,0.66993,-0.10352,0.73529,0.96484,0.55425
18.032,0.66993,-0.09375,0.73529,0.96484,0.54057
18.04,0.66993,-0.09375,0.74118,0.95508,0.52884
18.048,0.66748,-0.089844,0.74118,0.94922,0.51808
18.056,0.66504,-0.089844,0.7451,0.95898,0.50929
18.064,0.66259,-0.089844,0.75098,0.95898,0.50147
18.072,0.6577,-0.080078,0.75098,0.94922,0.49365
18.08,0.65526,-0.074219,0.7549,0.94531,0.48485
18.088,0.65037,-0.064453,0.76078,0.94531,0.47703
18.096,0.64548,-0.054688,0.77059,0.93555,0.47019
18.104,0.64059,-0.029297,0.77059,0.91992,0.46334
18.112,0.6357,-0.0039062,0.77647,0.9043,0.4565
18.12,0.62836,0.015625,0.78039,0.89453,0.45064
18.128,0.62103,0.050781,0.78039,0.875,0.44575
18.136,0.61125,0.085938,0.78039,0.84961,0.44184
18.144,0.60147,0.10547,0.77647,0.83984,0.43695
18.152,0.59169,0.12109,0.77059,0.83008,0.43206
18.16,0.57946,0.14062,0.77059,0.81445,0.42815
18.168,0.56968,0.14062,0.7549,0.82031,0.42326
18.176,0.55746,0.13086,0.75098,0.82422,0.41838
18.184,0.54523,0.11523,0.74118,0.82031,0.41349
18.192,0.53545,0.089844,0.73529,0.83398,0.40567
18.2,0.52323,0.064453,0.72549,0.84961,0.39883
18.208,0.50856,0.025391,0.70588,0.86914,0.39394
18.216,0.49633,-0.013672,0.69608,0.88867,0.39003
18.224,0.48166,-0.048828,0.68039,0.91406,0.38514
18.232,0.46699,-0.070312,0.67059,0.92383,0.38123
18.24,0.45477,-0.089844,0.66078,0.93945,0.37732
18.248,0.4401,-0.09375,0.66078,0.94531,0.37341
18.256,0.42787,-0.09375,0.66078,0.94922,0.37048
18.264,0.4132,-0.09375,0.66078,0.94531,0.36852
18.272,0.40098,-0.089844,0.66471,0.94531,0.36559
18.28,0.38386,-0.09375,0.66078,0.94531,0.36168
18.288,0.36919,-0.089844,0.66471,0.94531,0.35777
18.296,0.35452,-0.083984,0.66471,0.93945,0.35386
18.304,0.33985,-0.083984,0.66471,0.93945,0.34897
18.312,0.32763,-0.074219,0.67059,0.93555,0.34409
18.32,0.31296,-0.074219,0.67059,0.93945,0.34018
18.328,0.30073,-0.070312,0.66471,0.92969,0.33627
18.336,0.28851,-0.074219,0.66078,0.93555,0.33333
18.344,0.27873,-0.074219,0.66078,0.93555,0.3304
18.352,0.26895,-0.070312,0.6549,0.92969,0.32845
18.36,0.26161,-0.074219,0.6549,0.92969,0.32649
18.368,0.25428,-0.083984,0.6451,0.93945,0.32454
18.376,0.24694,-0.080078,0.6451,0.94531,0.32063
18.384,0.23961,-0.080078,0.64118,0.93945,0.31769
18.392,0.23472,-0.083984,0.64118,0.94531,0.31281
18.4,0.22738,-0.074219,0.6451,0.92969,0.3089
18.408,0.22249,-0.089844,0.6451,0.94531,0.30694
18.416,0.22005,-0.089844,0.6451,0.94531,0.30792
18.424,0.21516,-0.074219,0.6549,0.92383,0.31183
18.432,0.21027,-0.054688,0.67059,0.91016,0.32845
18.44,0.20782,-0.025391,0.68039,0.88867,0.34702
18.448,0.20293,-0.054688,0.62941,0.90039,0.36364
18.456,0.20049,-0.080078,0.61569,0.91016,0.38416
18.464,0.1956,-0.080078,0.62549,0.91992,0.41642
18.472,0.19315,-0.070312,0.62941,0.91406,0.45064
18.48,0.18826,-0.10938,0.62549,0.95508,0.47703
18.488,0.18582,-0.11523,0.61961,0.95898,0.50929
18.496,0.18093,-0.10938,0.61961,0.95898,0.54936
18.504,0.17848,-0.11914,0.61961,0.96875,0.58553
18.512,0.17604,-0.11914,0.62549,0.96875,0.60997
18.52,0.17115,-0.11914,0.62941,0.96484,0.63539
18.528,0.1687,-0.11523,0.62941,0.95898,0.66178
18.536,0.16381,-0.10352,0.62941,0.95898,0.68328
18.544,0.15892,-0.14844,0.63529,0.98047,0.69697
18.552,0.15403,-0.18359,0.67059,0.99414,0.70577
18.56,0.15159,0.025391,0.68627,0.83398,0.71261
18.568,0.1467,0.45508,0.32941,0.53516,0.71652
18.576,0.14425,0.95508,-0.11176,0.21094,0.71554
18.584,0.13936,1.1035,-0.32157,0.13477,0.71163
18.592,0.13447,0.34961,0.18824,0.67969,0.70381
18.6,0.12958,0.03125,0.58431,0.89453,0.69404
18.608,0.12225,-0.035156,0.70588,0.92969,0.68133
18.616,0.11736,-0.080078,0.73529,0.95508,0.66862
18.624,0.11247,-0.10352,0.75098,0.96875,0.65396
18.632,0.10758,-0.125,0.75098,0.98438,0.63832
18.64,0.10269,-0.13477,0.7549,0.99023,0.62268
18.648,0.0978,-0.12891,0.7549,0.98047,0.60802
18.656,0.09291,-0.12891,0.76078,0.98438,0.59433
18.664,0.08802,-0.12891,0.7549,0.98438,0.57967
18.672,0.08313,-0.12891,0.76078,0.98438,0.565
18.68,0.07824,-0.11914,0.7549,0.97461,0.55132
18.688,0.07335,-0.11914,0.7549,0.96875,0.53861
18.696,0.06846,-0.11914,0.7549,0.96875,0.5259
18.704,0.061125,-0.10938,0.76078,0.96875,0.51515
18.712,0.056235,-0.10938,0.76078,0.96875,0.50538
18.72,0.051345,-0.10352,0.76667,0.96484,0.4956
18.728,0.04401,-0.09375,0.76667,0.95898,0.4868
18.736,0.03912,-0.083984,0.77059,0.95508,0.47898
18.744,0.031785,-0.070312,0.77647,0.94531,0.47312
18.752,0.026895,-0.054688,0.78627,0.92969,0.46725
18.76,0.01956,-0.025391,0.79608,0.91992,0.46237
18.768,0.012225,-0.0039062,0.79608,0.91016,0.4565
18.776,0.002445,0.019531,0.80588,0.89453,0.45161
18.784,-0.00489,0.050781,0.81176,0.875,0.44673
18.792,-0.01467,0.085938,0.80588,0.85547,0.44086
18.8,-0.022005,0.11523,0.80588,0.83008,0.435
18.808,-0.02934,0.125,0.79608,0.83008,0.42815
18.816,-0.036675,0.12109,0.78627,0.83008,0.42131
18.824,-0.04401,0.12109,0.78039,0.83008,0.41447
18.832,-0.051345,0.11523,0.77059,0.83008,0.40762
18.84,-0.061125,0.099609,0.76078,0.83398,0.40078
18.848,-0.06846,0.076172,0.75098,0.84961,0.39589
18.856,-0.075795,0.035156,0.73529,0.86914,0.39198
18.864,-0.08313,-0.0039062,0.72157,0.88867,0.3871
18.872,-0.090465,-0.044922,0.69608,0.91016,0.38123
18.88,-0.0978,-0.074219,0.68039,0.92383,0.37928
18.888,-0.10513,-0.09375,0.67059,0.94531,0.37928
18.896,-0.11247,-0.10938,0.67059,0.94922,0.37634
18.904,-0.1198,-0.125,0.66078,0.95898,0.37341
18.912,-0.12714,-0.12891,0.66078,0.96484,0.3695
18.92,-0.13447,-0.12891,0.66078,0.96875,0.36559
18.928,-0.14181,-0.125,0.6549,0.96875,0.36266
18.936,-0.14914,-0.12891,0.6549,0.96484,0.35973
18.944,-0.15648,-0.11523,0.66078,0.95508,0.35777
18.952,-0.16381,-0.11523,0.6549,0.95898,0.35582
18.96,-0.1687,-0.11523,0.6549,0.95898,0.35288
18.968,-0.17604,-0.11523,0.6549,0.95898,0.34995
18.976,-0.18093,-0.10938,0.6549,0.95508,0.34702
18.984,-0.18582,-0.10938,0.6549,0.95898,0.34311
18.992,-0.19071,-0.099609,0.65098,0.94922,0.34018
19,-0.19315,-0.099609,0.6451,0.94531,0.33724
19.008,-0.1956,-0.09375,0.65098,0.94531,0.33333
19.016,-0.19804,-0.09375,0.6451,0.94531,0.3304
19.024,-0.20049,-0.09375,0.64118,0.94531,0.32747
19.032,-0.20049,-0.09375,0.63529,0.94531,0.32356
19.04,-0.20049,-0.09375,0.63529,0.94531,0.31965
19.048,-0.20049,-0.09375,0.63529,0.94531,0.31672
19.056,-0.20049,-0.09375,0.64118,0.94922,0.31476
19.064,-0.20049,-0.09375,0.63529,0.94922,0.31574
19.072,-0.19804,-0.089844,0.64118,0.93945,0.31965
19.08,-0.1956,-0.058594,0.6549,0.91992,0.32845
19.088,-0.1956,-0.025391,0.68039,0.89453,0.34311
19.096,-0.19315,-0.039062,0.64118,0.90039,0.36168
19.104,-0.19315,-0.083984,0.60588,0.91992,0.38612
19.112,-0.19071,-0.089844,0.60588,0.92383,0.41447
19.12,-0.18826,-0.080078,0.62549,0.93555,0.44575
19.128,-0.18826,-0.099609,0.61569,0.94922,0.47801
19.136,-0.18582,-0.11523,0.61569,0.95898,0.50929
19.144,-0.18337,-0.11523,0.61961,0.96484,0.53568
19.152,-0.18093,-0.11914,0.62549,0.95898,0.55816
19.16,-0.18093,-0.11914,0.61961,0.96875,0.58358
19.168,-0.17848,-0.10938,0.62549,0.95898,0.60704
19.176,-0.17604,-0.10352,0.61961,0.95898,0.62854
19.184,-0.17604,-0.11523,0.61961,0.96875,0.64809
19.192,-0.17359,-0.125,0.62549,0.96484,0.66373
19.2,-0.17359,-0.18359,0.63529,0.99414,0.67546
19.208,-0.17359,-0.10352,0.68039,0.92383,0.68328
19.216,-0.17359,0.22461,0.49412,0.68945,0.68817
19.224,-0.17359,0.73438,0.068627,0.34961,0.68915
19.232,-0.17115,1.0645,-0.34314,0.15625,0.68817
19.24,-0.17115,0.6543,-0.060784,0.46484,0.68426
19.248,-0.17115,0.11133,0.4451,0.83008,0.6784
19.256,-0.17115,-0.0097656,0.66471,0.91016,0.6696
19.264,-0.1687,-0.058594,0.7098,0.93945,0.65982
19.272,-0.1687,-0.099609,0.72549,0.96875,0.64809
19.28,-0.1687,-0.125,0.74118,0.98438,0.63636
19.288,-0.1687,-0.12891,0.7451,0.99023,0.62366
19.296,-0.1687,-0.12891,0.75098,0.98438,0.60997
19.304,-0.1687,-0.125,0.75098,0.99023,0.59629
19.312,-0.1687,-0.12891,0.75098,0.98438,0.5826
19.32,-0.17115,-0.12891,0.75098,0.99023,0.56891
19.328,-0.17115,-0.125,0.75098,0.98047,0.55621
19.336,-0.17359,-0.11914,0.75098,0.98047,0.54448
19.344,-0.17604,-0.11523,0.75098,0.96875,0.5347
19.352,-0.17848,-0.11914,0.75098,0.97461,0.5259
19.36,-0.18093,-0.11914,0.75098,0.97461,0.51711
19.368,-0.18337,-0.10938,0.75098,0.96875,0.50831
19.376,-0.18582,-0.09375,0.76078,0.95898,0.50147
19.384,-0.18826,-0.083984,0.76667,0.94922,0.49462
19.392,-0.19315,-0.074219,0.77059,0.94922,0.48778
19.4,-0.1956,-0.048828,0.77059,0.92969,0.48094
19.408,-0.20049,-0.044922,0.77647,0.93555,0.4741
19.416,-0.20538,-0.013672,0.78627,0.91992,0.46823
19.424,-0.20782,0.015625,0.79608,0.89453,0.46139
19.432,-0.21271,0.041016,0.79608,0.88477,0.45552
19.44,-0.2176,0.070312,0.79608,0.86914,0.45064
19.448,-0.22005,0.099609,0.79608,0.84961,0.44575
19.456,-0.22494,0.11523,0.7902,0.83398,0.44086
19.464,-0.22738,0.13086,0.78039,0.83008,0.435
19.472,-0.22983,0.13086,0.77647,0.82422,0.42913
19.48,-0.23227,0.11523,0.77059,0.83008,0.42326
19.488,-0.23472,0.10547,0.76667,0.83398,0.4174
19.496,-0.23472,0.080078,0.75098,0.83984,0.41153
19.504,-0.23716,0.041016,0.73137,0.85938,0.40762
19.512,-0.23961,0,0.71569,0.87891,0.40371
19.52,-0.23961,-0.044922,0.7,0.9043,0.3998
19.528,-0.24205,-0.080078,0.68039,0.92383,0.39589
19.536,-0.24205,-0.099609,0.66078,0.94531,0.39101
19.544,-0.2445,-0.11914,0.6549,0.95508,0.3871
19.552,-0.2445,-0.12891,0.6549,0.96875,0.38416
19.56,-0.24694,-0.13477,0.65098,0.96875,0.38025
19.568,-0.24939,-0.13477,0.6549,0.96484,0.37537
19.576,-0.25183,-0.12891,0.6549,0.96875,0.37048
19.584,-0.25183,-0.125,0.6549,0.96484,0.36559
19.592,-0.25428,-0.11914,0.6549,0.96484,0.3607
19.6,-0.25672,-0.11914,0.6549,0.95898,0.35777
19.608,-0.25672,-0.11914,0.6549,0.95898,0.35386
19.616,-0.25917,-0.10938,0.6549,0.95508,0.35093
19.624,-0.25917,-0.10938,0.6549,0.95898,0.348
19.632,-0.25917,-0.09375,0.65098,0.94531,0.34409
19.64,-0.25917,-0.09375,0.6451,0.94531,0.34115
19.648,-0.25672,-0.083984,0.65098,0.93945,0.33822
19.656,-0.25672,-0.09375,0.6451,0.94531,0.33529
19.664,-0.25428,-0.089844,0.6451,0.93945,0.33236
19.672,-0.25183,-0.089844,0.63529,0.94531,0.32942
19.68,-0.24939,-0.09375,0.62941,0.94531,0.32649
19.688,-0.24694,-0.09375,0.62941,0.94531,0.32258
19.696,-0.2445,-0.089844,0.62941,0.94531,0.31965
19.704,-0.24205,-0.083984,0.62549,0.94531,0.31769
19.712,-0.23716,-0.09375,0.61961,0.94531,0.31672
19.72,-0.23472,-0.09375,0.61961,0.94922,0.31867
19.728,-0.22983,-0.09375,0.62549,0.94922,0.32454
19.736,-0.22494,-0.099609,0.62941,0.94922,0.33627
19.744,-0.22005,-0.083984,0.63529,0.93555,0.35093
19.752,-0.21516,-0.058594,0.66078,0.91406,0.36755
19.76,-0.21027,-0.025391,0.67647,0.89453,0.39003
19.768,-0.20538,-0.054688,0.62549,0.90039,0.4174
19.776,-0.20293,-0.080078,0.60588,0.91406,0.44868
19.784,-0.19804,-0.083984,0.60588,0.92383,0.48094
19.792,-0.19315,-0.074219,0.61961,0.93555,0.51124
19.8,-0.18826,-0.10352,0.61569,0.95508,0.54154
19.808,-0.18582,-0.099609,0.61569,0.95898,0.56989
19.816,-0.18093,-0.10352,0.61961,0.95898,0.59531
19.824,-0.17604,-0.10938,0.61961,0.95898,0.61779
19.832,-0.17115,-0.09375,0.62941,0.94922,0.63734
19.84,-0.1687,-0.099609,0.62549,0.95508,0.65298
19.848,-0.16626,-0.089844,0.62941,0.94531,0.66373
19.856,-0.16381,-0.09375,0.62941,0.94922,0.67058
19.864,-0.16137,-0.13867,0.62941,0.97461,0.67546
19.872,-0.15892,-0.17383,0.66471,0.99023,0.6784
19.88,-0.15648,0.060547,0.67647,0.79883,0.6784
19.888,-0.15403,0.48047,0.3,0.50977,0.67546
19.896,-0.15403,0.94922,-0.17255,0.20508,0.67058
19.904,-0.15159,1.0645,-0.35294,0.16016,0.66276
19.912,-0.15159,0.29492,0.21373,0.70898,0.65396
19.92,-0.14914,0.03125,0.5902,0.88867,0.64418
19.928,-0.14914,-0.029297,0.7,0.92383,0.63245
19.936,-0.1467,-0.070312,0.72549,0.94531,0.61877
19.944,-0.1467,-0.10938,0.74118,0.96875,0.60508
19.952,-0.1467,-0.11914,0.7451,0.98047,0.59238
19.96,-0.1467,-0.125,0.7451,0.98047,0.57771
19.968,-0.1467,-0.125,0.75098,0.97461,0.56305
19.976,-0.1467,-0.12891,0.75098,0.98438,0.54936
19.984,-0.1467,-0.125,0.76078,0.98438,0.53666
19.992,-0.1467,-0.125,0.7549,0.98438,0.52493
20,-0.1467,-0.11914,0.76078,0.97461,0.51417
20.008,-0.1467,-0.11914,0.7549,0.96875,0.50538
20.016,-0.1467,-0.11914,0.7549,0.96875,0.49756
20.024,-0.1467,-0.11914,0.7549,0.96875,0.49071
20.032,-0.1467,-0.10938,0.76078,0.95898,0.48289
20.04,-0.14914,-0.09375,0.76078,0.95898,0.47507
20.048,-0.14914,-0.09375,0.76667,0.95898,0.46823
20.056,-0.15159,-0.083984,0.76667,0.95508,0.46237
20.064,-0.15159,-0.064453,0.77059,0.93945,0.4565
20.072,-0.15403,-0.048828,0.77647,0.92969,0.45064
20.08,-0.15648,-0.029297,0.78039,0.92383,0.44673
20.088,-0.15892,0,0.78627,0.91016,0.44282
20.096,-0.16137,0.03125,0.7902,0.88867,0.43891
20.104,-0.16137,0.054688,0.7902,0.875,0.435
20.112,-0.16381,0.085938,0.7902,0.84961,0.43011
20.12,-0.16626,0.11133,0.78627,0.83984,0.42424
20.128,-0.1687,0.12109,0.77647,0.83008,0.41838
20.136,-0.1687,0.13086,0.77059,0.82422,0.41349
20.144,-0.17115,0.14062,0.77059,0.81445,0.40958
20.152,-0.17359,0.12109,0.76667,0.82422,0.40567
20.16,-0.17604,0.10547,0.7549,0.83008,0.40176
20.168,-0.17604,0.076172,0.7451,0.83984,0.39687
20.176,-0.17848,0.03125,0.72549,0.86523,0.39198
20.184,-0.18093,-0.0097656,0.7098,0.88867,0.3871
20.192,-0.18337,-0.054688,0.7,0.91406,0.38221
20.2,-0.18582,-0.083984,0.67647,0.93555,0.37732
