Time [s], RESP, II, V, AVR, PLETH
0,0.1301,1.5039,1.5039,-0.49805,0.50049
0.008,0.11262,1.5039,1.5039,-0.49805,0.49756
0.016,0.093204,1.5039,1.4529,-0.44336,0.49462
0.024,0.069903,1.5039,1.3529,-0.35938,0.49169
0.032,0.046602,1.4235,1.2529,-0.27344,0.48778
0.04,0.021359,1.3078,1.1569,-0.20508,0.48485
0.048,-0.0038835,1.1863,1.0824,-0.12891,0.48289
0.056,-0.025243,1.0961,1.0275,-0.074219,0.47996
0.064,-0.046602,1.0471,0.99216,-0.044922,0.47801
0.072,-0.066019,1.002,0.96667,-0.013672,0.47507
0.08,-0.083495,0.96667,0.96078,0.0097656,0.47214
0.088,-0.095146,0.94706,0.95098,0.019531,0.46921
0.096,-0.1068,0.93725,0.95098,0.019531,0.46628
0.104,-0.11456,0.92157,0.95098,0.041016,0.46334
0.112,-0.12039,0.90588,0.95098,0.050781,0.46041
0.12,-0.12233,0.92157,0.96078,0.03125,0.45748
0.128,-0.12233,0.91176,0.94706,0.041016,0.45455
0.136,-0.11845,0.93137,0.95686,0.03125,0.45161
0.144,-0.11262,0.92549,0.95098,0.035156,0.44966
0.152,-0.10097,0.91569,0.95686,0.044922,0.44868
0.16,-0.091262,0.92549,0.96078,0.035156,0.44575
0.168,-0.073786,0.92157,0.95686,0.044922,0.43206
0.176,-0.056311,0.93725,0.95098,0.03125,0.41251
0.184,-0.03301,0.92549,0.95098,0.041016,0.40078
0.192,-0.0097087,0.92157,0.95098,0.03125,0.39198
0.2,0.021359,0.92549,0.94706,0.041016,0.38612
0.208,0.050485,0.93725,0.94706,0.019531,0.38025
0.216,0.085437,0.92549,0.95098,0.03125,0.37537
0.224,0.12233,0.92549,0.94118,0.03125,0.37146
0.232,0.16311,0.92157,0.94118,0.035156,0.36755
0.24,0.20583,0.92549,0.94706,0.019531,0.36364
0.248,0.25049,0.92157,0.93725,0.03125,0.35973
0.256,0.29515,0.92549,0.93725,0.025391,0.35777
0.264,0.34175,0.92549,0.94118,0.025391,0.35484
0.272,0.39029,0.92549,0.93137,0.019531,0.35191
0.28,0.43689,0.92157,0.93137,0.03125,0.35093
0.288,0.48544,0.93137,0.94118,0.019531,0.34995
0.296,0.53398,0.93725,0.95686,0.025391,0.34995
0.304,0.58252,0.96078,0.98627,0.015625,0.35093
0.312,0.62913,0.97647,1.002,0.0097656,0.35191
0.32,0.67573,0.95686,0.99608,0.025391,0.35484
0.328,0.71845,0.96667,0.97059,0.015625,0.35875
0.336,0.76311,0.95098,0.93137,0.019531,0.36364
0.344,0.80388,0.95686,0.90588,0,0.3695
0.352,0.8466,0.95098,0.90588,0.0058594,0.37439
0.36,0.88544,0.93137,0.90588,0.015625,0.38025
0.368,0.92427,0.91569,0.90588,0.025391,0.3871
0.376,0.96311,0.90196,0.91176,0.044922,0.39492
0.384,1,0.89608,0.90588,0.044922,0.40274
0.392,1.035,0.90196,0.91176,0.041016,0.41153
0.4,1.0699,0.8902,0.91176,0.044922,0.41935
0.408,1.101,0.90196,0.91176,0.041016,0.42815
0.416,1.134,0.91569,0.90588,0.025391,0.43597
0.424,1.1631,0.98627,0.88627,-0.035156,0.44477
0.432,1.1903,1.0373,0.72549,-0.064453,0.45259
0.44,1.2155,0.38431,0.26863,0.38086,0.46139
0.448,1.2388,-0.50196,-0.37843,0.95508,0.47019
0.456,1.2602,-0.50196,-0.50196,1.4883,0.47801
0.464,1.2816,-0.50196,-0.50196,1.5,0.48387
0.472,1.299,-0.50196,-0.50196,1.4883,0.48876
0.48,1.3165,-0.50196,-0.36667,1.2051,0.49365
0.488,1.332,-0.50196,0.052941,0.91406,0.49756
0.496,1.3476,-0.28235,0.37059,0.67578,0.50049
0.504,1.3592,0.11373,0.66078,0.42969,0.50244
0.512,1.3728,0.52549,0.91176,0.17969,0.50147
0.52,1.3825,0.82549,1.1118,-0.0039062,0.50049
0.528,1.3942,1.0059,1.2275,-0.11914,0.49951
0.536,1.4039,1.1961,1.3569,-0.17969,0.49756
0.544,1.4136,1.3216,1.4176,-0.22461,0.49462
0.552,1.4233,1.3529,1.4235,-0.24023,0.49169
0.56,1.433,1.3725,1.4235,-0.25,0.48974
0.568,1.4427,1.3784,1.4235,-0.25,0.48778
0.576,1.4505,1.3784,1.4118,-0.25977,0.48485
0.584,1.4602,1.3882,1.402,-0.25391,0.48289
0.592,1.4699,1.3922,1.398,-0.25977,0.47996
0.6,1.4757,1.3922,1.398,-0.25977,0.47801
0.608,1.4835,1.398,1.3922,-0.26953,0.47507
0.616,1.4893,1.4078,1.3922,-0.27344,0.47312
0.624,1.4932,1.4235,1.3922,-0.28516,0.47019
0.632,1.4932,1.4333,1.398,-0.29492,0.46823
0.64,1.4932,1.4569,1.398,-0.30859,0.46725
0.648,1.4932,1.4882,1.398,-0.33398,0.4653
0.656,1.4932,1.5039,1.4118,-0.35938,0.46334
0.664,1.4932,1.5039,1.4333,-0.38867,0.46237
0.672,1.4932,1.5039,1.4529,-0.44336,0.46139
0.68,1.4932,1.5039,1.4882,-0.49805,0.46041
0.688,1.4932,1.5039,1.5039,-0.49805,0.45846
0.696,1.4893,1.5039,1.5039,-0.49805,0.4565
0.704,1.4854,1.5039,1.5039,-0.49805,0.45357
0.712,1.4699,1.5039,1.5039,-0.49805,0.44966
0.72,1.4563,1.5039,1.5039,-0.49805,0.44673
0.728,1.435,1.5039,1.5039,-0.49805,0.44379
0.736,1.4155,1.5039,1.4882,-0.49805,0.43988
0.744,1.3883,1.5039,1.3882,-0.44922,0.43793
0.752,1.3612,1.5039,1.2882,-0.35352,0.435
0.76,1.3282,1.3725,1.1824,-0.27344,0.43304
0.768,1.2971,1.2569,1.0961,-0.19922,0.43304
0.776,1.2641,1.1667,1.0314,-0.14453,0.43206
0.784,1.2291,1.0922,0.99608,-0.09375,0.43206
0.792,1.1922,1.0373,0.96667,-0.064453,0.43206
0.8,1.1553,1.002,0.95098,-0.039062,0.43109
0.808,1.1146,0.98235,0.94706,-0.029297,0.43011
0.816,1.0757,0.96078,0.94118,-0.013672,0.42913
0.824,1.035,0.95686,0.93725,-0.013672,0.42815
0.832,0.99417,0.95098,0.93725,0,0.42815
0.84,0.9534,0.95098,0.93725,0,0.42815
0.848,0.91262,0.95098,0.93725,0,0.42815
0.856,0.87184,0.95098,0.93725,0,0.42815
0.864,0.83301,0.95098,0.94118,0,0.42815
0.872,0.79417,0.95098,0.94706,0,0.42815
0.88,0.75534,0.95098,0.94118,0,0.42815
0.888,0.72039,0.96078,0.94118,-0.0097656,0.42815
0.896,0.6835,0.95686,0.94118,-0.0039062,0.4262
0.904,0.65243,0.96078,0.94706,-0.0097656,0.42522
0.912,0.61942,0.96078,0.94706,-0.0039062,0.42424
0.92,0.59223,0.96078,0.94706,-0.0097656,0.42326
0.928,0.56699,0.96078,0.94118,-0.0039062,0.42131
0.936,0.54369,0.95686,0.94706,-0.0097656,0.42033
0.944,0.52039,0.96078,0.93725,-0.0039062,0.41935
0.952,0.50291,0.95686,0.94118,-0.0039062,0.4174
0.96,0.48544,0.95686,0.93725,-0.0039062,0.41642
0.968,0.4699,0.95686,0.94118,0,0.41544
0.976,0.45631,0.95686,0.93725,-0.0039062,0.41544
0.984,0.44466,0.95098,0.94118,0,0.41544
0.992,0.43301,0.95098,0.93137,-0.0039062,0.41544
1,0.42136,0.95098,0.93725,-0.0039062,0.41544
1.008,0.41165,0.94706,0.93725,0,0.41544
1.016,0.40194,0.94706,0.94118,-0.0039062,0.41544
1.024,0.39223,0.95098,0.93725,-0.0039062,0.41642
1.032,0.38252,0.95098,0.94118,-0.0039062,0.41838
1.04,0.37282,0.96078,0.94706,-0.0039062,0.42229
1.048,0.36311,0.97059,0.97059,-0.0097656,0.4262
1.056,0.3534,0.99216,0.99608,-0.013672,0.43206
1.064,0.34369,1.002,1.0059,-0.019531,0.43988
1.072,0.33398,0.99608,1.0118,-0.0097656,0.44673
1.08,0.32621,0.98627,0.98235,-0.019531,0.45552
1.088,0.3165,0.97647,0.93725,-0.013672,0.46237
1.096,0.30874,0.97647,0.91176,-0.025391,0.46921
1.104,0.29903,0.96667,0.92157,-0.013672,0.47605
1.112,0.29126,0.94706,0.92157,0,0.48485
1.12,0.2835,0.92549,0.92157,0.019531,0.49462
1.128,0.27573,0.90588,0.92157,0.03125,0.5044
1.136,0.2699,0.90588,0.92549,0.03125,0.51417
1.144,0.26408,0.90588,0.92549,0.03125,0.52493
1.152,0.25825,0.90588,0.92549,0.03125,0.53568
1.16,0.25243,0.90588,0.92549,0.03125,0.54643
1.168,0.24854,0.93137,0.92549,0.0058594,0.55523
1.176,0.24272,1.0118,0.8902,-0.054688,0.565
1.184,0.23883,1.0314,0.61569,0.041016,0.5738
1.192,0.23301,0.13922,0.04902,0.50977,0.58065
1.2,0.22913,-0.50196,-0.50196,1.0391,0.58651
1.208,0.2233,-0.50196,-0.50196,1.4746,0.59238
1.216,0.21942,-0.50196,-0.50196,1.5,0.59726
1.224,0.21359,-0.50196,-0.50196,1.3086,0.60117
1.232,0.20777,-0.50196,-0.28824,1.0391,0.60313
1.24,0.20388,-0.49804,0.068627,0.7793,0.60411
1.248,0.19806,-0.16667,0.4098,0.57422,0.60411
1.256,0.19223,0.22941,0.7098,0.33008,0.60313
1.264,0.18641,0.61961,0.97647,0.099609,0.60117
1.272,0.18252,0.86078,1.151,-0.054688,0.59922
1.28,0.1767,1.0412,1.2725,-0.13867,0.59531
1.288,0.17087,1.2275,1.4235,-0.16992,0.59238
1.296,0.16699,1.302,1.4627,-0.19336,0.58847
1.304,0.16311,1.3275,1.4686,-0.20898,0.58358
1.312,0.15922,1.3373,1.4627,-0.21484,0.57967
1.32,0.15728,1.3431,1.4529,-0.20898,0.57478
1.328,0.15534,1.3529,1.4471,-0.21484,0.56891
1.336,0.15534,1.3529,1.4471,-0.21875,0.56207
1.344,0.1534,1.3569,1.4373,-0.22461,0.55523
1.352,0.15534,1.3627,1.4333,-0.22852,0.54839
1.36,0.15534,1.3667,1.4275,-0.23438,0.54154
1.368,0.1534,1.3725,1.4235,-0.23438,0.5347
1.376,0.1534,1.3824,1.4235,-0.25,0.52884
1.384,0.15146,1.398,1.4333,-0.25977,0.52395
1.392,0.14951,1.4275,1.4373,-0.28516,0.51808
1.4,0.14757,1.4569,1.4471,-0.29883,0.5132
1.408,0.14563,1.502,1.4569,-0.33398,0.50831
1.416,0.14369,1.5039,1.4824,-0.36914,0.50342
1.424,0.14175,1.5039,1.5039,-0.41992,0.49853
1.432,0.13592,1.5039,1.5039,-0.46484,0.49365
1.44,0.13204,1.5039,1.5039,-0.49805,0.48876
1.448,0.12621,1.5039,1.5039,-0.49805,0.48387
1.456,0.12039,1.5039,1.5039,-0.49805,0.47996
1.464,0.10874,1.5039,1.5039,-0.49805,0.47507
1.472,0.099029,1.5039,1.5039,-0.49805,0.47116
1.48,0.083495,1.5039,1.5039,-0.49805,0.46725
1.488,0.067961,1.5039,1.502,-0.48828,0.46334
1.496,0.048544,1.5039,1.398,-0.4082,0.45846
1.504,0.029126,1.4686,1.2824,-0.31445,0.45455
1.512,0.007767,1.3373,1.1824,-0.24023,0.45064
1.52,-0.01165,1.2275,1.0961,-0.17383,0.4477
1.528,-0.03301,1.1412,1.0314,-0.125,0.44379
1.536,-0.052427,1.0765,0.99216,-0.083984,0.44086
1.544,-0.071845,1.0275,0.95098,-0.054688,0.43695
1.552,-0.091262,0.99608,0.94118,-0.035156,0.43304
1.56,-0.11068,0.97059,0.93137,-0.019531,0.42913
1.568,-0.1301,0.95686,0.93725,-0.0039062,0.42522
1.576,-0.14757,0.95098,0.93725,0,0.42131
1.584,-0.16505,0.95686,0.94118,0,0.4174
1.592,-0.18252,0.95686,0.93725,0,0.41544
1.6,-0.19806,0.95098,0.94706,0,0.41251
1.608,-0.21359,0.95098,0.94118,0,0.41056
1.616,-0.22718,0.95098,0.94706,0,0.4086
1.624,-0.24078,0.95098,0.95098,0,0.40762
1.632,-0.25243,0.95098,0.95686,0,0.40567
1.64,-0.26019,0.95098,0.96667,0,0.40371
1.648,-0.2699,0.95686,0.96667,0,0.40176
1.656,-0.27573,0.96078,0.96078,0,0.3998
1.664,-0.28155,0.96078,0.96078,-0.0039062,0.39687
1.672,-0.2835,0.96078,0.95686,-0.0039062,0.39394
1.68,-0.28544,0.96078,0.95098,-0.0039062,0.39101
1.688,-0.2835,0.96078,0.95686,0,0.38807
1.696,-0.28155,0.95686,0.95686,-0.0039062,0.38514
1.704,-0.27573,0.95098,0.95098,0,0.38221
1.712,-0.2699,0.95686,0.95098,0,0.37928
1.72,-0.26214,0.95686,0.95098,-0.0039062,0.37732
1.728,-0.25437,0.95686,0.95098,-0.0097656,0.37634
1.736,-0.24466,0.95098,0.94706,-0.0097656,0.37439
1.744,-0.23301,0.96078,0.94706,-0.013672,0.37341
1.752,-0.2233,0.95686,0.94706,-0.0097656,0.37439
1.76,-0.21359,0.95686,0.95098,-0.0097656,0.37537
1.768,-0.20388,0.96078,0.95098,-0.013672,0.37732
1.776,-0.19417,0.97059,0.95686,-0.013672,0.38025
1.784,-0.18447,0.97647,0.98235,-0.0097656,0.38514
1.792,-0.17476,1.002,1.0059,-0.025391,0.39003
1.8,-0.16699,1.0059,1.0216,-0.025391,0.39687
1.808,-0.15728,1.002,1.002,-0.019531,0.40371
1.816,-0.14951,0.99216,0.98235,-0.025391,0.41153
1.824,-0.13981,0.97647,0.93725,-0.019531,0.41838
1.832,-0.13204,0.98235,0.92157,-0.025391,0.42522
1.84,-0.12233,0.97059,0.92549,-0.013672,0.43304
1.848,-0.11456,0.94706,0.91569,0.0058594,0.44282
1.856,-0.10485,0.92549,0.91569,0.015625,0.45357
1.864,-0.097087,0.91176,0.92157,0.025391,0.4653
1.872,-0.08932,0.91176,0.92157,0.03125,0.47605
1.88,-0.081553,0.91176,0.91569,0.025391,0.4868
1.888,-0.071845,0.91176,0.92157,0.025391,0.49756
1.896,-0.064078,0.91569,0.91569,0.025391,0.50929
1.904,-0.056311,0.94706,0.90588,0,0.52102
1.912,-0.048544,1.0314,0.87059,-0.064453,0.53177
1.92,-0.042718,0.83529,0.5451,0.064453,0.54252
1.928,-0.034951,0.078431,-0.027451,0.55078,0.55034
1.936,-0.029126,-0.50196,-0.50196,1.084,0.55718
1.944,-0.023301,-0.50196,-0.50196,1.5,0.56403
1.952,-0.017476,-0.50196,-0.50196,1.5,0.57087
1.96,-0.013592,-0.50196,-0.50196,1.2734,0.57674
1.968,-0.007767,-0.50196,-0.25686,1.0098,0.58065
1.976,-0.0038835,-0.44706,0.094118,0.74414,0.58358
1.984,0,-0.11765,0.43529,0.53906,0.58651
1.992,0.0038835,0.27451,0.74118,0.30469,0.58749
2,0.007767,0.66078,1.002,0.076172,0.58749
2.008,0.01165,0.88627,1.1667,-0.074219,0.58553
2.016,0.017476,1.0569,1.2922,-0.14844,0.5826
2.024,0.021359,1.2471,1.4275,-0.18359,0.57967
2.032,0.025243,1.3118,1.4686,-0.20508,0.57576
2.04,0.031068,1.3275,1.4686,-0.21484,0.57087
2.048,0.036893,1.3373,1.4686,-0.21484,0.56696
2.056,0.042718,1.3471,1.4627,-0.21875,0.56305
2.064,0.048544,1.3529,1.4529,-0.22461,0.55914
2.072,0.054369,1.3529,1.4431,-0.22461,0.55425
2.08,0.062136,1.3529,1.4373,-0.21875,0.55034
2.088,0.067961,1.3627,1.4373,-0.22852,0.54448
2.096,0.073786,1.3667,1.4373,-0.23438,0.53861
2.104,0.07767,1.3824,1.4275,-0.24414,0.53372
2.112,0.083495,1.3922,1.4275,-0.25,0.52884
2.12,0.08932,1.4078,1.4373,-0.26367,0.52493
2.128,0.095146,1.4275,1.4431,-0.2793,0.52102
2.136,0.099029,1.4627,1.4471,-0.30469,0.51711
2.144,0.10485,1.5039,1.4627,-0.33398,0.5132
2.152,0.10874,1.5039,1.4784,-0.375,0.50831
2.16,0.11456,1.5039,1.5039,-0.42383,0.50342
2.168,0.1165,1.5039,1.5039,-0.47461,0.49756
2.176,0.11845,1.5039,1.5039,-0.49805,0.49071
2.184,0.11845,1.5039,1.5039,-0.49805,0.48583
2.192,0.11845,1.5039,1.5039,-0.49805,0.48094
2.2,0.11262,1.5039,1.5039,-0.49805,0.47605
2.208,0.1068,1.5039,1.5039,-0.49805,0.47116
2.216,0.097087,1.5039,1.5039,-0.49805,0.46725
2.224,0.085437,1.5039,1.4824,-0.47852,0.46334
2.232,0.069903,1.5039,1.3824,-0.38867,0.45943
2.24,0.056311,1.4471,1.2667,-0.30469,0.45552
2.248,0.036893,1.3176,1.1667,-0.22461,0.45943
2.256,0.019417,1.2118,1.0824,-0.16016,0.46628
2.264,0,1.1216,1.0275,-0.10938,0.46823
2.272,-0.019417,1.0569,0.98235,-0.070312,0.46725
2.28,-0.038835,1.0216,0.95686,-0.048828,0.4653
2.288,-0.056311,0.98235,0.94706,-0.025391,0.46237
2.296,-0.075728,0.96667,0.94118,-0.013672,0.45943
2.304,-0.093204,0.95686,0.93725,-0.0039062,0.45552
2.312,-0.11068,0.95098,0.94706,0.0058594,0.45259
2.32,-0.12816,0.95098,0.94118,0,0.44966
2.328,-0.14369,0.95098,0.93725,0,0.44673
2.336,-0.15922,0.94118,0.94706,0.015625,0.44477
2.344,-0.17476,0.95098,0.94118,0.0058594,0.44282
2.352,-0.18835,0.94706,0.94706,0.0097656,0.44184
2.36,-0.2,0.94118,0.94118,0.015625,0.44086
2.368,-0.21165,0.95098,0.95098,0.0058594,0.43891
2.376,-0.21942,0.94118,0.94706,0.019531,0.43695
2.384,-0.22718,0.94706,0.95098,0.015625,0.43597
2.392,-0.23301,0.95098,0.95098,0.0058594,0.43402
2.4,-0.23689,0.95098,0.95098,0.015625,0.43206
2.408,-0.23883,0.93725,0.94118,0.025391,0.43011
2.416,-0.23883,0.94706,0.95098,0.015625,0.42913
2.424,-0.23883,0.92549,0.94706,0.025391,0.42717
2.432,-0.23883,0.93725,0.95098,0.019531,0.42522
2.44,-0.23883,0.92549,0.94706,0.03125,0.42326
2.448,-0.23689,0.94118,0.95098,0.019531,0.42131
2.456,-0.23495,0.92157,0.94118,0.015625,0.42033
2.464,-0.23107,0.91569,0.93725,0.041016,0.41935
2.472,-0.22524,0.92157,0.94706,0.03125,0.4174
2.48,-0.21748,0.93137,0.94706,0.025391,0.41642
2.488,-0.20971,0.90588,0.93725,0.044922,0.41544
2.496,-0.20194,0.93725,0.94706,0.019531,0.41544
2.504,-0.19029,0.92157,0.95098,0.035156,0.41642
2.512,-0.17864,0.94118,0.96078,0.041016,0.41838
2.52,-0.16505,0.95098,0.98235,0.019531,0.42033
2.528,-0.15146,0.95686,1.002,0.025391,0.42424
2.536,-0.13398,0.95098,1.0157,0.041016,0.42913
2.544,-0.11456,0.97647,1.002,0.015625,0.435
2.552,-0.093204,0.93725,0.96078,0.035156,0.44086
2.56,-0.071845,0.93137,0.91176,0.019531,0.44673
2.568,-0.046602,0.95098,0.91176,0.0058594,0.45259
2.576,-0.021359,0.94706,0.91569,0.015625,0.45846
2.584,0.007767,0.90588,0.91176,0.044922,0.4653
2.592,0.038835,0.90196,0.91569,0.044922,0.47312
2.6,0.071845,0.88627,0.92549,0.060547,0.48192
2.608,0.1068,0.89608,0.92157,0.044922,0.49071
2.616,0.14369,0.87647,0.92157,0.064453,0.49951
2.624,0.18252,0.90196,0.92549,0.044922,0.50733
2.632,0.2233,0.89608,0.91569,0.050781,0.51417
2.64,0.26408,0.93725,0.90588,0.0097656,0.52004
2.648,0.3068,1.0412,0.82157,-0.044922,0.5259
2.656,0.34951,0.6902,0.46471,0.20508,0.53177
2.664,0.39223,-0.18235,-0.027451,0.76953,0.53568
2.672,0.43689,-0.50196,-0.50196,1.3633,0.54057
2.68,0.48155,-0.50196,-0.50196,1.5,0.54448
2.688,0.52427,-0.50196,-0.50196,1.5,0.54936
2.696,0.56893,-0.50196,-0.50196,1.375,0.5523
2.704,0.61165,-0.50196,-0.011765,1.0586,0.55425
2.712,0.65437,-0.42745,0.29412,0.78516,0.55523
2.72,0.69709,-0.021569,0.58039,0.54492,0.55523
2.728,0.73786,0.37451,0.82549,0.2793,0.55425
2.736,0.78058,0.73137,1.0412,0.054688,0.5523
2.744,0.81942,0.93137,1.1569,-0.083984,0.55132
2.752,0.86019,1.1118,1.2765,-0.1543,0.54839
2.76,0.90097,1.2922,1.3784,-0.20898,0.54643
2.768,0.93981,1.3431,1.3922,-0.22461,0.54252
2.776,0.97864,1.3569,1.3922,-0.23438,0.53861
2.784,1.0175,1.3667,1.3882,-0.24023,0.5347
2.792,1.0544,1.3784,1.3824,-0.25,0.52981
2.8,1.0913,1.3784,1.3824,-0.25,0.52395
2.808,1.1262,1.3784,1.3725,-0.24414,0.51906
2.816,1.1612,1.3784,1.3667,-0.25391,0.51417
2.824,1.1942,1.3784,1.3569,-0.25,0.50831
2.832,1.2252,1.3922,1.3627,-0.25977,0.50244
2.84,1.2544,1.398,1.3569,-0.26953,0.49658
2.848,1.2816,1.4176,1.3569,-0.28516,0.49071
2.856,1.3068,1.4431,1.3569,-0.29883,0.48387
2.864,1.3301,1.4686,1.3569,-0.31836,0.47898
2.872,1.3515,1.5039,1.3667,-0.34961,0.47312
2.88,1.3709,1.5039,1.3784,-0.38477,0.46921
2.888,1.3864,1.5039,1.3922,-0.42969,0.46432
2.896,1.4019,1.5039,1.4176,-0.47852,0.45943
2.904,1.4097,1.5039,1.4471,-0.49805,0.45455
2.912,1.4175,1.5039,1.4784,-0.49805,0.44966
2.92,1.4194,1.5039,1.5039,-0.49805,0.44477
2.928,1.4194,1.5039,1.5039,-0.49805,0.44086
2.936,1.4136,1.5039,1.5039,-0.49805,0.43695
2.944,1.4078,1.5039,1.5039,-0.49805,0.43304
2.952,1.3961,1.5039,1.4824,-0.49805,0.42815
2.96,1.3845,1.5039,1.4078,-0.49805,0.42424
2.968,1.3709,1.5039,1.3078,-0.4043,0.42033
2.976,1.3573,1.4373,1.202,-0.30859,0.41642
2.984,1.3437,1.3118,1.1216,-0.22852,0.41349
2.992,1.3282,1.2078,1.0471,-0.16992,0.41056
3,1.3126,1.1314,1.002,-0.125,0.4086
3.008,1.2971,1.0667,0.97059,-0.083984,0.40567
3.016,1.2835,1.0275,0.95686,-0.054688,0.40371
3.024,1.268,1.002,0.95098,-0.044922,0.40176
3.032,1.2524,0.97647,0.94706,-0.025391,0.3998
3.04,1.2388,0.97647,0.94118,-0.019531,0.39883
3.048,1.2252,0.96667,0.93725,-0.013672,0.39687
3.056,1.2117,0.96667,0.95098,-0.019531,0.39492
3.064,1.1981,0.96667,0.95098,-0.013672,0.39394
3.072,1.1845,0.97059,0.94706,-0.019531,0.39296
3.08,1.1709,0.96667,0.95098,-0.013672,0.39296
3.088,1.1573,0.97059,0.95098,-0.019531,0.39198
3.096,1.1456,0.97059,0.95098,-0.019531,0.39198
3.104,1.134,0.97647,0.95098,-0.025391,0.39198
3.112,1.1223,0.97647,0.95098,-0.025391,0.39101
3.12,1.1107,0.97647,0.95686,-0.019531,0.39101
3.128,1.099,0.97647,0.95098,-0.019531,0.39101
3.136,1.0874,0.97647,0.95098,-0.025391,0.39101
3.144,1.0757,0.97059,0.94706,-0.019531,0.39003
3.152,1.0641,0.97059,0.95098,-0.019531,0.38807
3.16,1.0544,0.97059,0.94118,-0.019531,0.3871
3.168,1.0447,0.96667,0.94706,-0.019531,0.3871
3.176,1.035,0.96078,0.94118,-0.019531,0.3871
3.184,1.0252,0.95686,0.94706,-0.013672,0.3871
3.192,1.0175,0.96078,0.94118,-0.013672,0.3871
3.2,1.0078,0.96078,0.94706,-0.0097656,0.38807
3.208,1,0.96078,0.94118,-0.013672,0.39003
3.216,0.99029,0.95686,0.94706,-0.0039062,0.39101
3.224,0.98058,0.95686,0.94118,-0.0039062,0.39394
3.232,0.96893,0.95098,0.95098,0,0.39687
3.24,0.95728,0.95686,0.94706,-0.0039062,0.40176
3.248,0.94369,0.95686,0.95098,-0.0097656,0.40567
3.256,0.9301,0.95686,0.95098,-0.0039062,0.41153
3.264,0.9165,0.96667,0.96078,-0.0097656,0.41642
3.272,0.90097,0.97647,0.96667,-0.013672,0.42326
3.28,0.88738,0.99216,0.99608,-0.013672,0.43206
3.288,0.87184,1.0059,1.0118,-0.019531,0.44086
3.296,0.85825,1.002,1.0157,-0.013672,0.44966
3.304,0.84466,1.002,0.99608,-0.019531,0.45846
3.312,0.83107,0.98627,0.95686,-0.019531,0.46921
3.32,0.81942,0.98235,0.92157,-0.025391,0.48094
3.328,0.80777,0.98627,0.92157,-0.029297,0.49267
3.336,0.79612,0.95686,0.91569,-0.0039062,0.5044
3.344,0.78447,0.93725,0.91569,0,0.51613
3.352,0.77282,0.92549,0.92549,0.015625,0.52786
3.36,0.76117,0.91569,0.92157,0.019531,0.54057
3.368,0.74951,0.91176,0.92549,0.025391,0.55132
3.376,0.73786,0.91176,0.92549,0.019531,0.56207
3.384,0.72621,0.91569,0.93725,0.019531,0.57185
3.392,0.71456,0.93137,0.92157,0.0097656,0.58065
3.4,0.70291,0.99608,0.91176,-0.039062,0.58847
3.408,0.69126,1.0373,0.72549,-0.070312,0.59433
3.416,0.67767,0.3549,0.22353,0.37109,0.60117
3.424,0.66602,-0.49216,-0.50196,0.89453,0.60704
3.432,0.65243,-0.50196,-0.50196,1.3887,0.61193
3.44,0.64078,-0.50196,-0.50196,1.5,0.61584
3.448,0.62718,-0.50196,-0.50196,1.3848,0.61681
3.456,0.61359,-0.50196,-0.41765,1.1094,0.61681
3.464,0.6,-0.50196,0.0039216,0.84375,0.61584
3.472,0.58641,-0.26275,0.32353,0.62891,0.6129
3.48,0.57087,0.12353,0.64118,0.40039,0.60997
3.488,0.55728,0.52549,0.91176,0.15039,0.60704
3.496,0.54369,0.81569,1.1216,-0.013672,0.60411
3.504,0.5301,0.99216,1.2431,-0.11914,0.6002
3.512,0.5165,1.1863,1.3882,-0.16406,0.59629
3.52,0.50291,1.302,1.4569,-0.19336,0.59335
3.528,0.48932,1.3275,1.4686,-0.20898,0.58944
3.536,0.47767,1.3431,1.4725,-0.21484,0.58553
3.544,0.46602,1.3529,1.4627,-0.21875,0.5826
3.552,0.45631,1.3529,1.4569,-0.21484,0.57771
3.56,0.4466,1.3569,1.4471,-0.22461,0.57283
3.568,0.43689,1.3627,1.4431,-0.22852,0.56696
3.576,0.42913,1.3667,1.4333,-0.23438,0.56109
3.584,0.41942,1.3667,1.4333,-0.23438,0.55621
3.592,0.41165,1.3784,1.4275,-0.24023,0.5523
3.6,0.40388,1.3824,1.4275,-0.25,0.54839
3.608,0.39417,1.398,1.4235,-0.25977,0.54545
3.616,0.38641,1.4176,1.4275,-0.27344,0.54252
3.624,0.37864,1.4529,1.4373,-0.29492,0.53959
3.632,0.37087,1.4922,1.4529,-0.31445,0.53666
3.64,0.36311,1.5039,1.4686,-0.35352,0.53177
3.648,0.35534,1.5039,1.4882,-0.39844,0.52786
3.656,0.34563,1.5039,1.5039,-0.45312,0.52395
3.664,0.33786,1.5039,1.5039,-0.49805,0.51906
3.672,0.32621,1.5039,1.5039,-0.49805,0.51417
3.68,0.31456,1.5039,1.5039,-0.49805,0.50929
3.688,0.30097,1.5039,1.5039,-0.49805,0.50538
3.696,0.28738,1.5039,1.5039,-0.49805,0.50049
3.704,0.26796,1.5039,1.5039,-0.49805,0.49756
3.712,0.24854,1.5039,1.5039,-0.49805,0.49365
3.72,0.22524,1.5039,1.4333,-0.43945,0.49071
3.728,0.20194,1.5039,1.3176,-0.34961,0.48778
3.736,0.1767,1.3882,1.2118,-0.26953,0.48387
3.744,0.15146,1.2667,1.1216,-0.19922,0.48094
3.752,0.12427,1.1725,1.051,-0.14844,0.47703
3.76,0.097087,1.0961,1.002,-0.099609,0.4741
3.768,0.071845,1.0412,0.97059,-0.070312,0.47019
3.776,0.04466,1.0118,0.95098,-0.048828,0.46628
3.784,0.021359,0.98627,0.94706,-0.025391,0.46334
3.792,-0.0038835,0.97059,0.94118,-0.019531,0.45943
3.8,-0.027184,0.96078,0.94118,-0.0039062,0.45552
3.808,-0.050485,0.95686,0.93725,0,0.45259
3.816,-0.071845,0.95098,0.94706,0,0.44966
3.824,-0.093204,0.95098,0.94706,0,0.44673
3.832,-0.11068,0.95098,0.94706,-0.0039062,0.44477
3.84,-0.1301,0.95686,0.94706,-0.0097656,0.44282
3.848,-0.14563,0.95686,0.95098,-0.0039062,0.44086
3.856,-0.16311,0.96078,0.94706,0,0.43891
3.864,-0.17476,0.95686,0.95098,0,0.43695
3.872,-0.18835,0.96078,0.95098,-0.0039062,0.43402
3.88,-0.19612,0.95686,0.95098,0,0.43109
3.888,-0.20583,0.95686,0.95098,0,0.42815
3.896,-0.20971,0.95686,0.95098,0,0.42522
3.904,-0.21553,0.96078,0.94706,0,0.42326
3.912,-0.21748,0.96667,0.95098,0,0.42131
3.92,-0.21748,0.95686,0.94706,-0.0097656,0.41935
3.928,-0.21553,0.96667,0.94118,-0.0039062,0.41838
3.936,-0.21165,0.95686,0.95098,0,0.4174
3.944,-0.20583,0.95686,0.94706,-0.0097656,0.41544
3.952,-0.2,0.95098,0.95098,0,0.41447
3.96,-0.19223,0.95686,0.94118,-0.0097656,0.41251
3.968,-0.18252,0.95686,0.94706,-0.0039062,0.41153
3.976,-0.17476,0.95686,0.93725,-0.0097656,0.41056
3.984,-0.16505,0.95686,0.94118,-0.0039062,0.41153
3.992,-0.15728,0.96078,0.94118,-0.0097656,0.41349
4,-0.14757,0.96667,0.95098,-0.0039062,0.41544
4.008,-0.13981,0.97647,0.97059,-0.0097656,0.41935
4.016,-0.13398,1.002,0.99608,-0.013672,0.42424
4.024,-0.12621,1.0059,1.002,-0.019531,0.42913
4.032,-0.12039,1.002,0.99608,-0.013672,0.43402
4.04,-0.11262,1.0059,0.97059,-0.025391,0.43891
4.048,-0.1068,0.97647,0.93725,-0.019531,0.44477
4.056,-0.099029,0.98627,0.90588,-0.025391,0.45161
4.064,-0.093204,0.96667,0.92157,-0.0097656,0.45943
4.072,-0.087379,0.94706,0.91176,0,0.46823
4.08,-0.081553,0.92549,0.91569,0.015625,0.47801
4.088,-0.073786,0.91176,0.92157,0.019531,0.48778
4.096,-0.067961,0.91176,0.91569,0.025391,0.49756
4.104,-0.062136,0.90588,0.92157,0.025391,0.50635
4.112,-0.056311,0.90588,0.91569,0.03125,0.51515
4.12,-0.050485,0.91176,0.92157,0.025391,0.52493
4.128,-0.042718,0.94118,0.90588,-0.0039062,0.53372
4.136,-0.034951,1.0275,0.87059,-0.064453,0.54057
4.144,-0.029126,0.84118,0.5549,0.064453,0.54741
4.152,-0.023301,0.068627,-0.021569,0.55469,0.55425
4.16,-0.015534,-0.50196,-0.50196,1.084,0.56109
4.168,-0.01165,-0.50196,-0.50196,1.5,0.56794
4.176,-0.0058252,-0.50196,-0.50196,1.5,0.57478
4.184,0,-0.50196,-0.50196,1.2852,0.57967
4.192,0.0038835,-0.50196,-0.25686,1.0098,0.58358
4.2,0.007767,-0.46275,0.098039,0.75391,0.58749
4.208,0.01165,-0.13137,0.42941,0.55078,0.59042
4.216,0.015534,0.26863,0.74118,0.31445,0.59238
4.224,0.019417,0.66078,1.002,0.080078,0.59335
4.232,0.023301,0.88039,1.1725,-0.064453,0.5914
4.24,0.027184,1.0569,1.2824,-0.14453,0.58847
4.248,0.029126,1.2431,1.4333,-0.17383,0.58553
4.256,0.03301,1.3118,1.4569,-0.19922,0.5826
4.264,0.034951,1.3333,1.4686,-0.21484,0.57869
4.272,0.038835,1.3471,1.4569,-0.21484,0.57478
4.28,0.042718,1.3471,1.4529,-0.21875,0.57185
4.288,0.046602,1.3471,1.4471,-0.21875,0.56794
4.296,0.050485,1.3529,1.4373,-0.22461,0.56305
4.304,0.056311,1.3569,1.4373,-0.22461,0.55621
4.312,0.060194,1.3569,1.4275,-0.22852,0.5523
4.32,0.066019,1.3667,1.4235,-0.23438,0.54741
4.328,0.069903,1.3784,1.4235,-0.24023,0.54252
4.336,0.073786,1.3922,1.4275,-0.25,0.53763
4.344,0.07767,1.4118,1.4235,-0.26367,0.53372
4.352,0.083495,1.4333,1.4373,-0.28516,0.52884
4.36,0.085437,1.4686,1.4471,-0.30469,0.52395
4.368,0.08932,1.5039,1.4569,-0.33398,0.52004
4.376,0.093204,1.5039,1.4784,-0.37891,0.51613
4.384,0.097087,1.5039,1.5039,-0.42383,0.51222
4.392,0.099029,1.5039,1.5039,-0.47461,0.50929
4.4,0.10097,1.5039,1.5039,-0.49805,0.50538
4.408,0.099029,1.5039,1.5039,-0.49805,0.50147
4.416,0.097087,1.5039,1.5039,-0.49805,0.49756
4.424,0.08932,1.5039,1.5039,-0.49805,0.49365
4.432,0.083495,1.5039,1.5039,-0.49805,0.49071
4.44,0.069903,1.5039,1.5039,-0.49805,0.4868
4.448,0.058252,1.5039,1.4824,-0.47852,0.48387
4.456,0.040777,1.5039,1.3784,-0.39453,0.48192
4.464,0.025243,1.4471,1.2667,-0.30469,0.47801
4.472,0.0058252,1.3176,1.1667,-0.22852,0.47507
4.48,-0.01165,1.2216,1.0824,-0.16992,0.47214
4.488,-0.031068,1.1373,1.0216,-0.125,0.46823
4.496,-0.048544,1.0725,0.97647,-0.080078,0.4653
4.504,-0.067961,1.0275,0.95098,-0.054688,0.46237
4.512,-0.085437,0.99608,0.94706,-0.029297,0.45846
4.52,-0.10291,0.97647,0.93725,-0.013672,0.45552
4.528,-0.12039,0.96078,0.93725,0,0.45161
4.536,-0.13592,0.94706,0.92549,0.015625,0.44868
4.544,-0.15146,0.95098,0.93725,0,0.44673
4.552,-0.16505,0.94706,0.94118,0,0.44575
4.56,-0.17864,0.95098,0.94118,0,0.44379
4.568,-0.19223,0.94706,0.93725,0.0097656,0.44282
4.576,-0.20388,0.95686,0.94706,-0.0039062,0.44086
4.584,-0.21553,0.96078,0.95098,0,0.43988
4.592,-0.22524,0.94706,0.94706,0.015625,0.43793
4.6,-0.23301,0.95686,0.95098,0,0.43597
4.608,-0.24078,0.95098,0.95098,0.0097656,0.435
4.616,-0.2466,0.96078,0.95098,0,0.43304
4.624,-0.25243,0.96667,0.95098,-0.0039062,0.43109
4.632,-0.25243,0.92549,0.94706,0.03125,0.42913
4.64,-0.25437,0.96078,0.95098,0,0.4262
4.648,-0.25243,0.95098,0.95098,0.0058594,0.42326
4.656,-0.24854,0.95098,0.95098,0.0058594,0.42131
4.664,-0.24272,0.94706,0.95098,0.019531,0.41935
4.672,-0.23689,0.94118,0.94118,0.019531,0.4174
4.68,-0.23107,0.93725,0.94706,0.019531,0.41642
4.688,-0.2233,0.92549,0.94118,0.025391,0.41447
4.696,-0.21553,0.94706,0.94706,0.019531,0.41251
4.704,-0.20777,0.93137,0.94118,0.025391,0.41251
4.712,-0.20194,0.93725,0.94706,0.019531,0.41251
4.72,-0.19417,0.92549,0.95098,0.03125,0.41349
4.728,-0.18835,0.94706,0.94706,0.019531,0.41447
4.736,-0.18058,0.95686,0.97647,0.019531,0.41642
4.744,-0.17476,0.95098,0.99608,0.025391,0.42033
4.752,-0.16699,0.98235,1.0157,0.015625,0.42424
4.76,-0.15922,0.96667,0.99608,0.03125,0.42815
4.768,-0.14951,0.98627,0.98235,0.0097656,0.43304
4.776,-0.13981,0.95098,0.92549,0.019531,0.43793
4.784,-0.1301,0.94706,0.91176,0.0097656,0.44477
4.792,-0.1165,0.94706,0.91569,0.019531,0.45064
4.8,-0.10097,0.91176,0.91176,0.044922,0.45748
4.808,-0.083495,0.91569,0.90588,0.035156,0.46334
4.816,-0.066019,0.88627,0.91569,0.054688,0.47116
4.824,-0.040777,0.87647,0.90588,0.070312,0.47898
4.832,-0.015534,0.8902,0.91569,0.050781,0.48778
4.84,0.013592,0.88627,0.91176,0.050781,0.49658
4.848,0.04466,0.88039,0.91569,0.054688,0.5044
4.856,0.079612,0.91569,0.90588,0.03125,0.5132
4.864,0.11456,0.99216,0.86667,-0.019531,0.52102
4.872,0.15534,1.0275,0.63529,-0.029297,0.5259
4.88,0.19417,0.16863,0.18824,0.54492,0.53079
4.888,0.23883,-0.50196,-0.50196,1.1602,0.53666
4.896,0.2835,-0.50196,-0.50196,1.5,0.54252
4.904,0.3301,-0.50196,-0.50196,1.5,0.54643
4.912,0.3767,-0.50196,-0.50196,1.4941,0.54936
4.92,0.42524,-0.50196,-0.17255,1.1895,0.55034
4.928,0.47184,-0.50196,0.18431,0.88477,0.55132
4.936,0.52039,-0.18627,0.48431,0.64062,0.55132
4.944,0.56699,0.22941,0.7451,0.375,0.55034
4.952,0.61359,0.62549,0.95686,0.125,0.54936
4.96,0.66019,0.87647,1.1118,-0.044922,0.54839
4.968,0.70485,1.0667,1.2216,-0.1543,0.54643
4.976,0.74951,1.2569,1.3471,-0.19336,0.54448
4.984,0.79223,1.3471,1.3922,-0.22852,0.54252
4.992,0.83495,1.3667,1.3922,-0.24023,0.53959
5,0.87767,1.3725,1.3882,-0.24023,0.53666
5.008,0.91845,1.3784,1.3784,-0.25,0.53275
5.016,0.95728,1.3784,1.3725,-0.24414,0.52981
5.024,0.99806,1.3824,1.3569,-0.25,0.52493
5.032,1.035,1.3784,1.3569,-0.24414,0.52102
5.04,1.0738,1.3922,1.3529,-0.25977,0.51613
5.048,1.1068,1.398,1.3529,-0.25977,0.51124
5.056,1.1417,1.402,1.3471,-0.26953,0.50538
5.064,1.1748,1.4235,1.3471,-0.2793,0.49951
5.072,1.2058,1.4373,1.3471,-0.29492,0.49365
5.08,1.235,1.4627,1.3529,-0.31445,0.48778
5.088,1.2621,1.4922,1.3569,-0.33398,0.48387
5.096,1.2874,1.5039,1.3667,-0.36328,0.47898
5.104,1.3126,1.5039,1.3784,-0.4082,0.47312
5.112,1.3301,1.5039,1.402,-0.46484,0.46628
5.12,1.3495,1.5039,1.4275,-0.49805,0.46041
5.128,1.3612,1.5039,1.4686,-0.49805,0.45357
5.136,1.3748,1.5039,1.502,-0.49805,0.44868
5.144,1.3767,1.5039,1.5039,-0.49805,0.44477
5.152,1.3786,1.5039,1.5039,-0.49805,0.44086
5.16,1.3728,1.5039,1.5039,-0.49805,0.43597
5.168,1.367,1.5039,1.502,-0.49805,0.43206
5.176,1.3553,1.5039,1.4333,-0.49805,0.42815
5.184,1.3456,1.5039,1.3373,-0.43945,0.42522
5.192,1.332,1.498,1.2373,-0.34961,0.42326
5.2,1.3184,1.3569,1.1471,-0.25977,0.42033
5.208,1.3029,1.2431,1.0608,-0.18945,0.41838
5.216,1.2893,1.1569,1.0118,-0.13867,0.41544
5.224,1.2757,1.0922,0.97059,-0.099609,0.41251
5.232,1.2641,1.0412,0.95098,-0.064453,0.40958
5.24,1.2505,1.002,0.94118,-0.039062,0.40665
5.248,1.2388,0.98235,0.94118,-0.025391,0.40274
5.256,1.2291,0.97059,0.93725,-0.025391,0.3998
5.264,1.2175,0.96667,0.93725,-0.013672,0.39687
5.272,1.2078,0.96667,0.93725,-0.019531,0.39492
5.28,1.1981,0.96667,0.94706,-0.013672,0.39394
5.288,1.1883,0.96667,0.94118,-0.019531,0.39296
5.296,1.1786,0.97059,0.94706,-0.019531,0.39394
5.304,1.1709,0.97647,0.94118,-0.019531,0.39394
5.312,1.1631,0.97647,0.94118,-0.019531,0.39394
5.32,1.1573,0.97647,0.94706,-0.019531,0.39394
5.328,1.1515,0.97647,0.94118,-0.019531,0.39394
5.336,1.1456,0.97059,0.94706,-0.013672,0.39394
5.344,1.1417,0.97647,0.94118,-0.013672,0.39394
5.352,1.1379,0.97059,0.95098,-0.013672,0.39394
5.36,1.134,0.97647,0.94118,-0.013672,0.39394
5.368,1.1282,0.97059,0.94706,-0.0097656,0.39394
5.376,1.1243,0.97059,0.93725,-0.013672,0.39394
5.384,1.1184,0.96667,0.94118,-0.013672,0.39394
5.392,1.1146,0.96667,0.94118,-0.013672,0.39394
5.4,1.1087,0.96667,0.94706,-0.0097656,0.39394
5.408,1.1029,0.96667,0.94118,-0.0097656,0.39394
5.416,1.0971,0.96078,0.94118,-0.0097656,0.39394
5.424,1.0913,0.96078,0.94118,-0.0097656,0.39394
5.432,1.0835,0.95686,0.94118,-0.0039062,0.39394
5.44,1.0757,0.96078,0.94118,-0.013672,0.39492
5.448,1.066,0.95686,0.94706,-0.0097656,0.39687
5.456,1.0563,0.95686,0.94706,-0.013672,0.39883
5.464,1.0447,0.96078,0.95098,-0.013672,0.40274
5.472,1.033,0.96667,0.95098,-0.013672,0.40762
5.48,1.0214,0.97059,0.95098,-0.019531,0.41349
5.488,1.0078,0.97647,0.96078,-0.025391,0.42033
5.496,0.99612,0.99216,0.98627,-0.019531,0.42815
5.504,0.98252,1.0059,1.0059,-0.029297,0.435
5.512,0.96893,1.0157,1.0157,-0.025391,0.44282
5.52,0.95534,1.0059,1.002,-0.029297,0.45161
5.528,0.94369,0.99216,0.97647,-0.035156,0.46139
5.536,0.9301,0.98627,0.93137,-0.025391,0.47116
5.544,0.91845,0.99608,0.92157,-0.035156,0.48094
5.552,0.90485,0.97059,0.92549,-0.013672,0.49169
5.56,0.8932,0.95098,0.92157,-0.0039062,0.50342
5.568,0.88155,0.93137,0.92549,0.0097656,0.51515
5.576,0.8699,0.92549,0.92549,0.015625,0.5259
5.584,0.85825,0.92157,0.92549,0.019531,0.53568
5.592,0.84854,0.92157,0.92549,0.019531,0.54448
5.6,0.83689,0.91569,0.92549,0.019531,0.5523
5.608,0.82524,0.92549,0.91569,0.0097656,0.55914
5.616,0.81359,0.97647,0.92157,-0.029297,0.56598
5.624,0.80194,1.0471,0.82157,-0.070312,0.5738
5.632,0.79029,0.6098,0.39412,0.20508,0.58162
5.64,0.7767,-0.22157,-0.24314,0.73438,0.58847
5.648,0.76505,-0.50196,-0.50196,1.2539,0.59433
5.656,0.7534,-0.50196,-0.50196,1.5,0.59922
5.664,0.73981,-0.50196,-0.50196,1.4531,0.60117
5.672,0.72621,-0.50196,-0.50196,1.1895,0.60117
5.68,0.71456,-0.50196,-0.086275,0.92383,0.60117
5.688,0.69903,-0.36275,0.22353,0.67969,0.6002
5.696,0.68544,0.0078431,0.55098,0.4707,0.59922
5.704,0.67184,0.41961,0.84118,0.2207,0.59629
5.712,0.65825,0.76078,1.0765,0.025391,0.59335
5.72,0.64466,0.94706,1.2176,-0.099609,0.59042
5.728,0.62913,1.1373,1.3471,-0.16406,0.58749
5.736,0.61553,1.2922,1.4529,-0.19336,0.58358
5.744,0.60194,1.3333,1.4686,-0.21484,0.57967
5.752,0.58835,1.3471,1.4725,-0.21875,0.57576
5.76,0.5767,1.3569,1.4627,-0.22461,0.57087
5.768,0.56505,1.3569,1.4529,-0.22461,0.56696
5.776,0.5534,1.3627,1.4471,-0.22852,0.56207
5.784,0.54175,1.3627,1.4471,-0.22852,0.55816
5.792,0.53204,1.3725,1.4373,-0.22852,0.55327
5.8,0.52233,1.3725,1.4333,-0.23438,0.54936
5.808,0.51262,1.3824,1.4235,-0.24023,0.54545
5.816,0.50291,1.3882,1.4275,-0.24414,0.54252
5.824,0.4932,1.398,1.4235,-0.25977,0.53861
5.832,0.4835,1.4176,1.4373,-0.26367,0.53568
5.84,0.47379,1.4471,1.4431,-0.28516,0.53177
5.848,0.46408,1.4824,1.4471,-0.30859,0.52884
5.856,0.45631,1.5039,1.4627,-0.34961,0.52493
5.864,0.4466,1.5039,1.4882,-0.38477,0.52102
5.872,0.43689,1.5039,1.5039,-0.43359,0.51711
5.88,0.42524,1.5039,1.5039,-0.48828,0.5132
5.888,0.41359,1.5039,1.5039,-0.49805,0.50831
5.896,0.4,1.5039,1.5039,-0.49805,0.5044
5.904,0.38641,1.5039,1.5039,-0.49805,0.50049
5.912,0.36893,1.5039,1.5039,-0.49805,0.49756
5.92,0.34951,1.5039,1.5039,-0.49805,0.49462
5.928,0.32621,1.5039,1.5039,-0.49805,0.49169
5.936,0.30291,1.5039,1.4686,-0.45898,0.48876
5.944,0.27767,1.5039,1.3569,-0.375,0.48485
5.952,0.25243,1.4275,1.2471,-0.28906,0.48192
5.96,0.22524,1.3078,1.151,-0.22461,0.47898
5.968,0.2,1.1961,1.0725,-0.16016,0.47507
5.976,0.17087,1.1216,1.0059,-0.10938,0.47214
5.984,0.14369,1.0667,0.97059,-0.074219,0.46823
5.992,0.1165,1.0216,0.95098,-0.054688,0.4653
6,0.087379,0.98627,0.95098,-0.029297,0.46237
6.008,0.062136,0.97647,0.94118,-0.025391,0.45846
6.016,0.034951,0.96667,0.94118,-0.013672,0.45552
6.024,0.01165,0.96078,0.93725,-0.0097656,0.45259
6.032,-0.013592,0.96078,0.94118,-0.0039062,0.44966
6.04,-0.034951,0.95686,0.94118,0,0.44673
6.048,-0.056311,0.95098,0.95098,0,0.44379
6.056,-0.07767,0.95686,0.94706,-0.0039062,0.44086
6.064,-0.097087,0.95098,0.95098,-0.0039062,0.43891
6.072,-0.11456,0.95686,0.95098,-0.0097656,0.43695
6.08,-0.1301,0.96078,0.95098,-0.0039062,0.43402
6.088,-0.14369,0.96667,0.95098,-0.0039062,0.43206
6.096,-0.15728,0.96667,0.95098,0,0.42815
6.104,-0.16893,0.96667,0.94706,-0.0039062,0.42522
6.112,-0.17864,0.96667,0.95098,0,0.42229
6.12,-0.18447,0.97059,0.95098,0,0.41935
6.128,-0.19029,0.96667,0.95098,-0.0039062,0.4174
6.136,-0.19223,0.96078,0.94118,0,0.41642
6.144,-0.19417,0.96667,0.94118,-0.0097656,0.41447
6.152,-0.19223,0.96078,0.93725,-0.0097656,0.41251
6.16,-0.18835,0.95686,0.93725,-0.0039062,0.41153
6.168,-0.18447,0.95686,0.94706,-0.0097656,0.40958
6.176,-0.17864,0.96078,0.94118,-0.0039062,0.40762
6.184,-0.17282,0.95686,0.94706,-0.0039062,0.40665
6.192,-0.16505,0.95686,0.93137,0,0.40762
6.2,-0.15728,0.95686,0.93725,-0.0039062,0.4086
6.208,-0.15146,0.96078,0.94118,-0.0097656,0.40958
6.216,-0.14563,0.96078,0.95686,-0.0039062,0.41251
6.224,-0.13786,0.97059,0.97059,-0.0097656,0.41642
6.232,-0.13204,0.99216,1.002,-0.013672,0.42033
6.24,-0.12621,1.0059,1.0118,-0.013672,0.42424
6.248,-0.12039,1.002,1.002,-0.019531,0.42815
6.256,-0.11262,0.99608,0.98235,-0.025391,0.43402
6.264,-0.1068,0.98235,0.94706,-0.019531,0.44086
6.272,-0.10097,0.98627,0.92157,-0.029297,0.44673
6.28,-0.095146,0.97059,0.92549,-0.013672,0.45455
6.288,-0.08932,0.95098,0.92157,-0.0039062,0.46334
6.296,-0.083495,0.93137,0.91569,0.0058594,0.47214
6.304,-0.07767,0.91569,0.92549,0.019531,0.48192
6.312,-0.071845,0.91176,0.92157,0.025391,0.49169
6.32,-0.066019,0.91176,0.92157,0.03125,0.50049
6.328,-0.060194,0.90588,0.92157,0.025391,0.51026
6.336,-0.054369,0.90588,0.92549,0.019531,0.51808
6.344,-0.048544,0.93725,0.92157,0,0.5259
6.352,-0.040777,1.0059,0.89608,-0.054688,0.5347
6.36,-0.036893,1.0471,0.6549,-0.074219,0.5435
6.368,-0.031068,0.22941,0.1098,0.44922,0.55132
6.376,-0.027184,-0.50196,-0.50196,0.98438,0.55914
6.384,-0.023301,-0.50196,-0.50196,1.4434,0.565
6.392,-0.019417,-0.50196,-0.50196,1.5,0.57087
6.4,-0.017476,-0.50196,-0.50196,1.334,0.57576
6.408,-0.013592,-0.50196,-0.34706,1.0586,0.57967
6.416,-0.0097087,-0.50196,0.039216,0.79883,0.5826
6.424,-0.0097087,-0.20196,0.36471,0.58984,0.58358
6.432,-0.007767,0.18824,0.68039,0.35547,0.58456
6.44,-0.0058252,0.59608,0.95098,0.11523,0.58456
6.448,-0.0058252,0.8451,1.1412,-0.044922,0.58358
6.456,-0.0038835,1.0216,1.2667,-0.14453,0.58358
6.464,-0.0019417,1.2118,1.4176,-0.17383,0.5826
6.472,0,1.302,1.4686,-0.20508,0.58162
6.48,0.0038835,1.3275,1.4686,-0.20898,0.57869
6.488,0.007767,1.3431,1.4627,-0.21484,0.57576
6.496,0.01165,1.3471,1.4569,-0.21484,0.57283
6.504,0.017476,1.3529,1.4471,-0.21484,0.56891
6.512,0.023301,1.3471,1.4431,-0.21875,0.56403
6.52,0.027184,1.3529,1.4373,-0.22852,0.55914
6.528,0.03301,1.3627,1.4333,-0.22852,0.55425
6.536,0.038835,1.3667,1.4275,-0.23438,0.55034
6.544,0.042718,1.3784,1.4275,-0.24023,0.54643
6.552,0.048544,1.3824,1.4235,-0.25,0.54252
6.56,0.052427,1.398,1.4275,-0.25977,0.53861
6.568,0.056311,1.4176,1.4333,-0.27344,0.53372
6.576,0.060194,1.4569,1.4431,-0.29492,0.52884
6.584,0.064078,1.498,1.4529,-0.32422,0.52395
6.592,0.067961,1.5039,1.4686,-0.36328,0.51808
6.6,0.071845,1.5039,1.498,-0.4082,0.51417
6.608,0.075728,1.5039,1.5039,-0.46484,0.50929
6.616,0.075728,1.5039,1.5039,-0.49805,0.50635
6.624,0.07767,1.5039,1.5039,-0.49805,0.50244
6.632,0.075728,1.5039,1.5039,-0.49805,0.49853
6.64,0.073786,1.5039,1.5039,-0.49805,0.4956
6.648,0.064078,1.5039,1.5039,-0.49805,0.49169
6.656,0.056311,1.5039,1.5039,-0.49805,0.48876
6.664,0.042718,1.5039,1.502,-0.49414,0.48583
6.672,0.031068,1.5039,1.398,-0.4082,0.48289
6.68,0.013592,1.4686,1.2882,-0.31836,0.47996
6.688,-0.0019417,1.3431,1.1725,-0.24414,0.47605
6.696,-0.021359,1.2275,1.0961,-0.17383,0.47312
6.704,-0.040777,1.1412,1.0275,-0.125,0.46921
6.712,-0.058252,1.0765,0.98627,-0.080078,0.46628
6.72,-0.07767,1.0275,0.95686,-0.054688,0.46237
6.728,-0.097087,0.99216,0.95098,-0.035156,0.45943
6.736,-0.11456,0.97059,0.94118,-0.019531,0.45552
6.744,-0.13204,0.95686,0.93725,-0.0039062,0.45259
6.752,-0.14951,0.95098,0.94118,0,0.44966
6.76,-0.16505,0.94706,0.93725,0.0058594,0.4477
6.768,-0.17864,0.95098,0.94118,0.0058594,0.44575
6.776,-0.19223,0.95098,0.93725,0,0.44477
6.784,-0.20583,0.94706,0.94706,0.015625,0.44282
6.792,-0.21748,0.93725,0.94118,0.019531,0.44086
6.8,-0.22913,0.97059,0.95098,-0.0097656,0.43891
6.808,-0.23883,0.95098,0.94706,0.0097656,0.43793
6.816,-0.24854,0.95098,0.95098,0,0.43597
6.824,-0.25631,0.96078,0.94706,0,0.43304
6.832,-0.26408,0.96078,0.95098,0.0058594,0.43011
6.84,-0.26796,0.95098,0.95098,0.0097656,0.4262
6.848,-0.2699,0.95098,0.95098,0.015625,0.42326
6.856,-0.2699,0.95686,0.94118,0.0058594,0.42131
6.864,-0.2699,0.95098,0.94706,0.0097656,0.41838
6.872,-0.26602,0.94706,0.94118,0.0058594,0.4174
6.88,-0.26019,0.93137,0.95098,0.019531,0.41544
6.888,-0.25437,0.92549,0.93725,0.035156,0.41349
6.896,-0.2466,0.94118,0.95098,0.019531,0.41153
6.904,-0.23689,0.94706,0.94706,0.0058594,0.41056
6.912,-0.22718,0.93137,0.94706,0.019531,0.4086
6.92,-0.21942,0.92549,0.93725,0.025391,0.40762
6.928,-0.20971,0.94118,0.93725,0.019531,0.40762
6.936,-0.20194,0.93137,0.94706,0.025391,0.4086
6.944,-0.19612,0.92549,0.94706,0.03125,0.41056
6.952,-0.19029,0.93725,0.96078,0.019531,0.41251
6.96,-0.18447,0.93137,0.98235,0.03125,0.41544
6.968,-0.18058,0.97647,1.002,0.015625,0.41935
6.976,-0.17476,0.97647,1.0059,0.019531,0.42326
6.984,-0.16893,0.96667,0.99608,0.019531,0.42815
6.992,-0.16311,0.95686,0.96078,0.019531,0.43304
7,-0.15534,0.96667,0.92549,0,0.43988
7.008,-0.14757,0.95686,0.90588,0.015625,0.44575
7.016,-0.13786,0.93725,0.92157,0.025391,0.45259
7.024,-0.12816,0.91176,0.90588,0.050781,0.46041
7.032,-0.1165,0.90588,0.92157,0.044922,0.46921
7.04,-0.10291,0.8902,0.90588,0.064453,0.47898
7.048,-0.085437,0.88039,0.91569,0.064453,0.48876
7.056,-0.069903,0.88627,0.91176,0.060547,0.49756
7.064,-0.048544,0.87647,0.90588,0.070312,0.50635
7.072,-0.027184,0.90588,0.91569,0.044922,0.51417
7.08,-0.0019417,0.92157,0.91176,0.03125,0.52004
7.088,0.023301,1.0216,0.85098,-0.029297,0.52786
7.096,0.052427,0.77647,0.52941,0.15625,0.53568
7.104,0.083495,-0.05098,0.058824,0.69531,0.54154
7.112,0.1165,-0.50196,-0.50196,1.2988,0.54741
7.12,0.15146,-0.50196,-0.50196,1.5,0.55132
7.128,0.18835,-0.50196,-0.50196,1.5,0.55523
7.136,0.22718,-0.50196,-0.50196,1.4199,0.55718
7.144,0.26796,-0.50196,-0.056863,1.1152,0.55816
7.152,0.30874,-0.47843,0.25882,0.81445,0.55816
7.16,0.34951,-0.072549,0.56078,0.58008,0.55816
7.168,0.39223,0.32941,0.81176,0.31445,0.55621
7.176,0.43301,0.68627,1.0157,0.089844,0.55327
7.184,0.47573,0.91176,1.151,-0.058594,0.55132
7.192,0.51845,1.0961,1.2627,-0.14844,0.54936
7.2,0.55922,1.2725,1.3784,-0.18945,0.54643
7.208,0.60194,1.3373,1.398,-0.21875,0.54252
7.216,0.64466,1.3529,1.398,-0.22461,0.53763
7.224,0.68738,1.3569,1.3882,-0.22852,0.53372
7.232,0.7301,1.3627,1.3882,-0.23438,0.52884
7.24,0.77282,1.3667,1.3784,-0.23438,0.52395
7.248,0.81553,1.3667,1.3725,-0.23438,0.51808
7.256,0.85631,1.3784,1.3627,-0.24023,0.5132
7.264,0.89515,1.3784,1.3569,-0.24414,0.50831
7.272,0.93398,1.3922,1.3529,-0.25977,0.50342
7.28,0.97282,1.398,1.3529,-0.25977,0.49951
7.288,1.0078,1.4078,1.3471,-0.26953,0.4956
7.296,1.0447,1.4333,1.3529,-0.28906,0.49071
7.304,1.0777,1.4627,1.3529,-0.30859,0.48485
7.312,1.1107,1.4922,1.3569,-0.33398,0.47898
7.32,1.1398,1.5039,1.3725,-0.375,0.47312
7.328,1.1689,1.5039,1.3882,-0.41406,0.46725
7.336,1.1942,1.5039,1.402,-0.46484,0.46139
7.344,1.2194,1.5039,1.4431,-0.49805,0.4565
7.352,1.233,1.5039,1.4725,-0.49805,0.45064
7.36,1.2485,1.5039,1.5039,-0.49805,0.44477
7.368,1.2544,1.5039,1.5039,-0.49805,0.44086
7.376,1.2602,1.5039,1.5039,-0.49805,0.43695
7.384,1.2563,1.5039,1.5039,-0.49805,0.43304
7.392,1.2544,1.5039,1.4922,-0.49805,0.43011
7.4,1.2447,1.5039,1.4078,-0.49805,0.4262
7.408,1.235,1.5039,1.3118,-0.4082,0.42229
7.416,1.2233,1.4529,1.2176,-0.31836,0.41838
7.424,1.2097,1.3176,1.1275,-0.24023,0.41349
7.432,1.1961,1.2118,1.0569,-0.16992,0.4086
7.44,1.1825,1.1314,0.99608,-0.12891,0.40371
7.448,1.1709,1.0725,0.97059,-0.083984,0.3998
7.456,1.1573,1.0275,0.94706,-0.058594,0.39589
7.464,1.1456,1.002,0.94118,-0.035156,0.39296
7.472,1.134,0.98235,0.93137,-0.029297,0.39101
7.48,1.1223,0.97059,0.93725,-0.019531,0.38905
7.488,1.1126,0.97059,0.93137,-0.019531,0.38807
7.496,1.1029,0.96667,0.93725,-0.013672,0.3871
7.504,1.0951,0.96667,0.93137,-0.013672,0.38612
7.512,1.0854,0.96667,0.93725,-0.013672,0.38612
7.52,1.0777,0.96667,0.93725,-0.013672,0.38612
7.528,1.0718,0.97647,0.94706,-0.019531,0.38514
7.536,1.0641,0.97647,0.94706,-0.013672,0.38514
7.544,1.0583,0.97647,0.94706,-0.019531,0.38514
7.552,1.0524,0.97647,0.95098,-0.019531,0.38514
7.56,1.0466,0.98235,0.94706,-0.025391,0.38416
7.568,1.0427,0.97647,0.95098,-0.025391,0.38416
7.576,1.0388,0.97647,0.94706,-0.019531,0.38416
7.584,1.0369,0.97647,0.95098,-0.019531,0.38416
7.592,1.035,0.97647,0.94706,-0.019531,0.38416
7.6,1.033,0.96667,0.95098,-0.013672,0.38416
7.608,1.033,0.96667,0.94706,-0.013672,0.38416
7.616,1.033,0.96667,0.95098,-0.019531,0.38319
7.624,1.033,0.96667,0.94706,-0.013672,0.38221
7.632,1.035,0.96078,0.94706,-0.0097656,0.38221
7.64,1.035,0.96078,0.93725,-0.013672,0.38221
7.648,1.0369,0.95686,0.94706,-0.0097656,0.38221
7.656,1.0369,0.96078,0.94706,-0.0097656,0.38416
7.664,1.0369,0.95686,0.95098,-0.0039062,0.38612
7.672,1.0369,0.96078,0.94706,-0.013672,0.38905
7.68,1.035,0.95686,0.94118,-0.013672,0.39101
7.688,1.0311,0.96078,0.94706,-0.013672,0.39492
7.696,1.0272,0.97059,0.95098,-0.019531,0.39883
7.704,1.0214,0.97059,0.95686,-0.019531,0.40371
7.712,1.0155,0.97647,0.97647,-0.019531,0.40958
7.72,1.0078,1.002,1.002,-0.025391,0.41642
7.728,1,1.0059,1.0118,-0.019531,0.42424
7.736,0.99029,1.002,1.002,-0.025391,0.43304
7.744,0.98252,1.0059,0.98235,-0.019531,0.44282
7.752,0.97282,0.98235,0.93725,-0.025391,0.45259
7.76,0.96311,0.99216,0.92157,-0.035156,0.46237
7.768,0.9534,0.97647,0.92549,-0.019531,0.47312
7.776,0.94369,0.95098,0.92157,0,0.48485
7.784,0.93204,0.93137,0.92549,0.015625,0.49658
7.792,0.92233,0.92157,0.92549,0.019531,0.50831
7.8,0.91262,0.91569,0.93137,0.019531,0.52004
7.808,0.90097,0.91569,0.93725,0.019531,0.53079
7.816,0.88932,0.91176,0.93725,0.019531,0.53959
7.824,0.87961,0.91176,0.92549,0.019531,0.54741
7.832,0.86796,0.95686,0.92549,-0.013672,0.55621
7.84,0.85631,1.0373,0.86667,-0.074219,0.56403
7.848,0.8466,0.77059,0.52549,0.10547,0.57087
7.856,0.83495,-0.047059,-0.066667,0.625,0.57771
7.864,0.8233,-0.50196,-0.50196,1.1484,0.58456
7.872,0.81165,-0.50196,-0.50196,1.5,0.58847
7.88,0.8,-0.50196,-0.50196,1.5,0.59335
7.888,0.79029,-0.50196,-0.50196,1.2539,0.59629
7.896,0.7767,-0.50196,-0.17255,0.99414,0.59824
7.904,0.76311,-0.44314,0.15882,0.73438,0.59922
7.912,0.74951,-0.086275,0.49412,0.5293,0.59922
7.92,0.73398,0.31373,0.78627,0.28516,0.59726
7.928,0.72039,0.68627,1.0412,0.064453,0.59433
7.936,0.70485,0.90196,1.1961,-0.070312,0.5914
7.944,0.68932,1.0725,1.3176,-0.14844,0.58847
7.952,0.67573,1.2627,1.4471,-0.18359,0.58456
7.96,0.66019,1.3216,1.4686,-0.20898,0.58065
7.968,0.6466,1.3373,1.4686,-0.21484,0.57576
7.976,0.63301,1.3529,1.4686,-0.21875,0.57087
7.984,0.61942,1.3529,1.4569,-0.22461,0.565
7.992,0.60777,1.3569,1.4471,-0.22852,0.56012
8,0.59612,1.3627,1.4431,-0.22852,0.55523
8.008,0.58641,1.3627,1.4373,-0.22852,0.55034
8.016,0.5767,1.3667,1.4373,-0.23438,0.54643
8.024,0.56505,1.3725,1.4275,-0.24023,0.54154
8.032,0.55534,1.3824,1.4275,-0.24414,0.53666
8.04,0.54563,1.3922,1.4275,-0.25391,0.53177
8.048,0.53592,1.4078,1.4333,-0.25977,0.52688
8.056,0.52621,1.4373,1.4275,-0.2793,0.52199
8.064,0.5165,1.4686,1.4431,-0.30469,0.51711
8.072,0.50485,1.5039,1.4529,-0.33398,0.51124
8.08,0.4932,1.5039,1.4824,-0.375,0.50635
8.088,0.48155,1.5039,1.5039,-0.41992,0.50147
8.096,0.4699,1.5039,1.5039,-0.46875,0.49756
8.104,0.45825,1.5039,1.5039,-0.49805,0.49462
8.112,0.44466,1.5039,1.5039,-0.49805,0.49169
8.12,0.42913,1.5039,1.5039,-0.49805,0.48974
8.128,0.41359,1.5039,1.5039,-0.49805,0.48778
8.136,0.39223,1.5039,1.5039,-0.49805,0.48485
8.144,0.37282,1.5039,1.5039,-0.49805,0.48094
8.152,0.34951,1.5039,1.4824,-0.47852,0.47801
8.16,0.32427,1.5039,1.3824,-0.38867,0.4741
8.168,0.29709,1.4431,1.2765,-0.30469,0.46921
8.176,0.2699,1.3176,1.1725,-0.22461,0.46334
8.184,0.24078,1.2118,1.0922,-0.16406,0.45846
8.192,0.21165,1.1275,1.0275,-0.11523,0.45357
8.2,0.18252,1.0667,0.99608,-0.080078,0.44868
8.208,0.15534,1.0216,0.96667,-0.048828,0.44477
8.216,0.12621,0.98627,0.95098,-0.025391,0.44086
8.224,0.099029,0.97059,0.94706,-0.013672,0.43793
8.232,0.073786,0.95686,0.94706,0,0.43597
8.24,0.046602,0.95098,0.94706,0,0.43206
8.248,0.023301,0.95098,0.94706,0,0.42913
8.256,-0.0019417,0.95098,0.95098,0,0.42522
8.264,-0.025243,0.94706,0.95098,0,0.42229
8.272,-0.048544,0.95098,0.95098,0,0.41838
8.28,-0.067961,0.95098,0.95098,0,0.41447
8.288,-0.087379,0.95098,0.95098,0,0.41153
8.296,-0.10485,0.95098,0.95098,0,0.40762
8.304,-0.12233,0.95098,0.95098,0,0.40469
8.312,-0.13592,0.95098,0.95686,0,0.40176
8.32,-0.14757,0.95686,0.95098,-0.0039062,0.39785
8.328,-0.15728,0.95686,0.95098,0,0.39492
8.336,-0.16699,0.95686,0.95098,-0.0039062,0.39296
8.344,-0.17087,0.95686,0.95686,0,0.39101
8.352,-0.1767,0.95686,0.96667,-0.0039062,0.38905
8.36,-0.1767,0.95098,0.96078,0,0.3871
8.368,-0.17864,0.95686,0.96667,-0.0039062,0.38514
8.376,-0.17476,0.95686,0.96078,0,0.38319
8.384,-0.17282,0.95686,0.96667,-0.0039062,0.38221
8.392,-0.16699,0.95686,0.95686,-0.0097656,0.38319
8.4,-0.16117,0.95686,0.95686,-0.0039062,0.38612
8.408,-0.1534,0.96078,0.95098,-0.013672,0.3871
8.416,-0.14563,0.95686,0.96078,-0.0097656,0.38807
8.424,-0.13981,0.95686,0.95686,-0.0097656,0.38905
8.432,-0.13204,0.96078,0.97059,-0.013672,0.39198
8.44,-0.12621,0.97059,0.98235,-0.019531,0.39492
8.448,-0.11845,0.99216,1.0059,-0.019531,0.39785
8.456,-0.11262,1.0059,1.0216,-0.025391,0.40176
8.464,-0.1068,1.002,1.0216,-0.019531,0.40567
8.472,-0.10097,0.99608,0.99608,-0.025391,0.41056
8.48,-0.095146,0.97647,0.96078,-0.025391,0.41642
8.488,-0.08932,0.98235,0.92549,-0.029297,0.42326
8.496,-0.083495,0.97059,0.93137,-0.013672,0.43109
8.504,-0.07767,0.94706,0.93137,0,0.43988
8.512,-0.071845,0.92549,0.93725,0.015625,0.4477
8.52,-0.066019,0.92157,0.93137,0.019531,0.45455
8.528,-0.060194,0.90588,0.93725,0.025391,0.46237
8.536,-0.054369,0.90588,0.93137,0.025391,0.47116
8.544,-0.050485,0.90588,0.94118,0.025391,0.47898
8.552,-0.04466,0.90588,0.93725,0.019531,0.48583
8.56,-0.038835,0.93137,0.93137,0.0058594,0.49267
8.568,-0.03301,1.0059,0.90588,-0.054688,0.50049
8.576,-0.029126,1.0412,0.66078,-0.070312,0.50635
8.584,-0.023301,0.23922,0.11961,0.44922,0.51222
8.592,-0.017476,-0.50196,-0.50196,0.98047,0.51711
8.6,-0.013592,-0.50196,-0.50196,1.4434,0.52297
8.608,-0.0097087,-0.50196,-0.50196,1.5,0.52786
8.616,-0.0058252,-0.50196,-0.50196,1.334,0.53275
8.624,-0.0019417,-0.50196,-0.35294,1.0586,0.53763
8.632,0.0019417,-0.50196,0.039216,0.79883,0.54057
8.64,0.0058252,-0.20196,0.37059,0.58984,0.54252
8.648,0.007767,0.18431,0.68039,0.35938,0.54252
8.656,0.0097087,0.58039,0.94706,0.12109,0.54252
8.664,0.01165,0.83529,1.1471,-0.039062,0.54154
8.672,0.013592,1.0157,1.2667,-0.13477,0.53959
8.68,0.017476,1.2078,1.4078,-0.16992,0.53861
8.688,0.019417,1.302,1.4627,-0.19336,0.53568
8.696,0.023301,1.3216,1.4686,-0.20508,0.53177
8.704,0.027184,1.3431,1.4627,-0.20898,0.52786
8.712,0.03301,1.3373,1.4569,-0.21484,0.52297
8.72,0.036893,1.3471,1.4471,-0.21484,0.51906
8.728,0.042718,1.3471,1.4471,-0.21875,0.51417
8.736,0.048544,1.3529,1.4333,-0.22461,0.51026
8.744,0.052427,1.3529,1.4275,-0.22461,0.50733
8.752,0.058252,1.3627,1.4235,-0.23438,0.50342
8.76,0.062136,1.3725,1.4235,-0.23438,0.50147
8.768,0.066019,1.3824,1.4275,-0.24414,0.49756
8.776,0.067961,1.398,1.4235,-0.25391,0.49462
8.784,0.071845,1.4176,1.4333,-0.27344,0.48974
8.792,0.073786,1.4471,1.4373,-0.29492,0.48485
8.8,0.07767,1.4922,1.4569,-0.31836,0.47996
8.808,0.081553,1.5039,1.4784,-0.35938,0.47507
8.816,0.085437,1.5039,1.502,-0.4043,0.47019
8.824,0.085437,1.5039,1.5039,-0.45898,0.4653
8.832,0.087379,1.5039,1.5039,-0.49805,0.46041
8.84,0.087379,1.5039,1.5039,-0.49805,0.4565
8.848,0.085437,1.5039,1.5039,-0.49805,0.45259
8.856,0.079612,1.5039,1.5039,-0.49805,0.44868
8.864,0.071845,1.5039,1.5039,-0.49805,0.44477
8.872,0.060194,1.5039,1.5039,-0.49805,0.44086
8.88,0.048544,1.5039,1.502,-0.49414,0.43793
8.888,0.031068,1.5039,1.398,-0.4082,0.43402
8.896,0.015534,1.4686,1.2922,-0.31836,0.43011
8.904,-0.0038835,1.3373,1.1765,-0.24414,0.4262
8.912,-0.023301,1.2216,1.0961,-0.17383,0.42326
8.92,-0.042718,1.1412,1.0216,-0.125,0.41935
8.928,-0.062136,1.0765,0.97647,-0.089844,0.41447
8.936,-0.081553,1.0275,0.95098,-0.054688,0.40958
8.944,-0.10097,0.99608,0.94118,-0.029297,0.40567
8.952,-0.11845,0.97059,0.93725,-0.019531,0.40176
8.96,-0.13592,0.96078,0.93725,-0.0039062,0.3998
8.968,-0.15146,0.95686,0.93725,0,0.39883
8.976,-0.16893,0.94706,0.93137,0,0.39785
8.984,-0.18252,0.93725,0.93725,0.0058594,0.39589
8.992,-0.19806,0.93137,0.93137,0.015625,0.39296
9,-0.20971,0.95098,0.94706,0,0.39003
9.008,-0.2233,0.93725,0.94118,0.015625,0.3871
9.016,-0.23301,0.95098,0.95098,0,0.38319
9.024,-0.24466,0.96078,0.94706,-0.0039062,0.38025
9.032,-0.25243,0.95098,0.95098,0,0.37732
9.04,-0.26214,0.95686,0.94706,0.0097656,0.37537
9.048,-0.26602,0.95098,0.95098,0,0.37243
9.056,-0.27184,0.96078,0.94706,-0.0039062,0.3695
9.064,-0.27184,0.94706,0.94706,0.0097656,0.36755
9.072,-0.27379,0.96667,0.94706,-0.0039062,0.36559
9.08,-0.2699,0.94706,0.94118,0.015625,0.36266
9.088,-0.26602,0.94118,0.93137,0.019531,0.35973
9.096,-0.26019,0.95098,0.95098,0.0058594,0.35777
9.104,-0.25437,0.94706,0.94118,0.0097656,0.35484
9.112,-0.2466,0.93725,0.94706,0.015625,0.35288
9.12,-0.23689,0.94706,0.94118,0.0058594,0.35093
9.128,-0.22913,0.93725,0.95098,0.015625,0.34995
9.136,-0.21942,0.92549,0.93725,0.025391,0.34995
9.144,-0.21165,0.94118,0.94706,0.019531,0.34995
9.152,-0.20583,0.93137,0.95098,0.019531,0.34995
9.16,-0.2,0.94118,0.95098,0.015625,0.34995
9.168,-0.19417,0.94118,0.96078,0.025391,0.34995
9.176,-0.18835,0.95098,0.98235,0.03125,0.35093
9.184,-0.18252,0.97647,1.0059,0.0097656,0.35386
9.192,-0.17864,0.97647,1.0157,0.019531,0.35679
9.2,-0.17282,0.97059,1.002,0.025391,0.3607
9.208,-0.16311,0.94118,0.96078,0.035156,0.36559
9.216,-0.15534,0.93137,0.92549,0.041016,0.37048
9.224,-0.14563,0.96078,0.91569,0,0.37634
9.232,-0.13398,0.92549,0.92157,0.035156,0.38221
9.24,-0.12039,0.93137,0.91176,0.03125,0.38905
9.248,-0.1068,0.89608,0.91569,0.050781,0.39687
9.256,-0.08932,0.87647,0.91176,0.070312,0.40567
9.264,-0.071845,0.8902,0.92157,0.050781,0.41349
9.272,-0.050485,0.8902,0.92157,0.050781,0.42131
9.28,-0.029126,0.87647,0.92549,0.064453,0.42815
9.288,-0.0038835,0.8902,0.91569,0.054688,0.43597
9.296,0.023301,0.92157,0.91176,0.035156,0.44282
9.304,0.054369,1.0314,0.85098,-0.039062,0.44966
9.312,0.085437,0.77647,0.52549,0.15039,0.45455
9.32,0.12039,-0.066667,0.052941,0.70508,0.45846
9.328,0.15728,-0.50196,-0.50196,1.2988,0.46237
9.336,0.19612,-0.50196,-0.50196,1.5,0.46432
9.344,0.23495,-0.50196,-0.50196,1.5,0.46628
9.352,0.27573,-0.50196,-0.50196,1.4141,0.46725
9.36,0.31845,-0.50196,-0.05098,1.1094,0.46628
9.368,0.36117,-0.47843,0.26863,0.81055,0.4653
9.376,0.40388,-0.066667,0.56471,0.57031,0.46334
9.384,0.4466,0.33529,0.80588,0.30469,0.46041
9.392,0.48932,0.70588,1.0157,0.076172,0.45846
9.4,0.53204,0.92549,1.1471,-0.074219,0.4565
9.408,0.57476,1.1118,1.2569,-0.16016,0.45455
9.416,0.61748,1.2824,1.3725,-0.19922,0.45259
9.424,0.66019,1.3471,1.3922,-0.22852,0.45064
9.432,0.70291,1.3627,1.398,-0.23438,0.4477
9.44,0.74563,1.3725,1.3824,-0.23438,0.44379
9.448,0.78835,1.3667,1.3784,-0.24023,0.43891
9.456,0.83301,1.3725,1.3667,-0.24414,0.43402
9.464,0.87379,1.3784,1.3627,-0.23438,0.42913
9.472,0.91456,1.3824,1.3569,-0.25391,0.42326
9.48,0.9534,1.3882,1.3569,-0.25977,0.41838
9.488,0.99223,1.3922,1.3529,-0.25977,0.41349
9.496,1.0291,1.402,1.3529,-0.26367,0.40958
9.504,1.066,1.4176,1.3529,-0.28516,0.40567
9.512,1.099,1.4333,1.3529,-0.28906,0.40176
9.52,1.134,1.4627,1.3529,-0.31445,0.39785
9.528,1.165,1.502,1.3627,-0.33398,0.39394
9.536,1.1961,1.5039,1.3725,-0.375,0.38905
9.544,1.2233,1.5039,1.3882,-0.41992,0.38416
9.552,1.2505,1.5039,1.4118,-0.47461,0.3783
9.56,1.2699,1.5039,1.4431,-0.49805,0.37243
9.568,1.2893,1.5039,1.4784,-0.49805,0.36755
9.576,1.301,1.5039,1.5039,-0.49805,0.36266
9.584,1.3146,1.5039,1.5039,-0.49805,0.35777
9.592,1.3165,1.5039,1.5039,-0.49805,0.35484
9.6,1.3204,1.5039,1.5039,-0.49805,0.35191
9.608,1.3146,1.5039,1.4922,-0.49805,0.348
9.616,1.3087,1.5039,1.4118,-0.49805,0.34506
9.624,1.301,1.5039,1.3118,-0.41406,0.34115
9.632,1.2913,1.4529,1.2216,-0.32422,0.33724
9.64,1.2796,1.3216,1.1275,-0.24414,0.33333
9.648,1.2699,1.2118,1.051,-0.17383,0.32942
9.656,1.2583,1.1314,0.99608,-0.125,0.32551
9.664,1.2466,1.0725,0.96667,-0.080078,0.32258
9.672,1.2369,1.0275,0.94118,-0.054688,0.31867
9.68,1.2252,1.002,0.93725,-0.035156,0.31574
9.688,1.2155,0.98235,0.93725,-0.029297,0.31183
9.696,1.2058,0.97647,0.94118,-0.025391,0.30987
9.704,1.1961,0.97059,0.93137,-0.019531,0.3089
9.712,1.1864,0.96667,0.94118,-0.013672,0.30694
9.72,1.1767,0.97059,0.93725,-0.019531,0.30596
9.728,1.167,0.96667,0.94118,-0.013672,0.30401
9.736,1.1553,0.96667,0.94706,-0.019531,0.30205
9.744,1.1456,0.97059,0.94706,-0.013672,0.3001
9.752,1.1359,0.97059,0.95098,-0.019531,0.29912
9.76,1.1262,0.97059,0.94706,-0.019531,0.29717
9.768,1.1165,0.97059,0.95098,-0.019531,0.29717
9.776,1.1087,0.97647,0.94706,-0.025391,0.29717
9.784,1.101,0.97647,0.94706,-0.019531,0.29619
9.792,1.0932,0.97647,0.94118,-0.025391,0.29619
9.8,1.0874,0.97059,0.94706,-0.019531,0.29717
9.808,1.0816,0.97059,0.94118,-0.025391,0.29717
9.816,1.0757,0.96078,0.94706,-0.013672,0.29717
9.824,1.0718,0.96667,0.93725,-0.019531,0.29619
9.832,1.068,0.96078,0.94118,-0.013672,0.29619
9.84,1.0641,0.96078,0.93725,-0.019531,0.29619
9.848,1.0621,0.96078,0.94706,-0.0097656,0.29619
9.856,1.0583,0.96078,0.94118,-0.013672,0.29619
9.864,1.0544,0.95686,0.94706,-0.0097656,0.29619
9.872,1.0524,0.96078,0.94706,-0.013672,0.29717
9.88,1.0466,0.95686,0.94706,-0.0097656,0.29814
9.888,1.0427,0.95686,0.94118,-0.0097656,0.29912
9.896,1.035,0.95098,0.94706,-0.0097656,0.30108
9.904,1.0291,0.95686,0.95098,-0.013672,0.30303
9.912,1.0194,0.96667,0.95098,-0.0097656,0.30596
9.92,1.0097,0.97647,0.96078,-0.019531,0.3089
9.928,0.99806,0.98627,0.99216,-0.013672,0.31378
9.936,0.98641,1.002,1.0118,-0.025391,0.32063
9.944,0.97282,1.0118,1.0157,-0.025391,0.32845
9.952,0.96117,1.002,1.002,-0.025391,0.33724
9.96,0.94951,0.98627,0.97059,-0.025391,0.34604
9.968,0.93592,0.98235,0.93725,-0.029297,0.35484
9.976,0.92427,0.98627,0.92549,-0.025391,0.36559
9.984,0.91068,0.96667,0.92549,-0.0097656,0.37537
9.992,0.89903,0.94706,0.92157,0,0.38514
10,0.88544,0.92549,0.92549,0.015625,0.39492
10.008,0.87379,0.92157,0.92549,0.019531,0.40371
10.016,0.86214,0.91569,0.93137,0.019531,0.41153
10.024,0.85049,0.91176,0.92549,0.019531,0.42033
10.032,0.83689,0.91176,0.93137,0.019531,0.42913
10.04,0.82524,0.92157,0.92549,0.019531,0.43695
10.048,0.81359,0.96078,0.92549,-0.019531,0.44575
10.056,0.80194,1.0412,0.83529,-0.064453,0.45357
10.064,0.79029,0.62549,0.41569,0.19531,0.45943
10.072,0.77864,-0.19216,-0.20196,0.7207,0.4653
10.08,0.76699,-0.50196,-0.50196,1.2402,0.47116
10.088,0.75534,-0.50196,-0.50196,1.5,0.47507
10.096,0.74369,-0.50196,-0.50196,1.4688,0.47898
10.104,0.73204,-0.50196,-0.50196,1.209,0.48192
10.112,0.72039,-0.50196,-0.10196,0.94531,0.48289
10.12,0.7068,-0.38824,0.21961,0.69922,0.48387
10.128,0.69515,-0.021569,0.55098,0.49023,0.48192
10.136,0.68155,0.3902,0.84118,0.24023,0.47996
10.144,0.66796,0.74118,1.0765,0.035156,0.47703
10.152,0.65437,0.93725,1.2176,-0.089844,0.4741
10.16,0.64078,1.1176,1.3471,-0.1543,0.47019
10.168,0.62718,1.2765,1.4529,-0.18945,0.46628
10.176,0.61359,1.3275,1.4686,-0.20898,0.46237
10.184,0.60194,1.3431,1.4725,-0.21484,0.45748
10.192,0.58835,1.3529,1.4686,-0.21875,0.45357
10.2,0.57864,1.3529,1.4569,-0.22461,0.44966
10.208,0.56699,1.3569,1.4471,-0.22461,0.44575
10.216,0.55728,1.3569,1.4471,-0.22852,0.44184
10.224,0.54757,1.3627,1.4373,-0.23438,0.43891
10.232,0.53786,1.3667,1.4373,-0.23438,0.43597
10.24,0.52816,1.3725,1.4333,-0.24023,0.43206
10.248,0.51845,1.3784,1.4333,-0.25,0.42913
10.256,0.50874,1.398,1.4275,-0.25977,0.42522
10.264,0.49903,1.4176,1.4373,-0.26953,0.42131
10.272,0.48738,1.4431,1.4431,-0.28906,0.41838
10.28,0.47767,1.4725,1.4529,-0.30859,0.41447
10.288,0.46602,1.5039,1.4686,-0.34375,0.41153
10.296,0.45631,1.5039,1.4922,-0.38477,0.40762
10.304,0.4466,1.5039,1.5039,-0.43359,0.40469
10.312,0.43495,1.5039,1.5039,-0.48438,0.40176
10.32,0.42524,1.5039,1.5039,-0.49805,0.3998
10.328,0.41165,1.5039,1.5039,-0.49805,0.39785
10.336,0.39806,1.5039,1.5039,-0.49805,0.39589
10.344,0.38252,1.5039,1.5039,-0.49805,0.39296
10.352,0.36505,1.5039,1.5039,-0.49805,0.39003
10.36,0.34563,1.5039,1.5039,-0.49805,0.3871
10.368,0.32427,1.5039,1.4725,-0.45898,0.38319
10.376,0.29903,1.5039,1.3627,-0.375,0.38025
10.384,0.27573,1.4176,1.2529,-0.28906,0.37634
10.392,0.25049,1.298,1.151,-0.21875,0.37341
10.4,0.2233,1.1961,1.0725,-0.1543,0.3695
10.408,0.19612,1.1059,1.0157,-0.10352,0.36657
10.416,0.16893,1.051,0.98235,-0.070312,0.36266
10.424,0.14175,1.0118,0.95686,-0.048828,0.35973
10.432,0.11456,0.98235,0.95098,-0.025391,0.35679
10.44,0.08932,0.97059,0.94706,-0.013672,0.37439
10.448,0.062136,0.95686,0.95098,-0.0039062,0.40176
10.456,0.036893,0.95098,0.95098,0,0.41447
10.464,0.01165,0.94706,0.95098,0,0.42033
10.472,-0.01165,0.95098,0.95098,-0.0039062,0.42229
10.48,-0.034951,0.94706,0.95098,0,0.42229
10.488,-0.054369,0.94706,0.95098,-0.0039062,0.42131
10.496,-0.075728,0.94706,0.95098,0,0.41935
10.504,-0.093204,0.95686,0.95098,0,0.4174
10.512,-0.11262,0.95686,0.95686,0,0.41447
10.52,-0.12621,0.95686,0.95686,-0.0039062,0.41153
10.528,-0.14175,0.96078,0.95098,0,0.4086
10.536,-0.1534,0.95686,0.95098,-0.0039062,0.40762
10.544,-0.16505,0.95098,0.95098,-0.0097656,0.40665
10.552,-0.17087,0.95686,0.95098,-0.0039062,0.40371
10.56,-0.1767,0.95686,0.95098,-0.013672,0.40176
10.568,-0.17864,0.96078,0.94706,-0.0097656,0.3998
10.576,-0.18058,0.95686,0.95098,-0.0039062,0.39785
10.584,-0.17864,0.95686,0.94706,-0.0039062,0.39589
10.592,-0.17476,0.95686,0.94118,-0.0097656,0.39492
10.6,-0.16893,0.95098,0.94118,-0.0039062,0.39296
10.608,-0.16311,0.95098,0.94118,0,0.39101
10.616,-0.15728,0.95098,0.94706,0,0.39003
10.624,-0.14951,0.95098,0.94118,0,0.39003
10.632,-0.14175,0.95098,0.95098,-0.0039062,0.39003
10.64,-0.13592,0.95098,0.95098,-0.0039062,0.39198
10.648,-0.12816,0.95686,0.95686,-0.0097656,0.39394
10.656,-0.12233,0.97059,0.96667,-0.013672,0.39589
10.664,-0.11456,0.97647,0.99216,-0.019531,0.39883
10.672,-0.10874,1.002,1.0059,-0.025391,0.40176
10.68,-0.10097,1.0059,1.0216,-0.019531,0.40567
10.688,-0.095146,1.002,1.002,-0.025391,0.41056
10.696,-0.08932,0.98235,0.97059,-0.019531,0.41544
10.704,-0.083495,0.98235,0.93137,-0.025391,0.42033
10.712,-0.075728,0.97647,0.92549,-0.025391,0.42522
10.72,-0.069903,0.96078,0.92549,-0.0097656,0.43109
10.728,-0.064078,0.94118,0.92549,0,0.43793
10.736,-0.058252,0.92549,0.92549,0.0097656,0.44379
10.744,-0.052427,0.91176,0.92549,0.025391,0.45064
10.752,-0.046602,0.91569,0.92549,0.025391,0.4565
10.76,-0.038835,0.90588,0.93137,0.019531,0.46334
10.768,-0.03301,0.90588,0.93725,0.019531,0.47019
10.776,-0.027184,0.91569,0.93137,0.019531,0.47801
10.784,-0.021359,0.96078,0.92157,-0.019531,0.48485
10.792,-0.015534,1.0373,0.81176,-0.064453,0.49169
10.8,-0.0097087,0.58039,0.36471,0.23047,0.49756
10.808,-0.0038835,-0.22745,-0.29216,0.74414,0.50342
10.816,0,-0.50196,-0.50196,1.2598,0.50831
10.824,0.0058252,-0.50196,-0.50196,1.5,0.5132
10.832,0.0097087,-0.50196,-0.50196,1.4434,0.51613
10.84,0.013592,-0.50196,-0.50196,1.1797,0.51808
10.848,0.017476,-0.50196,-0.092157,0.91406,0.52004
10.856,0.021359,-0.34706,0.22353,0.67578,0.52004
10.864,0.023301,0.013725,0.56078,0.46094,0.52004
10.872,0.027184,0.41569,0.8451,0.21484,0.51906
10.88,0.031068,0.75098,1.0922,0.025391,0.51906
10.888,0.03301,0.94706,1.2216,-0.10352,0.51808
10.896,0.036893,1.1314,1.3569,-0.16406,0.51711
10.904,0.038835,1.2824,1.4627,-0.19336,0.51515
10.912,0.042718,1.3216,1.4824,-0.20898,0.5132
10.92,0.046602,1.3373,1.4784,-0.21484,0.51222
10.928,0.050485,1.3431,1.4725,-0.21484,0.51026
10.936,0.056311,1.3529,1.4627,-0.22461,0.50831
10.944,0.062136,1.3529,1.4569,-0.22461,0.50538
10.952,0.067961,1.3569,1.4471,-0.22852,0.50244
10.96,0.073786,1.3569,1.4471,-0.22461,0.50049
10.968,0.07767,1.3627,1.4431,-0.23438,0.49756
10.976,0.083495,1.3725,1.4431,-0.24023,0.49365
10.984,0.087379,1.3824,1.4373,-0.24414,0.49071
10.992,0.093204,1.398,1.4431,-0.25977,0.4868
11,0.097087,1.4176,1.4431,-0.26953,0.48387
11.008,0.10097,1.4431,1.4471,-0.28906,0.47996
11.016,0.10291,1.4784,1.4627,-0.30859,0.47801
11.024,0.10485,1.5039,1.4824,-0.34375,0.47507
11.032,0.10874,1.5039,1.498,-0.38477,0.47214
11.04,0.11068,1.5039,1.5039,-0.44336,0.47019
11.048,0.11262,1.5039,1.5039,-0.48828,0.46725
11.056,0.11456,1.5039,1.5039,-0.49805,0.4653
11.064,0.11068,1.5039,1.5039,-0.49805,0.46334
11.072,0.1068,1.5039,1.5039,-0.49805,0.46139
11.08,0.099029,1.5039,1.5039,-0.49805,0.45846
11.088,0.091262,1.5039,1.5039,-0.49805,0.45552
11.096,0.07767,1.5039,1.5039,-0.49805,0.45259
11.104,0.064078,1.5039,1.4627,-0.44922,0.44868
11.112,0.04466,1.5039,1.3627,-0.35938,0.44575
11.12,0.027184,1.4078,1.2431,-0.2793,0.44184
11.128,0.0097087,1.2882,1.151,-0.20898,0.43891
11.136,-0.0097087,1.1961,1.0725,-0.1543,0.435
11.144,-0.029126,1.1059,1.0157,-0.10352,0.43206
11.152,-0.048544,1.051,0.98235,-0.070312,0.43011
11.16,-0.067961,1.0157,0.96078,-0.044922,0.42815
11.168,-0.085437,0.99216,0.95686,-0.025391,0.42717
11.176,-0.10485,0.97647,0.95098,-0.013672,0.4262
11.184,-0.12233,0.96078,0.95098,-0.0039062,0.42522
11.192,-0.13786,0.96078,0.95098,0,0.42424
11.2,-0.1534,0.95686,0.95098,0,0.42326
11.208,-0.16699,0.95098,0.94706,0,0.42326
11.216,-0.18058,0.95686,0.95098,0.0058594,0.42229
11.224,-0.19417,0.95686,0.95098,0,0.42131
11.232,-0.20583,0.95686,0.95686,0.0058594,0.42131
11.24,-0.21748,0.96078,0.95686,0.0058594,0.41935
11.248,-0.22718,0.96667,0.96078,0.0058594,0.41838
11.256,-0.23495,0.97059,0.95686,0,0.41642
11.264,-0.24272,0.96667,0.95098,0,0.41544
11.272,-0.24854,0.97059,0.95098,0,0.41447
11.28,-0.25437,0.96667,0.95098,0,0.41349
11.288,-0.25437,0.97059,0.95098,0,0.41251
11.296,-0.25631,0.96667,0.95098,0,0.41153
11.304,-0.25437,0.96667,0.95098,0,0.40958
11.312,-0.25049,0.95098,0.95098,0,0.4086
11.32,-0.24466,0.95686,0.95098,0,0.40665
11.328,-0.23689,0.95098,0.95098,0,0.40469
11.336,-0.22718,0.95686,0.95098,0,0.40274
11.344,-0.21748,0.95098,0.95098,0,0.40274
11.352,-0.20777,0.95686,0.95098,0,0.40176
11.36,-0.19612,0.95686,0.95098,0,0.40078
11.368,-0.18447,0.95686,0.95098,0,0.40078
11.376,-0.17282,0.96078,0.95098,0,0.40078
11.384,-0.16311,0.96667,0.95686,-0.0039062,0.40176
11.392,-0.1534,0.97647,0.97647,-0.0097656,0.40371
11.4,-0.14369,0.99608,1.002,-0.013672,0.40469
11.408,-0.13398,1.0059,1.0157,-0.013672,0.40762
11.416,-0.12427,1.002,1.0216,-0.0097656,0.41153
11.424,-0.11456,1.0118,1.002,-0.019531,0.41544
11.432,-0.1068,0.98235,0.95686,-0.0097656,0.42033
11.44,-0.097087,0.99216,0.92549,-0.025391,0.4262
11.448,-0.08932,0.97647,0.92549,-0.0097656,0.43109
11.456,-0.079612,0.95098,0.92157,0.0097656,0.43695
11.464,-0.071845,0.95686,0.93725,-0.0039062,0.44282
11.472,-0.064078,0.91176,0.92549,0.041016,0.44966
11.48,-0.056311,0.92549,0.93725,0.025391,0.45552
11.488,-0.048544,0.91569,0.93137,0.03125,0.46139
11.496,-0.040777,0.90196,0.92549,0.041016,0.46823
11.504,-0.03301,0.92157,0.93725,0.019531,0.47507
11.512,-0.025243,0.92549,0.92549,0.025391,0.47996
11.52,-0.017476,1.0059,0.92157,-0.039062,0.48583
11.528,-0.01165,1.0608,0.73137,-0.074219,0.49071
11.536,-0.0058252,0.4098,0.21373,0.35938,0.49658
11.544,0.0019417,-0.46863,-0.50196,0.92383,0.50147
11.552,0.007767,-0.50196,-0.50196,1.4395,0.50635
11.56,0.013592,-0.50196,-0.50196,1.5,0.51222
11.568,0.019417,-0.50196,-0.50196,1.4199,0.51613
11.576,0.021359,-0.50196,-0.34706,1.1602,0.51906
11.584,0.025243,-0.50196,0.068627,0.88867,0.52199
11.592,0.027184,-0.25686,0.39412,0.66406,0.52297
11.6,0.029126,0.14902,0.70588,0.41992,0.52395
11.608,0.027184,0.53922,0.96078,0.17969,0.52297
11.616,0.027184,0.81569,1.151,0.0097656,0.52199
11.624,0.025243,0.97647,1.2569,-0.083984,0.52004
11.632,0.023301,1.1863,1.398,-0.14844,0.51906
11.64,0.021359,1.2922,1.4529,-0.17969,0.51711
11.648,0.021359,1.3176,1.4569,-0.18945,0.51515
11.656,0.021359,1.3275,1.4471,-0.19336,0.5132
11.664,0.021359,1.3431,1.4471,-0.18359,0.51026
11.672,0.025243,1.3529,1.4275,-0.21484,0.50635
11.68,0.029126,1.3333,1.4235,-0.18945,0.50244
11.688,0.036893,1.3627,1.4176,-0.22461,0.50049
11.696,0.04466,1.3373,1.402,-0.19336,0.49756
11.704,0.058252,1.3725,1.398,-0.21875,0.49365
11.712,0.069903,1.3569,1.3922,-0.21484,0.48876
11.72,0.085437,1.3882,1.398,-0.24023,0.48485
11.728,0.10097,1.398,1.3922,-0.25,0.48094
11.736,0.12233,1.4431,1.398,-0.2793,0.47703
11.744,0.14369,1.4529,1.3922,-0.27344,0.47312
11.752,0.16893,1.498,1.398,-0.30859,0.47019
11.76,0.19417,1.5039,1.4118,-0.36328,0.46823
11.768,0.2233,1.5039,1.4235,-0.4043,0.46628
11.776,0.25243,1.5039,1.4569,-0.45898,0.46432
11.784,0.2835,1.5039,1.4824,-0.49805,0.46237
11.792,0.3165,1.5039,1.5039,-0.49805,0.45943
11.8,0.34369,1.5039,1.5039,-0.49805,0.45748
11.808,0.37087,1.5039,1.5039,-0.49805,0.45552
11.816,0.39612,1.5039,1.5039,-0.49805,0.45161
11.824,0.41942,1.5039,1.5039,-0.49805,0.44673
11.832,0.44078,1.5039,1.4686,-0.49805,0.44184
11.84,0.46019,1.5039,1.3784,-0.41992,0.43597
11.848,0.47767,1.498,1.2765,-0.31836,0.43206
11.856,0.49515,1.3627,1.1824,-0.24414,0.42815
11.864,0.51068,1.2373,1.102,-0.16406,0.42424
11.872,0.52816,1.1373,1.0373,-0.10352,0.42033
11.88,0.54369,1.0569,0.99608,-0.058594,0.4174
11.888,0.56117,1.0118,0.97647,-0.029297,0.41447
11.896,0.57864,0.97059,0.96078,0,0.41349
11.904,0.59417,0.95098,0.95098,0.015625,0.41251
11.912,0.61165,0.94118,0.95686,0.019531,0.41153
11.92,0.62913,0.93137,0.95098,0.019531,0.40958
11.928,0.6466,0.92549,0.95098,0.025391,0.4086
11.936,0.66408,0.92549,0.95098,0.03125,0.40665
11.944,0.6835,0.92549,0.95098,0.019531,0.40469
11.952,0.70097,0.93137,0.94706,0.025391,0.40274
11.96,0.72039,0.93725,0.94706,0.019531,0.40078
11.968,0.73981,0.93725,0.95098,0.019531,0.39785
11.976,0.76117,0.93725,0.94118,0.019531,0.39492
11.984,0.78252,0.93137,0.95098,0.025391,0.39101
11.992,0.80388,0.94118,0.94706,0.015625,0.3871
12,0.82524,0.95098,0.95098,0.0097656,0.38319
12.008,0.84854,0.94706,0.94118,0.0097656,0.38025
12.016,0.87184,0.95098,0.94706,0.0058594,0.37732
12.024,0.89515,0.95098,0.94118,0.0097656,0.37439
12.032,0.91845,0.94706,0.94706,0.0058594,0.37243
12.04,0.94175,0.95098,0.94118,0.0058594,0.3695
12.048,0.96505,0.94118,0.94118,0.0097656,0.36559
12.056,0.98835,0.94706,0.93725,0.0058594,0.36364
12.064,1.0117,0.94706,0.93725,0,0.36266
12.072,1.035,0.94706,0.94118,0,0.36168
12.08,1.0583,0.94706,0.94706,0,0.36168
12.088,1.0777,0.94706,0.94118,0,0.3607
12.096,1.099,0.95098,0.94706,-0.0039062,0.3607
12.104,1.1165,0.95686,0.94706,-0.0097656,0.3607
12.112,1.134,0.95686,0.96078,0,0.36168
12.12,1.1495,0.98627,0.98627,-0.019531,0.36266
12.128,1.167,1.002,1.002,-0.013672,0.36364
12.136,1.1806,0.99608,0.99608,-0.013672,0.36559
12.144,1.1961,1.002,0.98235,-0.019531,0.36755
12.152,1.2097,0.97647,0.94706,-0.013672,0.37048
12.16,1.2252,0.97647,0.92157,-0.025391,0.37341
12.168,1.2388,0.98235,0.92549,-0.025391,0.37732
12.176,1.2544,0.95098,0.92549,-0.0039062,0.38123
12.184,1.268,0.93725,0.91569,0,0.38612
12.192,1.2816,0.92549,0.92157,0.015625,0.39198
12.2,1.2951,0.91569,0.92549,0.019531,0.3998
12.208,1.3087,0.91176,0.92549,0.025391,0.40762
12.216,1.3223,0.91176,0.93137,0.019531,0.41642
12.224,1.3379,0.91569,0.92549,0.019531,0.42424
12.232,1.3515,0.93137,0.93137,0,0.43304
12.24,1.365,1.0059,0.91176,-0.054688,0.44184
12.248,1.3767,1.051,0.7098,-0.074219,0.45064
12.256,1.3903,0.30392,0.2098,0.40039,0.45846
12.264,1.4,-0.50196,-0.50196,0.94922,0.46725
12.272,1.4117,-0.50196,-0.50196,1.4531,0.4741
12.28,1.4175,-0.50196,-0.50196,1.5,0.47996
12.288,1.4252,-0.50196,-0.50196,1.4043,0.48583
12.296,1.4291,-0.50196,-0.34314,1.1289,0.49071
12.304,1.433,-0.50196,0.062745,0.84961,0.49462
12.312,1.433,-0.24706,0.3902,0.625,0.49658
12.32,1.433,0.1549,0.68627,0.39062,0.49951
12.328,1.4291,0.5549,0.95098,0.14453,0.50147
12.336,1.4252,0.84118,1.1471,-0.029297,0.50244
12.344,1.4175,1.0157,1.2667,-0.12891,0.50342
12.352,1.4097,1.2078,1.398,-0.17969,0.5044
12.36,1.4,1.3176,1.4569,-0.21484,0.5044
12.368,1.3883,1.3471,1.4627,-0.23438,0.50538
12.376,1.3767,1.3569,1.4569,-0.23438,0.50538
12.384,1.365,1.3627,1.4471,-0.23438,0.50538
12.392,1.3515,1.3725,1.4431,-0.24023,0.50538
12.4,1.3379,1.3725,1.4275,-0.24414,0.50538
12.408,1.3223,1.3784,1.4235,-0.24414,0.5044
12.416,1.3087,1.3784,1.4275,-0.25,0.5044
12.424,1.2913,1.3824,1.4176,-0.25391,0.5044
12.432,1.2757,1.3922,1.4118,-0.25977,0.5044
12.44,1.2583,1.402,1.4118,-0.26953,0.5044
12.448,1.2408,1.4235,1.4176,-0.2793,0.5044
12.456,1.2214,1.4471,1.4235,-0.29492,0.52688
12.464,1.2039,1.4725,1.4333,-0.31445,0.56012
12.472,1.1845,1.5039,1.4431,-0.33984,0.57771
12.48,1.165,1.5039,1.4569,-0.38477,0.58749
12.488,1.1456,1.5039,1.4824,-0.43359,0.59238
12.496,1.1282,1.5039,1.5039,-0.48438,0.59433
12.504,1.1068,1.5039,1.5039,-0.49805,0.59629
12.512,1.0874,1.5039,1.5039,-0.49805,0.59726
12.52,1.066,1.5039,1.5039,-0.49805,0.59726
12.528,1.0447,1.5039,1.5039,-0.49805,0.59726
12.536,1.0175,1.5039,1.5039,-0.49805,0.59726
12.544,0.99223,1.5039,1.5039,-0.49805,0.59629
12.552,0.96311,1.5039,1.502,-0.49805,0.59433
12.56,0.93398,1.5039,1.4078,-0.42383,0.5914
12.568,0.90097,1.4882,1.2922,-0.33398,0.58944
12.576,0.86796,1.3529,1.1922,-0.25391,0.58651
12.584,0.83301,1.2431,1.102,-0.18945,0.58456
12.592,0.79806,1.151,1.0373,-0.12891,0.58162
12.6,0.76117,1.0765,0.99216,-0.083984,0.57869
12.608,0.72427,1.0373,0.96667,-0.054688,0.5738
12.616,0.68932,0.99608,0.95098,-0.035156,0.56891
12.624,0.65243,0.97059,0.94118,-0.025391,0.56305
12.632,0.61553,0.96078,0.94706,-0.0097656,0.56012
12.64,0.58058,0.95098,0.93725,0,0.55914
12.648,0.54563,0.95098,0.94118,0,0.55718
12.656,0.51068,0.94118,0.93725,0,0.55523
12.664,0.47573,0.94118,0.95098,0,0.55425
12.672,0.44078,0.94706,0.94706,0,0.5523
12.68,0.40777,0.94118,0.95098,0,0.55034
12.688,0.37282,0.94706,0.94706,0,0.54839
12.696,0.34175,0.95098,0.95098,0,0.54448
12.704,0.31068,0.95686,0.95098,-0.0039062,0.53959
12.712,0.2835,0.95098,0.95686,0,0.53666
12.72,0.25437,0.95686,0.95098,0,0.53372
12.728,0.23107,0.95686,0.95098,0,0.53079
12.736,0.20777,0.95098,0.94706,0,0.52884
12.744,0.18835,0.95098,0.94706,0,0.52786
12.752,0.16893,0.95098,0.93725,-0.0039062,0.52688
12.76,0.15534,0.95098,0.94118,-0.0039062,0.52493
12.768,0.14175,0.95098,0.93725,0,0.52395
12.776,0.13204,0.94706,0.94118,0,0.52199
12.784,0.12233,0.95098,0.94118,-0.0039062,0.52004
12.792,0.11456,0.94118,0.94118,0,0.51906
12.8,0.10874,0.94706,0.94706,0,0.51808
12.808,0.10291,0.94118,0.93725,0,0.51711
12.816,0.099029,0.94706,0.94118,-0.0039062,0.51711
12.824,0.095146,0.95098,0.94706,-0.0097656,0.51711
12.832,0.091262,0.94706,0.95098,0,0.51711
12.84,0.087379,0.95098,0.94706,-0.0097656,0.51808
12.848,0.083495,0.95098,0.95686,-0.0039062,0.52199
12.856,0.079612,0.96667,0.97647,-0.013672,0.5259
12.864,0.07767,0.98235,1.002,-0.019531,0.53079
12.872,0.073786,0.99216,1.0059,-0.019531,0.53666
12.88,0.071845,0.99608,0.99216,-0.025391,0.5435
12.888,0.071845,0.97647,0.96078,-0.025391,0.5523
12.896,0.069903,0.97059,0.92549,-0.019531,0.55914
12.904,0.069903,0.97647,0.90588,-0.029297,0.56696
12.912,0.069903,0.95686,0.92549,-0.0097656,0.5738
12.92,0.067961,0.93137,0.91569,0.0058594,0.58162
12.928,0.067961,0.91176,0.92157,0.019531,0.58847
12.936,0.066019,0.90588,0.92549,0.025391,0.59531
12.944,0.064078,0.89608,0.92549,0.03125,0.60313
12.952,0.062136,0.90196,0.92549,0.035156,0.60997
12.96,0.062136,0.89608,0.92549,0.03125,0.61779
12.968,0.060194,0.90196,0.92157,0.035156,0.62659
12.976,0.058252,0.94118,0.92157,-0.0097656,0.63539
12.984,0.056311,1.0275,0.8451,-0.070312,0.64321
12.992,0.054369,0.72549,0.47059,0.13086,0.65005
13,0.054369,-0.072549,-0.11765,0.64062,0.65591
13.008,0.052427,-0.50196,-0.50196,1.1641,0.66178
13.016,0.052427,-0.50196,-0.50196,1.5,0.66667
13.024,0.050485,-0.50196,-0.50196,1.4941,0.67058
13.032,0.050485,-0.50196,-0.50196,1.2402,0.67253
13.04,0.048544,-0.50196,-0.17647,0.96875,0.67351
13.048,0.048544,-0.42745,0.1549,0.7207,0.67351
13.056,0.046602,-0.076471,0.48039,0.50977,0.67253
13.064,0.04466,0.32941,0.78627,0.26562,0.6696
13.072,0.04466,0.7,1.0373,0.054688,0.66569
13.08,0.042718,0.90196,1.1922,-0.080078,0.6608
13.088,0.042718,1.0824,1.3118,-0.1543,0.65689
13.096,0.040777,1.2529,1.4431,-0.17969,0.65298
13.104,0.040777,1.3078,1.4686,-0.20508,0.65005
13.112,0.040777,1.3275,1.4725,-0.21484,0.64712
13.12,0.042718,1.3373,1.4686,-0.21484,0.64418
13.128,0.04466,1.3471,1.4627,-0.21484,0.64125
13.136,0.046602,1.3471,1.4471,-0.22461,0.6393
13.144,0.048544,1.3471,1.4431,-0.22461,0.63636
13.152,0.052427,1.3529,1.4373,-0.22852,0.63441
13.16,0.054369,1.3529,1.4333,-0.23438,0.63245
13.168,0.056311,1.3667,1.4235,-0.24023,0.6305
13.176,0.058252,1.3725,1.4235,-0.24414,0.62757
13.184,0.060194,1.3882,1.4275,-0.25977,0.62366
13.192,0.060194,1.402,1.4275,-0.26953,0.61779
13.2,0.062136,1.4333,1.4333,-0.28516,0.61193
13.208,0.064078,1.4627,1.4431,-0.30469,0.60704
13.216,0.066019,1.5039,1.4686,-0.34375,0.60411
13.224,0.066019,1.5039,1.4824,-0.38477,0.6002
13.232,0.067961,1.5039,1.5039,-0.42969,0.59726
13.24,0.066019,1.5039,1.5039,-0.48438,0.59531
13.248,0.066019,1.5039,1.5039,-0.49805,0.59042
13.256,0.062136,1.5039,1.5039,-0.49805,0.58651
13.264,0.058252,1.5039,1.5039,-0.49805,0.5826
13.272,0.048544,1.5039,1.5039,-0.49805,0.57771
13.28,0.038835,1.5039,1.5039,-0.49805,0.57283
13.288,0.023301,1.5039,1.5039,-0.49805,0.56794
13.296,0.007767,1.5039,1.4686,-0.46484,0.56207
13.304,-0.0097087,1.5039,1.3569,-0.38477,0.55718
13.312,-0.027184,1.4235,1.2471,-0.29492,0.55327
13.32,-0.046602,1.3118,1.1471,-0.22461,0.55034
13.328,-0.066019,1.1961,1.0667,-0.16016,0.54741
13.336,-0.087379,1.1176,1.0059,-0.11523,0.54545
13.344,-0.1068,1.051,0.97059,-0.074219,0.5435
13.352,-0.12621,1.0157,0.94706,-0.048828,0.54154
13.36,-0.14563,0.98627,0.94118,-0.025391,0.53959
13.368,-0.16505,0.97059,0.93137,-0.025391,0.53861
13.376,-0.18447,0.95686,0.93137,-0.013672,0.53861
13.384,-0.20194,0.95098,0.93725,-0.0097656,0.53763
13.392,-0.21942,0.94706,0.93137,0,0.53666
13.4,-0.23301,0.94706,0.94118,0,0.53568
13.408,-0.24854,0.95098,0.93725,0,0.53372
13.416,-0.26214,0.95098,0.95098,0,0.53372
13.424,-0.27379,0.95098,0.94706,0,0.53275
13.432,-0.28544,0.95098,0.95098,0,0.53079
13.44,-0.29515,0.95686,0.94706,-0.0039062,0.52884
13.448,-0.30097,0.96078,0.95098,-0.0097656,0.5259
13.456,-0.30874,0.96078,0.94706,-0.0039062,0.52395
13.464,-0.31262,0.96078,0.95098,-0.0039062,0.52199
13.472,-0.31456,0.96078,0.94706,-0.0039062,0.52004
13.48,-0.31456,0.95686,0.95098,0,0.51906
13.488,-0.31456,0.96667,0.94706,-0.0039062,0.51711
13.496,-0.31068,0.95686,0.95098,-0.0039062,0.51515
13.504,-0.3068,0.95098,0.93725,-0.0039062,0.5132
13.512,-0.29903,0.95098,0.94118,0,0.51026
13.52,-0.2932,0.95686,0.93725,-0.0039062,0.50733
13.528,-0.2835,0.95098,0.93725,-0.0039062,0.50538
13.536,-0.27379,0.95098,0.93137,-0.0097656,0.50342
13.544,-0.26214,0.95098,0.93725,0,0.50244
13.552,-0.25049,0.95098,0.93725,-0.0039062,0.50147
13.56,-0.24078,0.95098,0.94118,0,0.50147
13.568,-0.23107,0.95098,0.94706,-0.0097656,0.50147
13.576,-0.22136,0.95686,0.95098,-0.0039062,0.50244
13.584,-0.20971,0.96078,0.96078,-0.0097656,0.50538
13.592,-0.2,0.97059,0.98235,-0.013672,0.51026
13.6,-0.19029,0.99608,1.002,-0.019531,0.51515
13.608,-0.18058,1.002,1.0157,-0.025391,0.52004
13.616,-0.17087,1.002,1.002,-0.019531,0.52786
13.624,-0.16311,0.98627,0.97059,-0.025391,0.53666
13.632,-0.1534,0.97647,0.93137,-0.019531,0.54643
13.64,-0.14369,0.98235,0.91569,-0.029297,0.55425
13.648,-0.13398,0.96667,0.92549,-0.0097656,0.56305
13.656,-0.12621,0.94706,0.92157,0,0.57087
13.664,-0.1165,0.92549,0.92157,0.019531,0.57869
13.672,-0.1068,0.91176,0.92157,0.015625,0.58847
13.68,-0.099029,0.90588,0.92157,0.025391,0.59922
13.688,-0.08932,0.90588,0.92549,0.03125,0.60997
13.696,-0.079612,0.90588,0.92549,0.025391,0.62072
13.704,-0.071845,0.91176,0.91569,0.019531,0.63245
13.712,-0.062136,0.94706,0.91569,-0.0097656,0.64321
13.72,-0.054369,1.0412,0.85686,-0.074219,0.65396
13.728,-0.04466,0.77647,0.4902,0.10547,0.66276
13.736,-0.038835,-0.011765,-0.11176,0.60938,0.67058
13.744,-0.031068,-0.50196,-0.50196,1.1387,0.6784
13.752,-0.023301,-0.50196,-0.50196,1.5,0.68426
13.76,-0.017476,-0.50196,-0.50196,1.4941,0.69013
13.768,-0.0097087,-0.50196,-0.50196,1.2402,0.69501
13.776,-0.0038835,-0.50196,-0.20784,0.96875,0.69795
13.784,0.0019417,-0.42353,0.13333,0.71484,0.6999
13.792,0.0058252,-0.076471,0.47451,0.51562,0.6999
13.8,0.01165,0.31961,0.77647,0.27539,0.70088
13.808,0.015534,0.69608,1.0275,0.060547,0.70088
13.816,0.021359,0.90196,1.1824,-0.080078,0.70088
13.824,0.027184,1.0667,1.3078,-0.14453,0.69795
13.832,0.03301,1.2529,1.4373,-0.17969,0.69501
13.84,0.038835,1.3216,1.4686,-0.21484,0.6911
13.848,0.04466,1.3275,1.4686,-0.20508,0.68817
13.856,0.050485,1.3431,1.4569,-0.21875,0.68426
13.864,0.056311,1.3529,1.4627,-0.21484,0.67937
13.872,0.062136,1.3569,1.4471,-0.22461,0.67449
13.88,0.067961,1.3529,1.4431,-0.21875,0.6696
13.888,0.073786,1.3667,1.4471,-0.23438,0.66373
13.896,0.079612,1.3569,1.4333,-0.21875,0.65982
13.904,0.085437,1.3824,1.4333,-0.24414,0.65494
13.912,0.08932,1.3784,1.4275,-0.23438,0.65103
13.92,0.095146,1.3725,1.4235,-0.24023,0.64614
13.928,0.097087,1.4078,1.4333,-0.26367,0.64321
13.936,0.10097,1.4275,1.4275,-0.25977,0.64027
13.944,0.10485,1.4627,1.4373,-0.29492,0.63734
13.952,0.10874,1.5039,1.4471,-0.34961,0.63441
13.96,0.11262,1.5039,1.4686,-0.37891,0.63148
13.968,0.1165,1.5039,1.4922,-0.41992,0.62854
13.976,0.1165,1.5039,1.5039,-0.48438,0.62659
13.984,0.11456,1.5039,1.5039,-0.49805,0.62366
13.992,0.1068,1.5039,1.5039,-0.49805,0.62072
14,0.10097,1.5039,1.5039,-0.49805,0.61877
14.008,0.085437,1.5039,1.5039,-0.49805,0.61779
14.016,0.069903,1.5039,1.5039,-0.49805,0.61486
14.024,0.050485,1.5039,1.5039,-0.49805,0.61095
14.032,0.029126,1.5039,1.4333,-0.45898,0.60704
14.04,0.007767,1.5039,1.3373,-0.36914,0.60313
14.048,-0.013592,1.4275,1.2373,-0.2793,0.6002
14.056,-0.034951,1.2882,1.1373,-0.19336,0.59726
14.064,-0.054369,1.1922,1.0725,-0.13477,0.59433
14.072,-0.069903,1.1118,1.0216,-0.089844,0.59238
14.08,-0.085437,1.0412,0.98627,-0.048828,0.58944
14.088,-0.097087,0.99216,0.96667,-0.013672,0.58651
14.096,-0.10874,0.97647,0.96078,-0.0039062,0.58358
14.104,-0.11456,0.96078,0.95686,0.0058594,0.58065
14.112,-0.12039,0.94706,0.96078,0.019531,0.57674
14.12,-0.12233,0.93725,0.95098,0.025391,0.57185
14.128,-0.12233,0.92549,0.95098,0.035156,0.56696
14.136,-0.11845,0.93725,0.95098,0.019531,0.56305
14.144,-0.11262,0.93137,0.95686,0.019531,0.56012
14.152,-0.10291,0.92549,0.95098,0.025391,0.55816
14.16,-0.093204,0.94118,0.96078,0.03125,0.55425
14.168,-0.07767,0.93137,0.95098,0.019531,0.55034
14.176,-0.062136,0.94118,0.95098,0.019531,0.54545
14.184,-0.040777,0.93725,0.95098,0.019531,0.54057
14.192,-0.019417,0.94706,0.95098,0.019531,0.53568
14.2,0.007767,0.93725,0.94706,0.019531,0.52981
14.208,0.034951,0.93137,0.94706,0.019531,0.5259
14.216,0.066019,0.93725,0.95098,0.015625,0.52395
14.224,0.099029,0.93137,0.94706,0.019531,0.52199
14.232,0.13398,0.93137,0.94118,0.019531,0.51808
14.24,0.17087,0.92549,0.94118,0.025391,0.5132
14.248,0.20971,0.93137,0.94118,0.015625,0.50831
14.256,0.24854,0.92549,0.93725,0.019531,0.50342
14.264,0.29126,0.93725,0.94118,0.015625,0.49853
14.272,0.33398,0.93725,0.93725,0.015625,0.49365
14.28,0.3767,0.93137,0.93137,0.019531,0.48974
14.288,0.42136,0.93725,0.92549,0.015625,0.4868
14.296,0.46408,0.93725,0.93137,0.015625,0.48485
14.304,0.50874,0.95098,0.93725,0.0058594,0.48387
14.312,0.55146,0.95686,0.96078,0,0.48387
14.32,0.59417,0.98235,0.98235,0,0.48485
14.328,0.63495,0.99216,0.99608,0,0.4868
14.336,0.67573,0.98627,0.98627,0,0.48974
14.344,0.71456,0.99216,0.97059,0,0.49462
14.352,0.75146,0.97059,0.92157,-0.0039062,0.49951
14.36,0.78641,0.98235,0.90588,-0.019531,0.5044
14.368,0.82136,0.97059,0.91176,-0.0097656,0.50929
14.376,0.85243,0.95098,0.90588,0,0.51515
14.384,0.88544,0.93137,0.90588,0.0097656,0.52297
14.392,0.91262,0.91569,0.91569,0.019531,0.53079
14.4,0.93981,0.91569,0.90588,0.025391,0.53959
14.408,0.96505,0.91176,0.91176,0.025391,0.54839
14.416,0.99029,0.91176,0.91569,0.019531,0.55523
14.424,1.0117,0.92157,0.91569,0.019531,0.56207
14.432,1.035,0.94118,0.90588,0,0.56891
14.44,1.0544,1.0275,0.87647,-0.058594,0.57674
14.448,1.0738,1.0667,0.65098,-0.080078,0.58456
14.456,1.0913,0.21961,0.14902,0.46484,0.59238
14.464,1.1087,-0.50196,-0.50196,1.0391,0.6002
14.472,1.1243,-0.50196,-0.50196,1.5,0.60802
14.48,1.1398,-0.50196,-0.50196,1.5,0.61584
14.488,1.1553,-0.50196,-0.50196,1.3984,0.62366
14.496,1.1689,-0.50196,-0.27255,1.1152,0.6305
14.504,1.1825,-0.50196,0.10392,0.82422,0.63539
14.512,1.1961,-0.18627,0.42549,0.60547,0.63832
14.52,1.2078,0.21373,0.7098,0.35938,0.6393
14.528,1.2194,0.6098,0.96078,0.12109,0.64027
14.536,1.2311,0.88039,1.1412,-0.048828,0.61877
14.544,1.2408,1.0471,1.2627,-0.14844,0.58651
14.552,1.2505,1.2529,1.3882,-0.20508,0.56891
14.56,1.2621,1.3431,1.4373,-0.24023,0.55816
14.568,1.2718,1.3667,1.4431,-0.25391,0.5523
14.576,1.2816,1.3784,1.4373,-0.25391,0.54936
14.584,1.2913,1.3824,1.4275,-0.25,0.54741
14.592,1.301,1.3824,1.4235,-0.25391,0.54643
14.6,1.3107,1.3922,1.4176,-0.25977,0.54545
14.608,1.3204,1.398,1.402,-0.25977,0.54545
14.616,1.3282,1.398,1.4078,-0.25977,0.54643
14.624,1.3359,1.398,1.402,-0.26367,0.54839
14.632,1.3398,1.4078,1.398,-0.27344,0.54936
14.64,1.3456,1.4235,1.402,-0.28516,0.55034
14.648,1.3476,1.4431,1.402,-0.29883,0.55132
14.656,1.3495,1.4627,1.402,-0.31445,0.5523
14.664,1.3495,1.4922,1.4176,-0.33008,0.55132
14.672,1.3495,1.5039,1.4275,-0.36328,0.55034
14.68,1.3456,1.5039,1.4471,-0.4082,0.55034
14.688,1.3417,1.5039,1.4686,-0.45312,0.54936
14.696,1.3359,1.5039,1.5039,-0.49805,0.54839
14.704,1.3301,1.5039,1.5039,-0.49805,0.54741
14.712,1.3184,1.5039,1.5039,-0.49805,0.54643
14.72,1.3068,1.5039,1.5039,-0.49805,0.54545
14.728,1.2913,1.5039,1.5039,-0.49805,0.54448
14.736,1.2738,1.5039,1.5039,-0.49805,0.54448
14.744,1.2485,1.5039,1.5039,-0.49805,0.54545
14.752,1.2252,1.5039,1.4725,-0.49805,0.54643
14.76,1.1961,1.5039,1.3784,-0.42969,0.54741
14.768,1.167,1.4922,1.2667,-0.34375,0.54741
14.776,1.134,1.3569,1.1667,-0.25977,0.54839
14.784,1.1029,1.2431,1.0824,-0.19336,0.54839
14.792,1.068,1.151,1.0157,-0.13477,0.54839
14.8,1.035,1.0824,0.98235,-0.09375,0.54936
14.808,1,1.0373,0.95686,-0.064453,0.54936
14.816,0.96505,1.002,0.94706,-0.044922,0.55034
14.824,0.9301,0.98235,0.94706,-0.029297,0.5523
14.832,0.89515,0.97647,0.94118,-0.025391,0.55425
14.84,0.86214,0.96667,0.94118,-0.013672,0.55523
14.848,0.82718,0.96667,0.94118,-0.019531,0.55523
14.856,0.79223,0.95686,0.93725,-0.0097656,0.55523
14.864,0.75922,0.95686,0.94706,-0.013672,0.55523
14.872,0.72621,0.96078,0.94706,-0.0097656,0.55523
14.88,0.6932,0.96078,0.95098,-0.0097656,0.55425
14.888,0.66214,0.96078,0.95098,-0.0097656,0.55425
14.896,0.62913,0.96078,0.95098,-0.0097656,0.55327
14.904,0.6,0.96667,0.94706,-0.0097656,0.55327
14.912,0.57282,0.96667,0.95098,-0.0039062,0.5523
14.92,0.54563,0.97059,0.95098,-0.013672,0.55034
14.928,0.52039,0.96667,0.95098,-0.0039062,0.54839
14.936,0.49709,0.96078,0.95098,-0.0039062,0.54643
14.944,0.47573,0.95098,0.95098,0,0.54545
14.952,0.45631,0.96667,0.94706,-0.0039062,0.5435
14.96,0.43689,0.95686,0.94706,0,0.54154
14.968,0.41942,0.95098,0.94118,0,0.53861
14.976,0.40388,0.95686,0.94706,-0.0039062,0.53763
14.984,0.39223,0.95098,0.93725,0,0.53666
14.992,0.37864,0.95098,0.94118,0,0.53666
15,0.36893,0.95098,0.94706,0,0.53666
15.008,0.35728,0.95098,0.94118,0,0.53763
15.016,0.34757,0.95098,0.94706,0,0.53861
15.024,0.33981,0.95098,0.94118,-0.0039062,0.54057
15.032,0.3301,0.95098,0.94118,0,0.54252
15.04,0.32039,0.95098,0.94706,-0.0039062,0.54545
15.048,0.31262,0.95686,0.95098,-0.0097656,0.54839
15.056,0.30291,0.96078,0.96078,-0.0097656,0.55132
15.064,0.29515,0.97647,0.98235,-0.019531,0.55523
15.072,0.28738,1.002,1.002,-0.025391,0.56012
15.08,0.27961,1.002,1.0118,-0.019531,0.565
15.088,0.27379,1.002,0.99216,-0.025391,0.57185
15.096,0.26602,0.98235,0.96078,-0.025391,0.57967
15.104,0.26019,0.98235,0.92549,-0.029297,0.58847
15.112,0.25437,0.97647,0.92157,-0.029297,0.59922
15.12,0.24854,0.96078,0.92157,-0.0097656,0.61095
15.128,0.24272,0.93725,0.92157,0.0058594,0.62268
15.136,0.23689,0.91569,0.92157,0.015625,0.63441
15.144,0.23301,0.90588,0.92549,0.025391,0.64516
15.152,0.22718,0.90588,0.92157,0.03125,0.65396
15.16,0.2233,0.90588,0.92549,0.03125,0.66178
15.168,0.21942,0.90588,0.92549,0.025391,0.67155
15.176,0.21553,0.91176,0.92549,0.019531,0.68231
15.184,0.21359,0.95686,0.91569,-0.013672,0.69208
15.192,0.20971,1.0373,0.83137,-0.064453,0.70088
15.2,0.20777,0.64118,0.4098,0.18945,0.71065
15.208,0.20388,-0.17255,-0.20784,0.70898,0.71945
15.216,0.20194,-0.50196,-0.50196,1.2285,0.72825
15.224,0.19612,-0.50196,-0.50196,1.5,0.73412
15.232,0.19223,-0.50196,-0.50196,1.4648,0.73803
15.24,0.18835,-0.50196,-0.50196,1.2051,0.73998
15.248,0.18252,-0.50196,-0.11765,0.93555,0.739
15.256,0.1767,-0.37843,0.2,0.68945,0.73705
15.264,0.17282,-0.015686,0.52941,0.48438,0.73412
15.272,0.16699,0.39412,0.82157,0.23047,0.73216
15.28,0.16117,0.74118,1.0667,0.025391,0.72923
15.288,0.15534,0.93725,1.202,-0.099609,0.7263
15.296,0.14951,1.1118,1.3373,-0.16016,0.72336
15.304,0.14563,1.2725,1.4471,-0.18359,0.71945
15.312,0.14175,1.3176,1.4686,-0.19922,0.71652
15.32,0.13786,1.3373,1.4686,-0.21484,0.71163
15.328,0.13592,1.3431,1.4686,-0.21484,0.70674
15.336,0.13592,1.3529,1.4529,-0.21875,0.6999
15.344,0.13398,1.3529,1.4471,-0.21875,0.69208
15.352,0.13398,1.3529,1.4373,-0.22461,0.68328
15.36,0.13398,1.3569,1.4333,-0.22461,0.67546
15.368,0.13398,1.3627,1.4275,-0.23438,0.66764
15.376,0.13398,1.3725,1.4235,-0.23438,0.65982
15.384,0.13398,1.3784,1.4275,-0.24414,0.65298
15.392,0.13398,1.3922,1.4235,-0.25391,0.64712
15.4,0.13204,1.4176,1.4333,-0.26953,0.64321
15.408,0.13204,1.4431,1.4373,-0.28906,0.63832
15.416,0.1301,1.4725,1.4471,-0.30859,0.63343
15.424,0.1301,1.5039,1.4686,-0.33984,0.62757
15.432,0.12816,1.5039,1.4882,-0.38477,0.62268
15.44,0.12816,1.5039,1.5039,-0.43359,0.61877
15.448,0.12427,1.5039,1.5039,-0.48828,0.61486
15.456,0.12039,1.5039,1.5039,-0.49805,0.61193
15.464,0.11456,1.5039,1.5039,-0.49805,0.60802
15.472,0.10874,1.5039,1.5039,-0.49805,0.60313
15.48,0.097087,1.5039,1.5039,-0.49805,0.59922
15.488,0.085437,1.5039,1.5039,-0.49805,0.59433
15.496,0.069903,1.5039,1.5039,-0.49805,0.58847
15.504,0.054369,1.5039,1.4627,-0.45898,0.5826
15.512,0.034951,1.5039,1.3569,-0.36914,0.57674
15.52,0.017476,1.4118,1.2431,-0.28516,0.57087
15.528,-0.0038835,1.2882,1.1471,-0.20898,0.565
15.536,-0.025243,1.1922,1.0608,-0.1543,0.55914
15.544,-0.046602,1.1118,1.0118,-0.10352,0.55523
15.552,-0.067961,1.051,0.97059,-0.074219,0.55132
15.56,-0.08932,1.0118,0.95686,-0.044922,0.54839
15.568,-0.10874,0.98627,0.94706,-0.029297,0.54545
15.576,-0.12816,0.96667,0.93725,-0.013672,0.5435
15.584,-0.14757,0.95686,0.93137,-0.0039062,0.54154
15.592,-0.16505,0.95098,0.93725,-0.0097656,0.53861
15.6,-0.18252,0.95686,0.93137,0,0.53568
15.608,-0.19806,0.95098,0.93725,0,0.53275
15.616,-0.21359,0.95098,0.93725,0,0.52981
15.624,-0.22718,0.95098,0.93725,0,0.52688
15.632,-0.24272,0.95098,0.94118,0.0058594,0.52395
15.64,-0.25243,0.95098,0.94706,0,0.52102
15.648,-0.26408,0.95098,0.94706,0.0058594,0.51808
15.656,-0.27379,0.95686,0.94706,0,0.51515
15.664,-0.28155,0.96078,0.95098,0,0.51222
15.672,-0.28738,0.96667,0.94706,-0.0039062,0.50929
15.68,-0.2932,0.96667,0.94118,-0.0039062,0.50733
15.688,-0.29515,0.96078,0.93725,0,0.5044
15.696,-0.29709,0.96078,0.94706,0,0.50049
15.704,-0.2932,0.95686,0.94118,-0.0039062,0.49756
15.712,-0.29126,0.95686,0.94118,0,0.49365
15.72,-0.2835,0.95686,0.93725,-0.0039062,0.49071
15.728,-0.27767,0.95098,0.94118,0,0.48778
15.736,-0.26796,0.95686,0.94118,0,0.48485
15.744,-0.25825,0.95098,0.94118,0,0.48192
15.752,-0.24854,0.95686,0.93725,-0.0039062,0.47898
15.76,-0.23689,0.95098,0.94118,0,0.47703
15.768,-0.22718,0.95098,0.93725,-0.0039062,0.47801
15.776,-0.21553,0.95686,0.94118,-0.0097656,0.47996
15.784,-0.20583,0.96078,0.94706,-0.013672,0.48289
15.792,-0.19417,0.97059,0.96078,-0.0097656,0.48485
15.8,-0.18447,0.98627,0.98627,-0.025391,0.48778
15.808,-0.17476,1.002,1.002,-0.025391,0.49267
15.816,-0.16699,1.0059,1.0118,-0.025391,0.49951
15.824,-0.15728,1.002,0.98627,-0.025391,0.50733
15.832,-0.14951,0.99216,0.95098,-0.025391,0.51613
15.84,-0.14175,0.99216,0.92157,-0.029297,0.52786
15.848,-0.13398,0.98627,0.91569,-0.025391,0.54057
15.856,-0.12427,0.96667,0.91569,-0.0097656,0.5523
15.864,-0.1165,0.94118,0.92157,0.0058594,0.565
15.872,-0.10874,0.92157,0.92157,0.019531,0.57674
15.88,-0.099029,0.91569,0.92157,0.019531,0.58944
15.888,-0.091262,0.91176,0.92157,0.025391,0.60215
15.896,-0.081553,0.90588,0.92549,0.019531,0.61486
15.904,-0.073786,0.90588,0.92549,0.025391,0.62854
15.912,-0.064078,0.92157,0.91569,0.015625,0.64321
15.92,-0.056311,0.97647,0.90588,-0.035156,0.65591
15.928,-0.048544,1.0314,0.78627,-0.064453,0.66862
15.936,-0.040777,0.52941,0.3098,0.26562,0.68035
15.944,-0.034951,-0.29804,-0.37255,0.78516,0.6911
15.952,-0.027184,-0.50196,-0.50196,1.2949,0.70088
15.96,-0.021359,-0.50196,-0.50196,1.5,0.70968
15.968,-0.015534,-0.50196,-0.50196,1.4199,0.71652
15.976,-0.0097087,-0.50196,-0.50196,1.1543,0.72336
15.984,-0.0038835,-0.50196,-0.082353,0.88867,0.72727
15.992,0.0019417,-0.31765,0.2451,0.6543,0.73021
16,0.0058252,0.052941,0.57451,0.43945,0.73216
16.008,0.0097087,0.4549,0.86078,0.18945,0.73412
16.016,0.013592,0.77647,1.0922,0.0058594,0.73314
16.024,0.017476,0.96078,1.2275,-0.10938,0.73118
16.032,0.021359,1.1412,1.3667,-0.16406,0.72825
16.04,0.027184,1.2824,1.4569,-0.18945,0.72532
16.048,0.03301,1.3176,1.4686,-0.20508,0.72043
16.056,0.038835,1.3373,1.4686,-0.21484,0.71457
16.064,0.04466,1.3431,1.4627,-0.21484,0.70968
16.072,0.050485,1.3471,1.4529,-0.21484,0.70381
16.08,0.058252,1.3471,1.4471,-0.21875,0.69892
16.088,0.064078,1.3529,1.4431,-0.22852,0.69306
16.096,0.069903,1.3569,1.4333,-0.23438,0.68817
16.104,0.073786,1.3667,1.4333,-0.23438,0.68231
16.112,0.079612,1.3667,1.4333,-0.24023,0.67742
16.12,0.083495,1.3784,1.4275,-0.24414,0.6696
16.128,0.08932,1.3882,1.4275,-0.25,0.66276
16.136,0.093204,1.402,1.4275,-0.26367,0.65689
16.144,0.097087,1.4569,1.4471,-0.30469,0.652
16.152,0.10097,1.4882,1.4529,-0.31445,0.64809
16.16,0.10485,1.5039,1.4686,-0.33984,0.64516
16.168,0.1068,1.5039,1.4882,-0.39453,0.64125
16.176,0.11068,1.5039,1.5039,-0.44922,0.63734
16.184,0.11262,1.5039,1.5039,-0.49805,0.63343
16.192,0.11456,1.5039,1.5039,-0.49805,0.62952
16.2,0.11262,1.5039,1.5039,-0.49805,0.62463
16.208,0.11068,1.5039,1.5039,-0.49805,0.62072
16.216,0.10485,1.5039,1.5039,-0.49805,0.61486
16.224,0.097087,1.5039,1.5039,-0.49805,0.60899
16.232,0.083495,1.5039,1.5039,-0.49805,0.60411
16.24,0.071845,1.5039,1.4235,-0.43359,0.59922
16.248,0.054369,1.5039,1.3176,-0.35938,0.59433
16.256,0.036893,1.3882,1.2078,-0.26953,0.58847
16.264,0.015534,1.2667,1.1216,-0.19336,0.5826
16.272,-0.0058252,1.1667,1.0412,-0.13477,0.57674
16.28,-0.027184,1.0863,1.0059,-0.080078,0.57087
16.288,-0.050485,1.0373,0.97647,-0.048828,0.565
16.296,-0.073786,0.99216,0.96078,-0.019531,0.55914
16.304,-0.097087,0.97647,0.95098,-0.013672,0.55523
16.312,-0.11845,0.94118,0.95686,0.019531,0.5523
16.32,-0.14175,0.92549,0.94706,0.025391,0.55132
16.328,-0.16117,0.91176,0.95098,0.044922,0.55034
16.336,-0.18058,0.94706,0.95098,0.0097656,0.55034
16.344,-0.19612,0.95098,0.95686,0.019531,0.55034
16.352,-0.21165,0.93137,0.94118,0.03125,0.54936
16.36,-0.22524,0.92549,0.95098,0.035156,0.54741
16.368,-0.23689,0.94118,0.95686,0.019531,0.54448
16.376,-0.24272,0.92157,0.95098,0.041016,0.54154
16.384,-0.24854,0.94118,0.96078,0.019531,0.53861
16.392,-0.25049,0.94706,0.97059,0.015625,0.53568
16.4,-0.25049,0.93725,0.95098,0.025391,0.53275
16.408,-0.24466,0.92549,0.95686,0.019531,0.52981
16.416,-0.23689,0.93725,0.95098,0.035156,0.52786
16.424,-0.2233,0.91569,0.94706,0.041016,0.5259
16.432,-0.20971,0.93137,0.95098,0.019531,0.52297
16.44,-0.18641,0.92549,0.94706,0.015625,0.51906
16.448,-0.16505,0.92549,0.94118,0.03125,0.51515
16.456,-0.13592,0.93725,0.94118,0.019531,0.50929
16.464,-0.1068,0.92157,0.93725,0.035156,0.5044
16.472,-0.069903,0.92549,0.93725,0.019531,0.49853
16.48,-0.034951,0.93137,0.94118,0.015625,0.49267
16.488,0.007767,0.94118,0.94706,0.019531,0.4868
16.496,0.048544,0.93137,0.94118,0.015625,0.48289
16.504,0.091262,0.93725,0.94118,0.019531,0.47898
16.512,0.13592,0.94706,0.95098,0.0097656,0.47703
16.52,0.18058,0.95686,0.97647,0.0097656,0.47605
16.528,0.22718,0.97647,1.002,0.0097656,0.47801
16.536,0.27184,0.98235,1.002,0.0097656,0.47996
16.544,0.3165,0.98235,0.99216,0.0058594,0.48192
16.552,0.36117,0.96078,0.94706,0.0097656,0.48485
16.56,0.40583,0.96078,0.90588,0,0.48974
16.568,0.44854,0.96667,0.90196,-0.0039062,0.49658
16.576,0.49126,0.95098,0.90588,0.0058594,0.5044
16.584,0.53398,0.92549,0.90196,0.019531,0.4868
16.592,0.5767,0.90588,0.90588,0.03125,0.45748
16.6,0.61748,0.90588,0.90588,0.035156,0.44868
16.608,0.66019,0.89608,0.90196,0.044922,0.45161
16.616,0.70097,0.90196,0.90588,0.041016,0.45748
16.624,0.74175,0.90588,0.91176,0.035156,0.4653
16.632,0.78252,0.90196,0.90588,0.041016,0.47312
16.64,0.8233,0.95098,0.90196,0,0.48289
16.648,0.86408,1.0471,0.81176,-0.058594,0.49365
16.656,0.90485,0.70588,0.46078,0.17969,0.50342
16.664,0.94369,-0.17647,-0.060784,0.75391,0.51222
16.672,0.98252,-0.50196,-0.50196,1.3398,0.51906
16.68,1.0175,-0.50196,-0.50196,1.5,0.5259
16.688,1.0544,-0.50196,-0.50196,1.5,0.53079
16.696,1.0874,-0.50196,-0.50196,1.3242,0.5347
16.704,1.1204,-0.50196,-0.056863,1.0293,0.53861
16.712,1.1495,-0.41176,0.25882,0.75391,0.54057
16.72,1.1806,-0.015686,0.56471,0.51953,0.53959
16.728,1.2058,0.3902,0.82549,0.26562,0.53861
16.736,1.2311,0.7451,1.0412,0.044922,0.53861
16.744,1.2544,0.94706,1.1765,-0.089844,0.53763
16.752,1.2757,1.1275,1.2882,-0.17383,0.53666
16.76,1.2932,1.298,1.398,-0.21875,0.53275
16.768,1.3107,1.3529,1.4118,-0.25,0.52786
16.776,1.3262,1.3725,1.4118,-0.25,0.52297
16.784,1.3417,1.3784,1.4078,-0.25977,0.51711
16.792,1.3534,1.3824,1.398,-0.25977,0.51222
16.8,1.367,1.3882,1.3882,-0.25977,0.50635
16.808,1.3786,1.3922,1.3824,-0.26367,0.50049
16.816,1.3903,1.398,1.3784,-0.26953,0.4956
16.824,1.4,1.398,1.3784,-0.27344,0.48974
16.832,1.4097,1.4078,1.3784,-0.2793,0.48583
16.84,1.4175,1.4235,1.3725,-0.28516,0.48289
16.848,1.4272,1.4333,1.3784,-0.29492,0.47996
16.856,1.433,1.4569,1.3784,-0.30859,0.47703
16.864,1.4408,1.4824,1.3882,-0.33008,0.4741
16.872,1.4485,1.5039,1.398,-0.35938,0.46921
16.88,1.4544,1.5039,1.4118,-0.38867,0.46432
16.888,1.4583,1.5039,1.4275,-0.43359,0.46041
16.896,1.4641,1.5039,1.4569,-0.48828,0.4565
16.904,1.466,1.5039,1.4882,-0.49805,0.45357
16.912,1.468,1.5039,1.5039,-0.49805,0.45161
16.92,1.466,1.5039,1.5039,-0.49805,0.45161
16.928,1.4641,1.5039,1.5039,-0.49805,0.45064
16.936,1.4563,1.5039,1.5039,-0.49805,0.44966
16.944,1.4485,1.5039,1.5039,-0.49805,0.44966
16.952,1.435,1.5039,1.502,-0.49805,0.44868
16.96,1.4233,1.5039,1.4176,-0.49414,0.4477
16.968,1.4039,1.5039,1.3118,-0.39844,0.44575
16.976,1.3864,1.4275,1.2118,-0.30469,0.44282
16.984,1.365,1.302,1.1176,-0.22852,0.44086
16.992,1.3437,1.1961,1.0471,-0.16406,0.43988
17,1.3204,1.1216,1.002,-0.11914,0.43988
17.008,1.2971,1.0608,0.97059,-0.080078,0.43988
17.016,1.2699,1.0157,0.94706,-0.054688,0.44086
17.024,1.2447,0.98627,0.94118,-0.035156,0.44184
17.032,1.2155,0.97647,0.93725,-0.019531,0.44184
17.04,1.1864,0.96667,0.93725,-0.013672,0.44184
17.048,1.1553,0.96078,0.94118,-0.0097656,0.44282
17.056,1.1223,0.95686,0.94118,-0.0097656,0.44477
17.064,1.0893,0.96078,0.93725,-0.0097656,0.44673
17.072,1.0563,0.96078,0.93725,-0.0097656,0.44868
17.08,1.0214,0.95686,0.94118,-0.0039062,0.44966
17.088,0.98835,0.96078,0.94118,-0.0039062,0.45064
17.096,0.9534,0.96667,0.94706,-0.0097656,0.45064
17.104,0.92039,0.97059,0.94706,-0.0097656,0.45064
17.112,0.88738,0.97059,0.94706,-0.0097656,0.44966
17.12,0.85631,0.97647,0.94118,-0.013672,0.44966
17.128,0.82524,0.96667,0.94706,-0.0097656,0.44966
17.136,0.79417,0.97059,0.94118,-0.013672,0.45064
17.144,0.76893,0.97059,0.94706,-0.013672,0.45064
17.152,0.74175,0.97059,0.94706,-0.0097656,0.45064
17.16,0.72039,0.96078,0.94706,0,0.44966
17.168,0.69709,0.96078,0.94118,-0.0097656,0.44966
17.176,0.67961,0.95686,0.94706,-0.0039062,0.44966
17.184,0.66214,0.96667,0.93725,-0.0097656,0.45064
17.192,0.64854,0.96078,0.94118,-0.0039062,0.45064
17.2,0.63495,0.96078,0.93725,-0.0097656,0.45161
17.208,0.6233,0.96078,0.94118,-0.0097656,0.45259
17.216,0.61165,0.96078,0.93725,-0.0097656,0.45259
17.224,0.60194,0.95686,0.94118,-0.0039062,0.45455
17.232,0.59223,0.96078,0.94706,-0.0097656,0.45748
17.24,0.58252,0.96078,0.94118,-0.0097656,0.46139
17.248,0.57282,0.96667,0.95098,-0.0097656,0.4653
17.256,0.56311,0.96667,0.95098,-0.0097656,0.47019
17.264,0.5534,0.97059,0.96078,-0.013672,0.47605
17.272,0.54369,0.97647,0.98235,-0.019531,0.48387
17.28,0.53398,1.002,1.002,-0.025391,0.49365
17.288,0.52621,1.0118,1.0059,-0.025391,0.5044
17.296,0.51845,1.002,1.0118,-0.019531,0.51515
17.304,0.50874,0.99216,0.98235,-0.025391,0.5259
17.312,0.50097,0.97647,0.94706,-0.029297,0.53568
17.32,0.4932,0.98235,0.92549,-0.029297,0.54448
17.328,0.48544,0.96667,0.93137,-0.019531,0.55327
17.336,0.47573,0.95098,0.92157,-0.0039062,0.565
17.344,0.46796,0.93137,0.92549,0.0097656,0.57576
17.352,0.46019,0.92157,0.92549,0.019531,0.58651
17.36,0.45049,0.91176,0.92549,0.025391,0.59629
17.368,0.44272,0.91176,0.92549,0.019531,0.60411
17.376,0.43301,0.91569,0.93725,0.019531,0.6129
17.384,0.4233,0.91569,0.93137,0.019531,0.6217
17.392,0.41553,0.95098,0.93137,-0.0039062,0.62952
17.4,0.40583,1.0314,0.8902,-0.070312,0.63734
17.408,0.39612,0.8451,0.57451,0.060547,0.64516
17.416,0.38641,0.084314,-0.0019608,0.54492,0.652
17.424,0.3767,-0.50196,-0.50196,1.0801,0.65787
17.432,0.36699,-0.50196,-0.50196,1.498,0.66373
17.44,0.35728,-0.50196,-0.50196,1.5,0.66862
17.448,0.34951,-0.50196,-0.50196,1.2793,0.67058
17.456,0.34175,-0.50196,-0.23725,1.0137,0.67155
17.464,0.33398,-0.45686,0.11373,0.75391,0.67155
17.472,0.32621,-0.12745,0.4451,0.54492,0.66862
17.48,0.3165,0.27451,0.75098,0.31055,0.66471
17.488,0.30874,0.66078,1.0059,0.076172,0.66178
17.496,0.30097,0.88039,1.1725,-0.064453,0.65885
17.504,0.29515,1.0569,1.2882,-0.1543,0.65591
17.512,0.28738,1.2431,1.4333,-0.17969,0.65298
17.52,0.28155,1.3176,1.4627,-0.20508,0.64907
17.528,0.27573,1.3333,1.4686,-0.21484,0.64418
17.536,0.2699,1.3529,1.4686,-0.21875,0.63832
17.544,0.26602,1.3529,1.4627,-0.21875,0.63245
17.552,0.26214,1.3569,1.4471,-0.22461,0.62561
17.56,0.25825,1.3627,1.4471,-0.22461,0.61877
17.568,0.25631,1.3667,1.4333,-0.22852,0.6129
17.576,0.25631,1.3667,1.4333,-0.22461,0.60704
17.584,0.25437,1.3784,1.4275,-0.23438,0.60215
17.592,0.25243,1.3784,1.4333,-0.24023,0.59629
17.6,0.25049,1.3922,1.4235,-0.25,0.59042
17.608,0.2466,1.4078,1.4275,-0.26367,0.58456
17.616,0.24272,1.4373,1.4373,-0.28516,0.57771
17.624,0.23883,1.4686,1.4471,-0.30469,0.56989
17.632,0.23495,1.5039,1.4569,-0.33398,0.56403
17.64,0.22913,1.5039,1.4784,-0.36914,0.55816
17.648,0.22524,1.5039,1.5039,-0.41992,0.55327
17.656,0.21942,1.5039,1.5039,-0.46875,0.54643
17.664,0.21359,1.5039,1.5039,-0.49805,0.54057
17.672,0.20388,1.5039,1.5039,-0.49805,0.53568
17.68,0.19612,1.5039,1.5039,-0.49805,0.53079
17.688,0.18252,1.5039,1.5039,-0.49805,0.5259
17.696,0.16893,1.5039,1.5039,-0.49805,0.52004
17.704,0.15146,1.5039,1.5039,-0.49805,0.51515
17.712,0.13204,1.5039,1.498,-0.48438,0.50929
17.72,0.11262,1.5039,1.3882,-0.39844,0.5044
17.728,0.091262,1.4627,1.2765,-0.30859,0.50049
17.736,0.067961,1.3373,1.1725,-0.24023,0.49658
17.744,0.046602,1.2275,1.0922,-0.17383,0.49169
17.752,0.023301,1.1471,1.0275,-0.11914,0.4868
17.76,0,1.0765,0.98627,-0.080078,0.48192
17.768,-0.023301,1.0314,0.96078,-0.058594,0.47703
17.776,-0.046602,0.99608,0.95098,-0.035156,0.47312
17.784,-0.067961,0.98235,0.94118,-0.025391,0.47019
17.792,-0.08932,0.96667,0.93725,-0.013672,0.46725
17.8,-0.1068,0.96078,0.92549,-0.0097656,0.46432
17.808,-0.12621,0.95686,0.93137,0,0.46139
17.816,-0.14369,0.95686,0.93725,0,0.45943
17.824,-0.16117,0.95098,0.94118,0,0.4565
17.832,-0.1767,0.95098,0.94706,0,0.45455
17.84,-0.19029,0.95686,0.94706,0,0.45259
17.848,-0.20388,0.96078,0.95098,0,0.45161
17.856,-0.21748,0.96078,0.95098,0,0.45064
17.864,-0.22718,0.96078,0.95098,0,0.44868
17.872,-0.23883,0.96667,0.94706,-0.0039062,0.44575
17.88,-0.24466,0.96667,0.95098,-0.0097656,0.44379
17.888,-0.25243,0.97059,0.94706,-0.0039062,0.44184
17.896,-0.25437,0.96667,0.94118,-0.0039062,0.43891
17.904,-0.25825,0.96667,0.94118,-0.0039062,0.435
17.912,-0.25825,0.96667,0.94118,0,0.43206
17.92,-0.25825,0.96667,0.93725,0,0.42815
17.928,-0.25437,0.96078,0.94706,-0.0039062,0.42424
17.936,-0.25049,0.96667,0.94706,-0.0097656,0.42131
17.944,-0.24272,0.96078,0.94706,-0.0039062,0.41838
17.952,-0.23689,0.96078,0.94118,-0.0039062,0.41642
17.96,-0.22718,0.95686,0.94118,0,0.41544
17.968,-0.21748,0.95098,0.93725,-0.0039062,0.4174
17.976,-0.20971,0.95098,0.94118,0,0.41935
17.984,-0.2,0.95686,0.94118,-0.0039062,0.42131
17.992,-0.19223,0.95686,0.94706,0,0.42424
18,-0.18252,0.96078,0.95098,-0.0039062,0.42717
18.008,-0.1767,0.97647,0.97059,-0.0097656,0.43011
18.016,-0.16893,0.99608,0.99216,-0.013672,0.43597
18.024,-0.16117,1.002,1.0118,-0.013672,0.44184
18.032,-0.1534,1.002,1.0157,-0.0097656,0.4477
18.04,-0.14563,0.99608,0.99216,-0.025391,0.45455
18.048,-0.13786,0.97647,0.95098,-0.013672,0.46432
18.056,-0.1301,0.98627,0.92157,-0.025391,0.47507
18.064,-0.12233,0.97647,0.92549,-0.013672,0.48778
18.072,-0.11262,0.95686,0.92549,-0.0039062,0.50244
18.08,-0.10485,0.93725,0.92549,0.0058594,0.51808
18.088,-0.097087,0.92549,0.92549,0.019531,0.53079
18.096,-0.08932,0.91569,0.92549,0.025391,0.54154
18.104,-0.079612,0.91176,0.92549,0.03125,0.55425
18.112,-0.071845,0.91176,0.92549,0.025391,0.56794
18.12,-0.064078,0.92157,0.92549,0.019531,0.58162
18.128,-0.056311,0.91569,0.92157,0.0097656,0.59531
18.136,-0.048544,1.002,0.90196,-0.044922,0.60899
18.144,-0.040777,1.0412,0.69608,-0.070312,0.62072
18.152,-0.034951,0.32941,0.16863,0.39062,0.63148
18.16,-0.027184,-0.50196,-0.50196,0.91992,0.64125
18.168,-0.021359,-0.50196,-0.50196,1.3984,0.64809
18.176,-0.015534,-0.50196,-0.50196,1.5,0.65494
18.184,-0.0097087,-0.50196,-0.50196,1.3535,0.65982
18.192,-0.0038835,-0.50196,-0.39804,1.084,0.66373
18.2,0,-0.50196,0.0039216,0.82031,0.66471
18.208,0.0058252,-0.23725,0.33529,0.60938,0.66471
18.216,0.007767,0.14902,0.6549,0.38086,0.66373
18.224,0.01165,0.5451,0.93725,0.14062,0.66276
18.232,0.015534,0.82549,1.1314,-0.035156,0.6608
18.24,0.017476,1.002,1.2627,-0.12891,0.65689
18.248,0.021359,1.1922,1.4118,-0.16992,0.65298
18.256,0.025243,1.298,1.4784,-0.19336,0.65005
18.264,0.029126,1.3275,1.4824,-0.21484,0.64614
18.272,0.03301,1.3333,1.4824,-0.20898,0.64125
18.28,0.038835,1.3471,1.4725,-0.21484,0.63539
18.288,0.04466,1.3529,1.4686,-0.21875,0.6305
18.296,0.050485,1.3471,1.4569,-0.21875,0.62757
18.304,0.056311,1.3529,1.4471,-0.22852,0.62366
18.312,0.060194,1.3529,1.4471,-0.22461,0.61975
18.32,0.066019,1.3667,1.4471,-0.23438,0.61584
18.328,0.069903,1.3667,1.4431,-0.23438,0.60997
18.336,0.075728,1.3784,1.4431,-0.24414,0.60313
18.344,0.079612,1.398,1.4431,-0.25977,0.59726
18.352,0.083495,1.4235,1.4471,-0.2793,0.5914
18.36,0.087379,1.4529,1.4569,-0.29492,0.58651
18.368,0.091262,1.498,1.4627,-0.33008,0.5826
18.376,0.095146,1.5039,1.4824,-0.35938,0.57869
18.384,0.10097,1.5039,1.5039,-0.4082,0.57478
18.392,0.10291,1.5039,1.5039,-0.45898,0.57087
18.4,0.1068,1.5039,1.5039,-0.49805,0.56598
18.408,0.10874,1.5039,1.5039,-0.49805,0.56207
18.416,0.10874,1.5039,1.5039,-0.49805,0.55621
18.424,0.10485,1.5039,1.5039,-0.49805,0.55034
18.432,0.10097,1.5039,1.5039,-0.49805,0.54448
18.44,0.093204,1.5039,1.5039,-0.49805,0.53861
18.448,0.083495,1.5039,1.5039,-0.49805,0.5347
18.456,0.069903,1.5039,1.4176,-0.42383,0.53079
18.464,0.054369,1.4922,1.3078,-0.33398,0.52688
18.472,0.036893,1.3471,1.1961,-0.24023,0.52395
18.48,0.019417,1.2373,1.1059,-0.17969,0.52004
18.488,0,1.1569,1.0373,-0.13477,0.51613
18.496,-0.019417,1.0824,0.99216,-0.083984,0.51124
18.504,-0.038835,1.0412,0.96667,-0.054688,0.50733
18.512,-0.058252,1.0059,0.95098,-0.035156,0.50342
18.52,-0.07767,0.97059,0.94118,-0.0097656,0.49951
18.528,-0.095146,0.97647,0.94706,-0.013672,0.4956
18.536,-0.11068,0.94706,0.93725,0.0097656,0.49169
18.544,-0.12816,0.95098,0.94706,0.0058594,0.48876
18.552,-0.14175,0.95686,0.94118,0,0.48485
18.56,-0.15728,0.95098,0.94706,0.0058594,0.47996
18.568,-0.17087,0.95098,0.94118,0.0058594,0.47605
18.576,-0.18447,0.95098,0.95098,0.015625,0.47116
18.584,-0.19612,0.93137,0.94118,0.025391,0.46725
18.592,-0.20777,0.95098,0.95098,0.0058594,0.46334
18.6,-0.21748,0.93725,0.94706,0.025391,0.45846
18.608,-0.22718,0.95098,0.95686,0.015625,0.45357
18.616,-0.23495,0.95098,0.94706,0.015625,0.45064
18.624,-0.24272,0.93725,0.95098,0.025391,0.44868
18.632,-0.24854,0.95098,0.95098,0.0097656,0.43597
18.64,-0.25437,0.92549,0.94706,0.035156,0.41838
18.648,-0.25631,0.92157,0.95098,0.03125,0.4086
18.656,-0.25825,0.93725,0.94706,0.019531,0.40371
18.664,-0.25825,0.94118,0.94118,0.019531,0.40176
18.672,-0.25825,0.92549,0.93725,0.035156,0.40078
18.68,-0.25243,0.92549,0.94706,0.03125,0.40078
18.688,-0.24854,0.93725,0.94118,0.019531,0.40078
18.696,-0.23883,0.92157,0.94706,0.035156,0.40176
18.704,-0.23107,0.93137,0.93725,0.041016,0.40176
18.712,-0.21748,0.92549,0.94118,0.019531,0.40274
18.72,-0.20583,0.92157,0.94118,0.035156,0.40371
18.728,-0.19029,0.93725,0.94118,0.019531,0.40665
18.736,-0.17476,0.94706,0.94706,0.019531,0.4086
18.744,-0.15728,0.92549,0.95686,0.035156,0.40958
18.752,-0.13786,0.95098,0.98235,0.019531,0.41056
18.76,-0.1165,0.97647,1.0059,0.025391,0.41447
18.768,-0.093204,0.97059,1.002,0.0097656,0.41935
18.776,-0.066019,0.98235,0.99216,0.0058594,0.42717
18.784,-0.038835,0.96078,0.94706,0.015625,0.43597
18.792,-0.0058252,0.95098,0.90588,0.0058594,0.44575
18.8,0.025243,0.95686,0.90588,0.0097656,0.4565
18.808,0.060194,0.93137,0.90588,0.035156,0.46725
18.816,0.095146,0.92157,0.91176,0.041016,0.47801
18.824,0.13204,0.91176,0.91176,0.035156,0.4868
18.832,0.16699,0.90588,0.92157,0.035156,0.49267
18.84,0.20777,0.90588,0.91569,0.044922,0.49853
18.848,0.2466,0.90588,0.92157,0.044922,0.50538
18.856,0.28932,0.90196,0.91176,0.044922,0.51222
18.864,0.33204,0.91569,0.92157,0.03125,0.52004
18.872,0.37476,0.97647,0.89608,-0.013672,0.52884
18.88,0.41748,1.0373,0.73529,-0.048828,0.53666
18.888,0.46019,0.43922,0.3098,0.37109,0.54448
18.896,0.50485,-0.50196,-0.27647,0.97461,0.5523
18.904,0.54757,-0.50196,-0.50196,1.5,0.56109
18.912,0.59223,-0.50196,-0.50196,1.5,0.56794
18.92,0.63495,-0.50196,-0.50196,1.5,0.57283
18.928,0.67767,-0.50196,-0.33333,1.2637,0.57576
18.936,0.72039,-0.50196,0.088235,0.94922,0.57674
18.944,0.76117,-0.29216,0.39412,0.69531,0.57576
18.952,0.80194,0.12353,0.66471,0.44531,0.5738
18.96,0.84078,0.51569,0.90196,0.18945,0.57087
18.968,0.87961,0.81569,1.0922,-0.0039062,0.56891
18.976,0.91845,0.99608,1.202,-0.11523,0.56598
18.984,0.95534,1.202,1.3275,-0.18359,0.56305
18.992,0.99223,1.3176,1.3922,-0.21875,0.56109
19,1.0272,1.3569,1.398,-0.23438,0.55718
19.008,1.0621,1.3725,1.398,-0.24414,0.5523
19.016,1.0951,1.3784,1.398,-0.25,0.54545
19.024,1.1301,1.3784,1.3922,-0.25,0.53861
19.032,1.1612,1.3824,1.3784,-0.25391,0.53079
19.04,1.1922,1.3824,1.3667,-0.25977,0.52297
19.048,1.2214,1.3882,1.3627,-0.25977,0.51613
19.056,1.2505,1.398,1.3569,-0.26367,0.50831
19.064,1.2738,1.402,1.3529,-0.27344,0.50147
19.072,1.2971,1.4176,1.3529,-0.28516,0.49462
19.08,1.3184,1.4333,1.3529,-0.28906,0.48876
19.088,1.3379,1.4529,1.3529,-0.30859,0.48192
19.096,1.3534,1.4784,1.3627,-0.33008,0.4741
19.104,1.3709,1.5039,1.3725,-0.35938,0.46628
19.112,1.3825,1.5039,1.3882,-0.39844,0.45943
19.12,1.3961,1.5039,1.4078,-0.44922,0.45259
19.128,1.4039,1.5039,1.4333,-0.49805,0.44575
19.136,1.4117,1.5039,1.4627,-0.49805,0.43988
19.144,1.4136,1.5039,1.502,-0.49805,0.435
19.152,1.4155,1.5039,1.5039,-0.49805,0.43109
19.16,1.4117,1.5039,1.5039,-0.49805,0.4262
19.168,1.4078,1.5039,1.5039,-0.49805,0.42033
19.176,1.4,1.5039,1.5039,-0.49805,0.41642
19.184,1.3903,1.5039,1.4627,-0.49805,0.41251
19.192,1.3786,1.5039,1.3824,-0.46875,0.40958
19.2,1.367,1.5039,1.2824,-0.375,0.40665
19.208,1.3534,1.398,1.1824,-0.29492,0.40371
19.216,1.3379,1.2765,1.0961,-0.22461,0.40078
19.224,1.3223,1.1824,1.0314,-0.16016,0.39785
19.232,1.3068,1.1118,0.98627,-0.11523,0.39687
19.24,1.2893,1.0569,0.95686,-0.080078,0.39589
19.248,1.2738,1.0157,0.94706,-0.054688,0.39589
19.256,1.2563,0.99216,0.94118,-0.035156,0.39687
19.264,1.2388,0.98235,0.94118,-0.025391,0.39687
19.272,1.2214,0.97647,0.94118,-0.025391,0.39785
19.28,1.2019,0.97059,0.94118,-0.019531,0.39883
19.288,1.1845,0.97059,0.94118,-0.019531,0.40078
19.296,1.167,0.97059,0.94118,-0.019531,0.40078
19.304,1.1476,0.97059,0.93725,-0.019531,0.40176
19.312,1.1301,0.97647,0.94118,-0.019531,0.40176
19.32,1.1107,0.97647,0.94118,-0.025391,0.40078
19.328,1.0913,0.97647,0.94706,-0.013672,0.3998
19.336,1.0718,0.97647,0.94706,-0.019531,0.3998
19.344,1.0544,0.97647,0.94706,-0.013672,0.3998
19.352,1.035,0.97059,0.94118,-0.019531,0.40078
19.36,1.0155,0.97059,0.94706,-0.013672,0.40176
19.368,0.99612,0.97059,0.94706,-0.0097656,0.40176
19.376,0.97864,0.96667,0.94706,-0.0097656,0.40176
19.384,0.96117,0.96667,0.94118,-0.013672,0.40176
19.392,0.94369,0.96078,0.94118,-0.0097656,0.40176
19.4,0.92816,0.96078,0.94118,-0.0097656,0.40274
19.408,0.91068,0.96078,0.94118,-0.0039062,0.40469
19.416,0.89709,0.96078,0.94118,-0.0097656,0.40665
19.424,0.8835,0.96078,0.94706,-0.0097656,0.4086
19.432,0.87184,0.95686,0.94706,-0.0097656,0.40958
19.44,0.86019,0.96078,0.94706,-0.013672,0.41056
19.448,0.8466,0.96078,0.94706,-0.0097656,0.41251
19.456,0.83495,0.96078,0.94118,-0.0097656,0.41642
19.464,0.8233,0.96667,0.94706,-0.0039062,0.41935
19.472,0.81165,0.96667,0.94118,-0.0097656,0.42424
19.48,0.8,0.96667,0.94706,-0.0097656,0.43011
19.488,0.78835,0.96667,0.94706,-0.013672,0.43793
19.496,0.7767,0.97059,0.95098,-0.0097656,0.44673
19.504,0.76505,0.97647,0.95686,-0.019531,0.4565
19.512,0.75534,0.98235,0.98235,-0.019531,0.46725
19.52,0.74369,1.002,1.002,-0.025391,0.47898
19.528,0.73398,1.0059,1.0118,-0.025391,0.49169
19.536,0.72233,1.0059,1.002,-0.025391,0.5044
19.544,0.71262,0.98627,0.97647,-0.025391,0.51808
19.552,0.70485,0.98235,0.93137,-0.029297,0.53079
19.56,0.69515,0.98627,0.92157,-0.025391,0.54252
19.568,0.68738,0.96667,0.92549,-0.013672,0.55425
19.576,0.67767,0.94706,0.92549,0,0.56696
19.584,0.6699,0.92549,0.92157,0.0058594,0.58065
19.592,0.66019,0.91176,0.92549,0.019531,0.59335
19.6,0.65243,0.91176,0.92549,0.019531,0.60802
19.608,0.64272,0.90588,0.92549,0.025391,0.6217
19.616,0.63495,0.91176,0.92549,0.015625,0.63441
19.624,0.62524,0.91569,0.92549,0.015625,0.64614
19.632,0.61748,0.95686,0.91569,-0.019531,0.65591
19.64,0.60583,1.0412,0.8451,-0.074219,0.66569
19.648,0.59612,0.70588,0.4549,0.15039,0.67351
19.656,0.58641,-0.10196,-0.13725,0.66016,0.6784
19.664,0.57476,-0.50196,-0.50196,1.1895,0.68035
19.672,0.56505,-0.50196,-0.50196,1.5,0.68133
19.68,0.5534,-0.50196,-0.50196,1.4785,0.68133
19.688,0.54369,-0.50196,-0.50196,1.2285,0.67937
19.696,0.53204,-0.50196,-0.14118,0.95508,0.67742
19.704,0.52039,-0.39216,0.17843,0.69922,0.67449
19.712,0.50874,-0.037255,0.5098,0.5,0.67058
19.72,0.49709,0.36471,0.8,0.25586,0.66569
19.728,0.48544,0.73137,1.051,0.041016,0.65982
19.736,0.47379,0.92549,1.1961,-0.089844,0.65494
19.744,0.46214,1.102,1.3216,-0.16016,0.65103
19.752,0.45243,1.2725,1.4431,-0.19336,0.64712
19.76,0.44078,1.3216,1.4686,-0.21484,0.64321
19.768,0.43301,1.3431,1.4627,-0.21484,0.63832
19.776,0.4233,1.3471,1.4569,-0.21875,0.63245
19.784,0.41553,1.3529,1.4471,-0.22852,0.62757
19.792,0.40971,1.3569,1.4471,-0.22852,0.6217
19.8,0.40388,1.3627,1.4431,-0.23438,0.61681
19.808,0.39806,1.3627,1.4373,-0.23438,0.61095
19.816,0.39417,1.3725,1.4275,-0.23438,0.60411
19.824,0.38835,1.3784,1.4235,-0.24023,0.59824
19.832,0.38447,1.3824,1.4235,-0.25,0.59238
19.84,0.37864,1.398,1.4235,-0.25977,0.58651
19.848,0.37282,1.4078,1.4275,-0.27344,0.58065
19.856,0.36699,1.4373,1.4333,-0.28516,0.57576
19.864,0.36117,1.4686,1.4431,-0.30859,0.57283
19.872,0.3534,1.5039,1.4569,-0.33984,0.56891
19.88,0.34757,1.5039,1.4725,-0.375,0.56403
19.888,0.33981,1.5039,1.502,-0.42383,0.56012
19.896,0.33204,1.5039,1.5039,-0.47852,0.55523
19.904,0.32427,1.5039,1.5039,-0.49805,0.54936
19.912,0.31262,1.5039,1.5039,-0.49805,0.5435
19.92,0.30291,1.5039,1.5039,-0.49805,0.53763
19.928,0.28738,1.5039,1.5039,-0.49805,0.53275
19.936,0.27184,1.5039,1.5039,-0.49805,0.5259
19.944,0.25049,1.5039,1.5039,-0.49805,0.51906
19.952,0.22913,1.5039,1.4824,-0.47461,0.51124
19.96,0.20583,1.5039,1.3824,-0.38867,0.5044
19.968,0.18058,1.4431,1.2627,-0.29883,0.49756
19.976,0.15534,1.3118,1.1667,-0.22852,0.49169
19.984,0.12816,1.2118,1.0824,-0.16406,0.4868
19.992,0.10291,1.1314,1.0275,-0.125,0.48289
20,0.075728,1.0725,0.98627,-0.080078,0.47703
20.008,0.050485,1.0216,0.96667,-0.054688,0.47214
20.016,0.027184,0.99608,0.95098,-0.035156,0.46725
20.024,0.0019417,0.97059,0.94706,-0.019531,0.46432
20.032,-0.021359,0.96078,0.93725,-0.0097656,0.46139
20.04,-0.042718,0.95686,0.94118,-0.0039062,0.45943
20.048,-0.066019,0.95686,0.93725,0,0.4565
20.056,-0.085437,0.95098,0.93725,0,0.45455
20.064,-0.10485,0.95098,0.94118,0,0.45161
20.072,-0.12233,0.95098,0.94118,0,0.44868
20.08,-0.13981,0.95098,0.94706,0,0.44477
20.088,-0.15534,0.95098,0.94706,0,0.44184
20.096,-0.16893,0.95686,0.94706,-0.0039062,0.43793
20.104,-0.18058,0.96078,0.95098,0,0.43304
20.112,-0.19417,0.96078,0.95098,0,0.42913
20.12,-0.20194,0.96667,0.95098,0,0.42522
20.128,-0.20971,0.96667,0.95098,-0.0039062,0.42131
20.136,-0.21359,0.97059,0.94118,-0.0039062,0.41838
20.144,-0.21942,0.97059,0.94706,-0.0039062,0.41447
20.152,-0.21942,0.97059,0.94706,-0.0097656,0.41153
20.16,-0.21942,0.96078,0.94706,-0.0039062,0.4086
20.168,-0.21553,0.96078,0.94706,-0.0097656,0.40567
20.176,-0.21165,0.95686,0.95098,-0.0097656,0.40371
20.184,-0.20583,0.96078,0.94706,-0.013672,0.40176
20.192,-0.19806,0.95686,0.94706,-0.0097656,0.40078
20.2,-0.19029,0.96078,0.94118,-0.0097656,0.40176
20.208,-0.18252,0.95098,0.94706,0,0.40274
20.216,-0.17476,0.95686,0.94118,-0.0097656,0.40371
20.224,-0.16699,0.95686,0.94706,-0.0039062,0.40665
20.232,-0.15922,0.96078,0.95098,-0.013672,0.40958
20.24,-0.15146,0.96667,0.95686,-0.0097656,0.41349
20.248,-0.14369,0.97647,0.97647,-0.013672,0.41838
20.256,-0.13592,1.002,1.002,-0.019531,0.42424
20.264,-0.1301,1.0059,1.0118,-0.019531,0.43109
20.272,-0.12233,1.002,1.002,-0.025391,0.43988
20.28,-0.11456,1.0059,0.97647,-0.019531,0.44966
20.288,-0.1068,0.98627,0.93137,-0.025391,0.45943
20.296,-0.10097,0.99216,0.91569,-0.029297,0.46921
20.304,-0.093204,0.97059,0.91569,-0.013672,0.47703
20.312,-0.085437,0.95098,0.91176,0,0.4868
20.32,-0.07767,0.92549,0.91176,0.0097656,0.49853
20.328,-0.071845,0.91176,0.92157,0.025391,0.51026
20.336,-0.064078,0.91176,0.91569,0.019531,0.52297
20.344,-0.058252,0.91176,0.92549,0.025391,0.53666
20.352,-0.050485,0.91176,0.92549,0.019531,0.55034
20.36,-0.042718,0.91176,0.92549,0.03125,0.56305
20.368,-0.034951,0.94706,0.91569,-0.0039062,0.57478
20.376,-0.027184,1.0314,0.87059,-0.058594,0.58651
20.384,-0.019417,0.82549,0.53922,0.076172,0.59726
20.392,-0.013592,0.04902,-0.041176,0.57422,0.60704
20.4,-0.0058252,-0.50196,-0.50196,1.0938,0.61388
20.408,0,-0.50196,-0.50196,1.5,0.61975
20.416,0.0058252,-0.50196,-0.50196,1.5,0.62659
20.424,0.01165,-0.50196,-0.50196,1.2734,0.63245
20.432,0.017476,-0.50196,-0.23725,0.99414,0.63832
20.44,0.021359,-0.44706,0.1098,0.74414,0.64223
20.448,0.027184,-0.11176,0.4451,0.53906,0.64418
20.456,0.029126,0.2902,0.75098,0.29102,0.64516
20.464,0.03301,0.66471,1.0118,0.070312,0.64614
20.472,0.036893,0.88627,1.1725,-0.070312,0.64614
20.48,0.038835,1.0608,1.2922,-0.14844,0.64614
20.488,0.042718,1.2471,1.4333,-0.18359,0.64418
20.496,0.046602,1.3118,1.4686,-0.20508,0.64223
20.504,0.050485,1.3333,1.4686,-0.21484,0.63832
20.512,0.054369,1.3373,1.4725,-0.21484,0.63441
20.52,0.060194,1.3471,1.4569,-0.22461,0.62952
20.528,0.066019,1.3471,1.4529,-0.21875,0.62463
20.536,0.071845,1.3529,1.4431,-0.22461,0.61877
20.544,0.07767,1.3529,1.4431,-0.22852,0.61388
20.552,0.081553,1.3627,1.4373,-0.23438,0.60802
20.56,0.087379,1.3725,1.4333,-0.23438,0.60313
20.568,0.091262,1.3784,1.4235,-0.24023,0.59726
20.576,0.097087,1.3882,1.4275,-0.25,0.5914
20.584,0.10097,1.402,1.4275,-0.26367,0.58553
20.592,0.10485,1.4275,1.4431,-0.2793,0.57967
20.6,0.10874,1.4627,1.4471,-0.30469,0.57478
20.608,0.11262,1.5039,1.4627,-0.33398,0.56989
20.616,0.1165,1.5039,1.4784,-0.375,0.56598
20.624,0.12039,1.5039,1.5039,-0.41992,0.56012
20.632,0.12233,1.5039,1.5039,-0.47461,0.55523
20.64,0.12427,1.5039,1.5039,-0.49805,0.54936
20.648,0.12233,1.5039,1.5039,-0.49805,0.5435
20.656,0.12039,1.5039,1.5039,-0.49805,0.53666
20.664,0.11456,1.5039,1.5039,-0.49805,0.53079
20.672,0.1068,1.5039,1.5039,-0.49805,0.52493
20.68,0.095146,1.5039,1.5039,-0.49805,0.51026
20.688,0.083495,1.5039,1.4922,-0.47852,0.49169
20.696,0.067961,1.5039,1.3824,-0.39453,0.47996
20.704,0.052427,1.4471,1.2667,-0.30859,0.47116
20.712,0.03301,1.3176,1.1725,-0.22852,0.46628
20.72,0.013592,1.2176,1.0863,-0.17383,0.46334
20.728,-0.0058252,1.1314,1.0216,-0.11914,0.46041
20.736,-0.025243,1.0725,0.98235,-0.080078,0.45748
20.744,-0.04466,1.0216,0.96078,-0.048828,0.45455
20.752,-0.062136,0.99216,0.95098,-0.029297,0.45259
