Time [s], RESP, PLETH, II, V, AVR, ART, CVP
0,0.25709,0.63636,0.4101,0.68945,0.75098,56.519,14.819
0.008,0.25709,0.61779,0.41502,0.68945,0.7451,55.932,14.715
0.016,0.25611,0.59922,0.41995,0.68945,0.74118,55.346,14.56
0.024,0.25513,0.57771,0.4298,0.68945,0.73529,54.954,14.456
0.032,0.25415,0.55523,0.43966,0.69531,0.73137,54.368,14.301
0.04,0.2522,0.53275,0.45443,0.69531,0.71569,53.977,14.197
0.048,0.25122,0.51026,0.47044,0.69922,0.70588,53.585,14.145
0.056,0.24927,0.48974,0.48522,0.69922,0.69608,52.999,14.197
0.064,0.24829,0.47019,0.50985,0.70508,0.68039,52.608,14.404
0.072,0.24633,0.45259,0.53941,0.70508,0.66078,52.021,14.663
0.08,0.24438,0.43695,0.5702,0.70898,0.63529,51.63,14.974
0.088,0.2434,0.42326,0.59975,0.70508,0.6098,51.043,15.181
0.096,0.24242,0.41251,0.61453,0.69922,0.59608,50.652,15.389
0.104,0.24145,0.40274,0.62438,0.68945,0.5902,50.261,15.13
0.112,0.24047,0.39589,0.63054,0.68555,0.5902,51.043,14.456
0.12,0.23949,0.39101,0.61453,0.67969,0.59608,53.585,13.472
0.128,0.23949,0.3871,0.5899,0.66992,0.6098,59.061,12.332
0.136,0.23851,0.38221,0.56034,0.66992,0.63529,67.471,11.503
0.144,0.23851,0.3783,0.52956,0.66406,0.66078,77.836,11.036
0.152,0.23754,0.37537,0.49507,0.66016,0.68039,88.201,10.933
0.16,0.23754,0.37146,0.47537,0.6543,0.7,97.784,11.244
0.168,0.23754,0.36852,0.45443,0.65039,0.71569,106.39,11.762
0.176,0.23754,0.36461,0.43966,0.64453,0.73137,113.62,12.176
0.184,0.23754,0.3607,0.4298,0.64453,0.73529,119.1,12.487
0.192,0.23754,0.35679,0.42488,0.64062,0.73529,122.03,12.487
0.2,0.23754,0.35191,0.42488,0.63477,0.73529,122.82,12.28
0.208,0.23754,0.34897,0.42488,0.63477,0.73529,122.03,11.865
0.216,0.23656,0.34604,0.42488,0.63477,0.73529,120.67,11.503
0.224,0.23656,0.34115,0.4298,0.63477,0.73137,118.71,11.192
0.232,0.23558,0.33627,0.43473,0.63477,0.72549,116.36,11.036
0.24,0.2346,0.33138,0.43473,0.63477,0.72549,113.82,11.036
0.248,0.23265,0.32649,0.43966,0.63477,0.72157,111.08,11.088
0.256,0.23167,0.32063,0.44951,0.64062,0.72157,108.34,11.244
0.264,0.22874,0.31476,0.44951,0.63477,0.72157,105.41,11.503
0.272,0.22678,0.30987,0.44951,0.64062,0.71569,102.67,11.813
0.28,0.22483,0.30401,0.44951,0.64062,0.71569,99.739,12.073
0.288,0.22287,0.29814,0.44951,0.64062,0.71569,97.001,12.28
0.296,0.22092,0.29228,0.44951,0.64062,0.72157,94.263,12.383
0.304,0.21896,0.28739,0.44951,0.64062,0.72157,91.721,12.487
0.312,0.21701,0.28348,0.45443,0.64062,0.71569,88.983,12.642
0.32,0.21505,0.27957,0.46552,0.6543,0.70588,86.05,12.85
0.328,0.2131,0.27566,0.4803,0.66406,0.6902,83.116,13.005
0.336,0.21114,0.26979,0.49015,0.66992,0.68627,80.183,13.316
0.344,0.21017,0.26393,0.51478,0.67578,0.67059,77.249,13.575
0.352,0.20821,0.25904,0.53941,0.67969,0.65098,74.12,13.834
0.36,0.20723,0.25611,0.55049,0.66406,0.6451,71.186,14.093
0.368,0.20723,0.25806,0.54557,0.64062,0.6451,68.84,14.404
0.376,0.20626,0.26686,0.53448,0.63477,0.65098,66.688,14.663
0.384,0.20528,0.28446,0.51478,0.625,0.66078,64.928,14.819
0.392,0.2043,0.31183,0.49015,0.61914,0.68039,63.364,14.819
0.4,0.20332,0.348,0.45443,0.625,0.70588,61.995,14.56
0.408,0.20235,0.38612,0.42488,0.625,0.73137,61.017,14.197
0.416,0.20137,0.42522,0.4101,0.625,0.74118,60.235,13.834
0.424,0.20137,0.47214,0.40025,0.625,0.75098,59.648,13.472
0.432,0.20137,0.52102,0.40025,0.625,0.75098,59.257,13.212
0.44,0.20137,0.56794,0.40025,0.625,0.7549,59.061,13.005
0.448,0.20137,0.60997,0.40025,0.61914,0.7549,59.061,13.005
0.456,0.20137,0.64712,0.40025,0.61914,0.75098,59.061,13.161
0.464,0.20137,0.67742,0.40517,0.625,0.75098,59.257,13.368
0.472,0.20137,0.70186,0.4298,0.62891,0.72549,59.452,13.782
0.48,0.20235,0.72043,0.50493,0.58398,0.6549,59.648,14.197
0.488,0.20235,0.73412,0.6798,0.51562,0.5,59.844,14.715
0.496,0.20332,0.74389,0.92488,0.375,0.28431,60.039,15.337
0.504,0.2043,0.74878,1.0246,0.21094,0.17451,60.235,15.959
0.512,0.20528,0.74976,0.8202,0.16602,0.32941,60.235,16.373
0.52,0.20626,0.74878,0.52463,0.29492,0.5902,60.235,16.684
0.528,0.20821,0.74487,0.38054,0.48438,0.74118,60.039,16.788
0.536,0.20919,0.73998,0.35468,0.60547,0.78039,59.844,16.788
0.544,0.21017,0.73314,0.36453,0.66016,0.78039,59.648,16.58
0.552,0.21114,0.72434,0.36946,0.67969,0.78039,59.257,16.321
0.56,0.2131,0.71359,0.37562,0.68555,0.78039,58.866,16.01
0.568,0.21408,0.70186,0.38054,0.68945,0.77647,58.475,15.648
0.576,0.21505,0.68817,0.38547,0.68945,0.77059,58.279,15.389
0.584,0.21701,0.67253,0.39532,0.68945,0.76078,57.692,15.181
0.592,0.21896,0.65494,0.40517,0.68945,0.7549,57.106,15.13
0.6,0.21994,0.63539,0.41502,0.68945,0.75098,56.715,15.078
0.608,0.2219,0.61681,0.41995,0.69531,0.7451,56.128,14.87
0.616,0.22287,0.59824,0.4298,0.69531,0.74118,55.541,14.663
0.624,0.22385,0.57674,0.43473,0.69922,0.73137,54.954,14.301
0.632,0.22581,0.55523,0.44951,0.69922,0.72157,54.368,14.093
0.64,0.22678,0.53177,0.45443,0.70508,0.71569,53.977,13.938
0.648,0.22874,0.51026,0.47044,0.70508,0.70588,53.585,13.99
0.656,0.23069,0.48876,0.49015,0.70508,0.6902,52.999,14.301
0.664,0.23167,0.46921,0.5197,0.70508,0.67059,52.608,14.715
0.672,0.23363,0.45161,0.55542,0.70508,0.6451,52.021,15.078
0.68,0.2346,0.43597,0.58498,0.70898,0.61961,51.434,15.44
0.688,0.23558,0.42229,0.60961,0.70508,0.6,51.043,15.596
0.696,0.23656,0.41056,0.62438,0.69922,0.5902,50.652,15.337
0.704,0.23851,0.40176,0.63054,0.68945,0.58431,50.652,14.663
0.712,0.23949,0.39492,0.61946,0.68555,0.5902,52.021,13.575
0.72,0.24145,0.39003,0.59975,0.67969,0.6,55.737,12.383
0.728,0.24242,0.38612,0.57512,0.67578,0.61961,62.582,11.399
0.736,0.2434,0.38221,0.54557,0.66992,0.64118,71.773,10.829
0.744,0.24438,0.3783,0.5197,0.66406,0.66471,82.138,10.622
0.752,0.24536,0.37537,0.49015,0.66016,0.68627,92.112,10.829
0.76,0.24633,0.37243,0.46552,0.6543,0.7,101.11,11.244
0.768,0.24731,0.3695,0.44951,0.65039,0.71569,109.32,11.813
0.776,0.24731,0.36657,0.43966,0.64453,0.72549,116.17,12.176
0.784,0.24829,0.36266,0.43473,0.64062,0.73137,120.67,12.332
0.792,0.24829,0.35973,0.4298,0.64062,0.73529,122.62,12.124
0.8,0.24927,0.35582,0.4298,0.64062,0.73529,122.82,11.762
0.808,0.24927,0.35191,0.4298,0.63477,0.73137,121.64,11.399
0.816,0.24927,0.34897,0.4298,0.63477,0.73137,119.88,11.088
0.824,0.24829,0.34506,0.43473,0.63477,0.72549,117.54,10.933
0.832,0.24829,0.34115,0.43966,0.63477,0.72157,114.99,11.036
0.84,0.24731,0.33627,0.44951,0.63477,0.72157,112.06,11.192
0.848,0.24633,0.3304,0.45443,0.63477,0.71569,109.13,11.451
0.856,0.24536,0.32551,0.45443,0.64062,0.71569,106.19,11.658
0.864,0.2434,0.31965,0.46059,0.64062,0.7098,103.26,11.865
0.872,0.24145,0.31378,0.45443,0.64062,0.71569,100.33,12.073
0.88,0.23851,0.30792,0.45443,0.64062,0.71569,97.588,12.28
0.888,0.23754,0.30303,0.45443,0.64062,0.71569,94.85,12.435
0.896,0.23558,0.29717,0.45443,0.64062,0.71569,92.112,12.591
0.904,0.2346,0.29228,0.45443,0.64062,0.7098,89.57,12.694
0.912,0.23265,0.28837,0.46552,0.65039,0.70588,86.832,12.85
0.92,0.23167,0.28446,0.4803,0.66016,0.69608,84.094,13.005
0.928,0.23069,0.27957,0.49507,0.66992,0.68627,81.16,13.264
0.936,0.22874,0.2737,0.50493,0.67969,0.67647,78.227,13.523
0.944,0.22776,0.26784,0.53448,0.68555,0.6549,75.293,13.834
0.952,0.22581,0.26393,0.55542,0.67969,0.6451,72.36,14.145
0.96,0.22483,0.26295,0.55049,0.6543,0.6451,69.818,14.508
0.968,0.22483,0.26686,0.53941,0.64062,0.6451,67.471,14.819
0.976,0.22385,0.27957,0.52956,0.62891,0.6549,65.515,15.13
0.984,0.22385,0.30108,0.50985,0.625,0.66471,63.755,15.13
0.992,0.22287,0.33236,0.47537,0.625,0.6902,62.386,14.974
1,0.22287,0.37146,0.43966,0.62891,0.71569,61.213,14.456
1.008,0.22287,0.41153,0.41995,0.62891,0.73529,60.43,13.938
1.016,0.22385,0.45064,0.4101,0.62891,0.74118,59.648,13.472
1.024,0.22385,0.49658,0.40517,0.625,0.7451,59.257,13.005
1.032,0.22483,0.5435,0.40025,0.625,0.7451,59.061,12.85
1.04,0.22581,0.58749,0.40025,0.625,0.7451,59.061,12.746
1.048,0.22776,0.62659,0.40025,0.625,0.75098,59.061,12.85
1.056,0.22874,0.65982,0.40517,0.625,0.75098,59.257,13.057
1.064,0.23069,0.68817,0.41502,0.63477,0.73529,59.452,13.472
1.072,0.23167,0.70968,0.46059,0.61523,0.69608,59.648,13.886
1.08,0.23363,0.7263,0.58498,0.56055,0.57451,59.844,14.404
1.088,0.2346,0.73803,0.81034,0.45508,0.38039,60.039,15.026
1.096,0.23558,0.74487,1.0049,0.29102,0.19412,60.039,15.596
1.104,0.23656,0.74878,1.0099,0.16992,0.17843,60.039,16.114
1.112,0.23851,0.7478,0.64039,0.23438,0.47451,60.039,16.528
1.12,0.24047,0.74585,0.4298,0.4043,0.68627,60.039,16.684
1.128,0.2434,0.74194,0.36453,0.56055,0.76667,59.844,16.684
1.136,0.24536,0.73607,0.36453,0.64453,0.77647,59.452,16.528
1.144,0.24731,0.72825,0.36946,0.67578,0.78039,59.257,16.114
1.152,0.24927,0.71945,0.38054,0.68555,0.77647,58.866,15.648
1.16,0.25122,0.70772,0.38547,0.68555,0.77647,58.279,15.285
1.168,0.2522,0.69501,0.39039,0.68555,0.77059,57.888,14.974
1.176,0.25415,0.68035,0.39532,0.68945,0.76667,57.497,14.87
1.184,0.25611,0.66373,0.40517,0.68945,0.7549,56.91,14.87
1.192,0.25709,0.64614,0.41502,0.68945,0.75098,56.323,14.819
1.2,0.25904,0.62561,0.41995,0.69531,0.7451,55.737,14.715
1.208,0.261,0.60606,0.4298,0.69922,0.74118,55.15,14.404
1.216,0.26295,0.58749,0.43966,0.69922,0.73529,54.563,13.99
1.224,0.26491,0.56598,0.44458,0.69922,0.73137,53.977,13.575
1.232,0.26686,0.5435,0.45443,0.69922,0.72157,53.585,13.316
1.24,0.26882,0.52004,0.47044,0.69922,0.7098,52.999,13.264
1.248,0.27077,0.49756,0.49015,0.70508,0.69608,52.608,13.523
1.256,0.27175,0.47703,0.51478,0.70508,0.68039,52.021,13.938
1.264,0.27273,0.45846,0.54557,0.70508,0.66078,51.63,14.508
1.272,0.27468,0.44184,0.58005,0.70898,0.62941,51.043,15.078
1.28,0.27664,0.42717,0.60468,0.70898,0.60588,50.456,15.492
1.288,0.27957,0.41544,0.62438,0.70508,0.5902,50.065,15.492
1.296,0.28152,0.40567,0.63547,0.69922,0.58431,49.674,14.974
1.304,0.28348,0.39785,0.63547,0.68945,0.58431,50.261,13.834
1.312,0.28641,0.39296,0.61946,0.68555,0.59608,52.608,12.487
1.32,0.28739,0.38807,0.59975,0.67969,0.60588,57.888,11.399
1.328,0.28935,0.38319,0.5702,0.67578,0.62941,66.102,10.622
1.336,0.2913,0.37928,0.53941,0.66992,0.6549,76.467,10.466
1.344,0.29423,0.37634,0.50985,0.66992,0.67647,86.832,10.622
1.352,0.29619,0.37243,0.48522,0.66406,0.6902,96.61,11.192
1.36,0.29912,0.3695,0.46552,0.66016,0.7098,105.22,11.813
1.368,0.30108,0.36559,0.44951,0.6543,0.71569,112.65,12.383
1.376,0.30401,0.36266,0.44458,0.65039,0.72157,118.32,12.694
1.384,0.30499,0.35875,0.43966,0.64453,0.73137,121.64,12.642
1.392,0.30694,0.35484,0.43966,0.64453,0.73137,122.62,12.332
1.4,0.30792,0.34995,0.43966,0.64062,0.72549,122.03,11.969
1.408,0.3089,0.34702,0.43966,0.64062,0.72157,120.47,11.658
1.416,0.30987,0.34409,0.43966,0.64062,0.72157,118.51,11.503
1.424,0.31085,0.3392,0.44951,0.64062,0.72157,116.17,11.554
1.432,0.31085,0.33529,0.44951,0.64062,0.72157,113.62,11.762
1.44,0.31085,0.32942,0.45443,0.64062,0.71569,110.69,12.021
1.448,0.31085,0.32454,0.45443,0.64062,0.71569,107.76,12.28
1.456,0.30987,0.31867,0.46059,0.64062,0.7098,104.43,12.383
1.464,0.3089,0.31378,0.46552,0.64453,0.7098,101.5,12.591
1.472,0.30792,0.30792,0.46552,0.64453,0.7098,98.761,12.746
1.48,0.30596,0.30205,0.46552,0.64453,0.7098,96.219,12.953
1.488,0.30499,0.29619,0.46552,0.64453,0.7098,93.677,13.161
1.496,0.30303,0.2913,0.46552,0.64453,0.7098,90.939,13.316
1.504,0.30205,0.28739,0.47537,0.65039,0.70588,88.201,13.523
1.512,0.3001,0.28348,0.49015,0.66016,0.69608,85.463,13.627
1.52,0.29814,0.27859,0.5,0.66992,0.6902,82.725,13.834
1.528,0.29717,0.2737,0.50493,0.67969,0.68627,79.791,13.99
1.536,0.29619,0.26686,0.52463,0.68555,0.66471,76.858,14.249
1.544,0.29619,0.26197,0.55542,0.68945,0.65098,73.729,14.456
1.552,0.29619,0.25806,0.56034,0.66016,0.6451,70.991,14.663
1.56,0.29619,0.25904,0.55049,0.64062,0.65098,68.644,14.819
1.568,0.29619,0.26686,0.53941,0.63477,0.65098,66.493,15.078
1.576,0.29619,0.2825,0.52463,0.62891,0.66078,64.733,15.181
1.584,0.29619,0.3089,0.5,0.62891,0.67647,63.168,15.389
1.592,0.29717,0.34506,0.46552,0.63477,0.70588,61.995,15.492
1.6,0.29814,0.38905,0.43966,0.63477,0.72549,61.017,15.699
1.608,0.29912,0.43109,0.4298,0.63477,0.73529,60.235,15.907
1.616,0.30108,0.47214,0.41995,0.64062,0.73529,59.844,16.062
1.624,0.30205,0.51906,0.41502,0.63477,0.74118,59.452,16.321
1.632,0.30401,0.565,0.41502,0.63477,0.74118,59.452,16.528
1.64,0.30499,0.60704,0.4101,0.62891,0.74118,59.452,16.632
1.648,0.30596,0.64418,0.4101,0.62891,0.74118,59.648,16.839
1.656,0.30792,0.67546,0.42488,0.64062,0.73529,59.844,16.943
1.664,0.30987,0.70088,0.46552,0.625,0.7,60.235,17.15
1.672,0.31281,0.72043,0.57512,0.58008,0.60588,60.43,17.254
1.68,0.31574,0.73509,0.78941,0.49023,0.42549,60.821,17.409
1.688,0.31965,0.74487,1.0246,0.32422,0.22353,61.017,17.513
1.696,0.32258,0.74976,1.0702,0.17578,0.17451,61.017,17.565
1.704,0.32747,0.75171,0.75,0.15625,0.4,61.017,17.565
1.712,0.33138,0.74976,0.4803,0.35547,0.64118,61.017,17.513
1.72,0.33529,0.74682,0.37562,0.53516,0.75098,60.821,17.409
1.728,0.34018,0.74194,0.36453,0.63477,0.77647,60.43,17.254
1.736,0.34311,0.73509,0.36946,0.67578,0.78039,60.235,17.15
1.744,0.34702,0.72336,0.37562,0.68945,0.77647,59.844,17.202
1.752,0.35093,0.70968,0.38547,0.69531,0.77059,59.452,17.254
1.76,0.35484,0.69599,0.39532,0.69922,0.76667,59.061,17.15
1.768,0.35875,0.68133,0.40025,0.69922,0.76078,58.475,16.839
1.776,0.36266,0.66569,0.4101,0.69531,0.7549,58.083,16.58
1.784,0.36559,0.64907,0.41502,0.69531,0.75098,57.497,16.58
1.792,0.3695,0.62952,0.42488,0.69531,0.74118,57.106,16.632
1.8,0.37243,0.60997,0.43473,0.69531,0.73529,56.519,16.632
1.808,0.37634,0.5914,0.43966,0.69531,0.73137,56.128,16.425
1.816,0.37928,0.57283,0.44951,0.69922,0.72157,55.541,16.114
1.824,0.38319,0.5523,0.46552,0.69922,0.7098,55.15,15.959
1.832,0.3871,0.53079,0.4803,0.69922,0.70588,54.759,15.907
1.84,0.39101,0.51026,0.5,0.70508,0.6902,54.172,16.01
1.848,0.39492,0.49071,0.5197,0.70508,0.67647,53.781,16.218
1.856,0.39883,0.47214,0.54557,0.70898,0.6549,53.194,16.425
1.864,0.40274,0.45552,0.58005,0.70898,0.63529,52.803,16.684
1.872,0.40665,0.44086,0.60961,0.70508,0.6098,52.216,16.839
1.88,0.40958,0.42913,0.63054,0.69922,0.59608,51.63,16.891
1.888,0.41349,0.41838,0.64039,0.69531,0.58431,51.434,16.788
1.896,0.4174,0.40958,0.64532,0.68555,0.58431,51.825,16.373
1.904,0.42033,0.40371,0.63054,0.67969,0.5902,54.172,15.907
1.912,0.42424,0.3998,0.60961,0.67578,0.60588,59.648,15.389
1.92,0.42717,0.39492,0.58005,0.66992,0.62549,68.449,14.974
1.928,0.43109,0.39198,0.54557,0.66406,0.65098,79.009,14.715
1.936,0.435,0.38807,0.51478,0.66406,0.67059,89.961,14.663
1.944,0.43793,0.38514,0.48522,0.6543,0.69608,99.544,14.767
1.952,0.44184,0.38221,0.46552,0.65039,0.7098,108.34,14.87
1.96,0.44477,0.37928,0.44951,0.64453,0.72157,115.58,15.078
1.968,0.4477,0.37634,0.43966,0.64062,0.73137,121.06,15.13
1.976,0.45064,0.37243,0.43473,0.64062,0.73529,123.99,15.13
1.984,0.45357,0.36852,0.4298,0.63477,0.73529,124.38,15.026
1.992,0.45552,0.36364,0.4298,0.63477,0.73137,123.6,14.974
2,0.45846,0.35973,0.4298,0.62891,0.73137,121.84,15.026
2.008,0.45943,0.35582,0.43473,0.625,0.73137,119.69,15.181
2.016,0.46041,0.35288,0.43473,0.62891,0.72157,117.34,15.492
2.024,0.46139,0.348,0.43966,0.62891,0.72157,114.6,15.699
2.032,0.46139,0.34409,0.43966,0.62891,0.72157,111.67,15.907
2.04,0.46139,0.3392,0.44951,0.63477,0.72157,108.74,16.062
2.048,0.46041,0.33431,0.45443,0.63477,0.71569,105.8,16.218
2.056,0.45943,0.32845,0.45443,0.63477,0.71569,103.06,16.373
2.064,0.45846,0.32356,0.45443,0.63477,0.71569,100.13,16.58
2.072,0.45748,0.31867,0.45443,0.63477,0.71569,97.393,16.839
2.08,0.45748,0.31476,0.45443,0.63477,0.71569,94.85,17.098
2.088,0.4565,0.30987,0.45443,0.63477,0.71569,92.112,17.254
2.096,0.45552,0.30499,0.45443,0.64062,0.7098,89.374,17.409
2.104,0.45455,0.30108,0.46552,0.64062,0.7098,86.832,17.513
2.112,0.45259,0.29814,0.4803,0.6543,0.7,84.094,17.617
2.12,0.45161,0.29326,0.48522,0.66406,0.69608,81.16,17.824
2.128,0.44966,0.28837,0.49507,0.66992,0.6902,78.227,18.031
2.136,0.44868,0.2825,0.5197,0.67969,0.67059,75.489,18.187
2.144,0.4477,0.27957,0.53941,0.66406,0.6549,72.751,18.342
2.152,0.44575,0.27957,0.54557,0.64062,0.6549,70.209,18.446
2.16,0.44477,0.28641,0.52956,0.625,0.6549,68.057,18.653
2.168,0.44282,0.30108,0.52463,0.61914,0.66078,66.297,18.756
2.176,0.44184,0.32551,0.50493,0.61523,0.67059,64.733,18.912
2.184,0.43988,0.35875,0.4803,0.61914,0.68627,63.364,19.016
2.192,0.43793,0.40078,0.44951,0.61914,0.7098,62.386,19.223
2.2,0.43695,0.4477,0.4298,0.625,0.73137,61.408,19.378
2.208,0.435,0.49071,0.41995,0.625,0.73529,60.821,19.534
2.216,0.43402,0.52981,0.4101,0.625,0.73529,60.43,19.637
2.224,0.43304,0.57283,0.40517,0.61914,0.74118,60.43,19.845
2.232,0.43206,0.6129,0.40517,0.61914,0.74118,60.235,19.948
2.24,0.43109,0.64809,0.40517,0.61914,0.7451,60.235,20.052
2.248,0.43011,0.6784,0.4101,0.61914,0.74118,60.43,20.259
2.256,0.42913,0.70283,0.4298,0.62891,0.73137,60.626,20.311
2.264,0.42815,0.72141,0.48522,0.59961,0.67647,60.626,20.311
2.272,0.42717,0.73412,0.64039,0.53906,0.55098,60.821,20.259
2.28,0.42717,0.74389,0.89532,0.42578,0.33922,60.821,20
2.288,0.4262,0.74878,1.08,0.24609,0.16863,60.821,19.43
2.296,0.4262,0.74976,0.94951,0.14062,0.23922,60.821,18.497
2.304,0.4262,0.7478,0.63054,0.22461,0.5,60.626,17.306
2.312,0.4262,0.74389,0.41502,0.41602,0.7,60.43,16.114
2.32,0.42717,0.73803,0.35468,0.57031,0.77059,60.039,15.337
2.328,0.42815,0.73118,0.35961,0.64453,0.77647,59.844,15.181
2.336,0.42913,0.72239,0.36453,0.66992,0.77647,59.452,15.648
2.344,0.43011,0.71163,0.36946,0.67969,0.77647,59.061,16.321
2.352,0.43109,0.6999,0.37562,0.67969,0.77647,58.475,17.098
2.36,0.43109,0.68622,0.38547,0.68555,0.77059,58.279,17.565
2.368,0.43206,0.67058,0.39039,0.68555,0.76667,57.888,17.824
2.376,0.43304,0.65396,0.39532,0.68555,0.76078,57.301,17.72
2.384,0.43304,0.63539,0.40025,0.68555,0.7549,56.91,17.254
2.392,0.43304,0.61486,0.4101,0.68555,0.75098,56.519,16.58
2.4,0.43304,0.59335,0.41995,0.68945,0.7451,55.932,15.751
2.408,0.43206,0.5738,0.4298,0.68945,0.74118,55.346,14.974
2.416,0.43109,0.55425,0.43473,0.68945,0.73529,54.954,14.456
2.424,0.42913,0.53372,0.44951,0.68945,0.72157,54.368,14.145
2.432,0.42815,0.5132,0.46552,0.69531,0.7098,53.977,14.145
2.44,0.4262,0.49267,0.48522,0.69922,0.69608,53.585,14.404
2.448,0.42424,0.4741,0.50985,0.70508,0.67647,53.194,14.767
2.456,0.42229,0.45748,0.53941,0.70508,0.6549,52.608,15.181
2.464,0.41935,0.44282,0.5702,0.70898,0.63529,52.021,15.648
2.472,0.41642,0.43011,0.59975,0.70508,0.6098,51.434,15.959
2.48,0.41349,0.41935,0.61946,0.69922,0.59608,51.043,16.01
2.488,0.40958,0.41056,0.62438,0.68945,0.5902,50.847,15.699
2.496,0.40469,0.40371,0.62438,0.67969,0.5902,51.825,15.026
2.504,0.3998,0.39785,0.60468,0.67969,0.6,55.15,14.093
2.512,0.39492,0.39394,0.58005,0.66992,0.61569,61.799,13.212
2.52,0.39101,0.39003,0.55542,0.66406,0.64118,71.186,12.591
2.528,0.38612,0.38612,0.5197,0.66406,0.66471,81.943,12.176
2.536,0.38221,0.38221,0.48522,0.66016,0.6902,92.112,12.176
2.544,0.37732,0.3783,0.46059,0.6543,0.70588,101.11,12.332
2.552,0.37243,0.37439,0.44458,0.64453,0.72157,109.52,12.642
2.56,0.36755,0.3695,0.4298,0.64453,0.73137,116.56,12.953
2.568,0.36266,0.36559,0.41995,0.64062,0.73529,121.25,13.005
2.576,0.35679,0.3607,0.41995,0.63477,0.74118,123.4,12.953
2.584,0.35191,0.35582,0.41995,0.63477,0.73529,123.4,12.642
2.592,0.348,0.34995,0.41995,0.62891,0.74118,122.23,12.28
2.6,0.34311,0.34506,0.42488,0.62891,0.73529,120.47,11.969
2.608,0.3392,0.34115,0.4298,0.62891,0.73137,118.32,11.71
2.616,0.33431,0.33724,0.43473,0.62891,0.72549,115.78,11.503
2.624,0.32942,0.33236,0.43966,0.62891,0.72157,113.23,11.399
2.632,0.32551,0.32747,0.44458,0.63477,0.72157,110.3,11.399
2.64,0.32063,0.3216,0.44951,0.63477,0.72157,107.37,11.451
2.648,0.31574,0.31672,0.44951,0.63477,0.71569,104.43,11.554
2.656,0.31085,0.31085,0.44951,0.63477,0.71569,101.5,11.71
2.664,0.30596,0.30499,0.44951,0.63477,0.71569,98.957,11.865
2.672,0.30205,0.3001,0.44951,0.63477,0.72157,96.415,12.073
2.68,0.29717,0.29423,0.44458,0.63477,0.72157,93.872,12.28
2.688,0.29326,0.28935,0.44458,0.63477,0.72157,91.134,12.435
2.696,0.28935,0.28446,0.44951,0.63477,0.71569,88.396,12.642
2.704,0.28543,0.28055,0.46552,0.64062,0.70588,85.658,12.85
2.712,0.28152,0.27664,0.4803,0.6543,0.69608,82.725,13.005
2.72,0.27664,0.27175,0.49507,0.66016,0.6902,79.791,13.161
2.728,0.27273,0.26686,0.50985,0.66406,0.67647,76.662,13.264
2.736,0.26882,0.261,0.53941,0.66992,0.6549,73.729,13.472
2.744,0.26491,0.25904,0.55049,0.6543,0.6451,70.795,13.679
2.752,0.261,0.26002,0.55049,0.63477,0.6451,68.449,13.99
2.76,0.25806,0.26882,0.53941,0.61914,0.65098,66.493,14.404
2.768,0.25415,0.28543,0.52463,0.61523,0.6549,64.733,14.663
2.776,0.25024,0.31281,0.5,0.61523,0.67647,63.168,14.819
2.784,0.24731,0.34897,0.47044,0.61523,0.7,61.995,14.819
2.792,0.2434,0.39296,0.43473,0.61914,0.72549,61.017,14.663
2.8,0.23949,0.44086,0.41502,0.61914,0.73529,60.235,14.404
2.808,0.23558,0.48387,0.4101,0.61914,0.74118,59.844,14.093
2.816,0.23167,0.52395,0.40517,0.61914,0.75098,59.452,13.782
2.824,0.22776,0.565,0.40025,0.61914,0.75098,59.257,13.575
2.832,0.22385,0.60508,0.40025,0.61914,0.75098,59.257,13.472
2.84,0.22092,0.6393,0.40025,0.61914,0.75098,59.452,13.472
2.848,0.21799,0.66764,0.40025,0.625,0.75098,59.648,13.523
2.856,0.21603,0.6911,0.41995,0.625,0.73529,59.844,13.679
2.864,0.21408,0.7087,0.48522,0.5957,0.68039,60.039,13.938
2.872,0.21212,0.72239,0.63054,0.5293,0.5451,60.235,14.404
2.88,0.21017,0.73021,0.86453,0.41016,0.33529,60.235,14.974
2.888,0.20919,0.73509,1.0246,0.23438,0.18431,60.43,15.648
2.896,0.20723,0.73705,0.88054,0.14453,0.27451,60.235,16.269
2.904,0.20626,0.73509,0.58498,0.25,0.52941,60.235,16.839
2.912,0.20626,0.73118,0.40025,0.43945,0.71569,60.039,17.254
2.92,0.20626,0.7263,0.35468,0.58398,0.77647,59.844,17.461
2.928,0.20626,0.71945,0.35961,0.65039,0.78039,59.648,17.461
2.936,0.20626,0.71065,0.36946,0.67578,0.78039,59.257,17.202
2.944,0.20723,0.6999,0.38054,0.67969,0.77647,58.866,16.788
2.952,0.20723,0.68817,0.38547,0.68555,0.77647,58.475,16.269
2.96,0.20821,0.67449,0.39039,0.68945,0.76667,58.279,15.803
2.968,0.20919,0.65885,0.40025,0.68945,0.76078,57.692,15.492
2.976,0.21114,0.64125,0.4101,0.68945,0.7549,57.301,15.285
2.984,0.2131,0.62268,0.41502,0.68945,0.75098,56.715,15.13
2.992,0.21603,0.60215,0.41995,0.68945,0.74118,56.128,15.026
3,0.21799,0.5826,0.4298,0.68945,0.73529,55.737,14.819
3.008,0.21994,0.56403,0.43473,0.69531,0.73529,55.15,14.663
3.016,0.22092,0.54252,0.44951,0.69922,0.72549,54.759,14.456
3.024,0.22287,0.52102,0.46059,0.69922,0.71569,54.172,14.301
3.032,0.22385,0.49951,0.47537,0.69922,0.70588,53.781,14.301
3.04,0.22483,0.47898,0.49507,0.70508,0.6902,53.194,14.456
3.048,0.22581,0.45943,0.5197,0.70508,0.67059,52.803,14.767
3.056,0.22678,0.44282,0.54557,0.70898,0.65098,52.216,15.13
3.064,0.22776,0.42717,0.58005,0.70508,0.62549,51.63,15.44
3.072,0.22874,0.41447,0.60468,0.69922,0.6,51.043,15.699
3.08,0.22972,0.40371,0.62438,0.69531,0.5902,50.652,15.648
3.088,0.23069,0.39589,0.63054,0.68945,0.58431,50.652,15.13
3.096,0.23167,0.38905,0.62438,0.67969,0.58431,51.63,14.197
3.104,0.23265,0.38416,0.60961,0.67969,0.6,54.954,13.057
3.112,0.23363,0.38025,0.58498,0.67578,0.61569,61.213,12.021
3.12,0.23558,0.37732,0.55542,0.66992,0.63529,70.209,11.347
3.128,0.23656,0.37439,0.52463,0.66406,0.66078,80.574,10.933
3.136,0.23754,0.37048,0.49507,0.6543,0.68627,90.548,10.933
3.144,0.23851,0.36755,0.47537,0.65039,0.7,99.739,11.347
3.152,0.23949,0.36461,0.44951,0.64453,0.71569,108.15,11.865
3.16,0.23949,0.3607,0.43966,0.64062,0.72549,114.8,12.383
3.168,0.23949,0.35679,0.43473,0.64062,0.73137,119.69,12.642
3.176,0.23949,0.35288,0.4298,0.63477,0.73529,122.03,12.591
3.184,0.23851,0.34897,0.4298,0.63477,0.73529,122.43,12.28
3.192,0.23851,0.34409,0.4298,0.63477,0.73137,121.64,11.813
3.2,0.23754,0.34115,0.43473,0.63477,0.73137,119.88,11.399
3.208,0.23656,0.33724,0.43473,0.63477,0.73137,117.73,11.14
3.216,0.23558,0.33333,0.43473,0.62891,0.73137,115.19,11.036
3.224,0.23363,0.32942,0.43473,0.62891,0.73137,112.45,11.088
3.232,0.23265,0.32454,0.43966,0.63477,0.73137,109.71,11.244
3.24,0.23167,0.31965,0.43966,0.63477,0.73137,106.78,11.503
3.248,0.22972,0.31476,0.43966,0.64062,0.72549,103.65,11.762
3.256,0.22874,0.3089,0.44458,0.64062,0.72157,100.91,12.021
3.264,0.22678,0.30401,0.44951,0.64062,0.71569,97.979,12.124
3.272,0.22483,0.29814,0.44951,0.64062,0.71569,95.437,12.28
3.28,0.22385,0.29228,0.44951,0.64062,0.71569,92.699,12.332
3.288,0.22092,0.28739,0.44951,0.64062,0.71569,89.961,12.435
3.296,0.21896,0.2825,0.45443,0.64453,0.7098,87.223,12.591
3.304,0.21701,0.27761,0.47044,0.6543,0.7,84.289,12.85
3.312,0.21408,0.27468,0.48522,0.66406,0.6902,81.356,13.005
3.32,0.21212,0.26979,0.49507,0.67578,0.68627,78.422,13.264
3.328,0.21114,0.26393,0.51478,0.67969,0.67059,75.489,13.472
3.336,0.20919,0.25904,0.53448,0.68555,0.6549,72.555,13.679
3.344,0.20821,0.25611,0.54557,0.66016,0.65098,70.013,13.938
3.352,0.20723,0.25806,0.53941,0.64062,0.65098,67.471,14.197
3.36,0.20626,0.26686,0.52956,0.63477,0.6549,65.515,14.404
3.368,0.20626,0.28446,0.50985,0.625,0.67059,63.755,14.404
3.376,0.20626,0.31085,0.4803,0.625,0.6902,62.386,14.145
3.384,0.20528,0.34702,0.44458,0.625,0.72157,61.017,13.627
3.392,0.20528,0.39101,0.41502,0.625,0.73529,60.039,13.057
3.4,0.20528,0.43206,0.40025,0.625,0.7451,59.257,12.487
3.408,0.20626,0.47312,0.39532,0.625,0.75098,58.866,12.021
3.416,0.20626,0.51808,0.39532,0.625,0.7549,58.475,11.762
3.424,0.20626,0.56207,0.39532,0.625,0.7549,58.475,11.71
3.432,0.20626,0.60313,0.39039,0.61914,0.7549,58.475,11.813
3.44,0.20723,0.63832,0.39532,0.61914,0.7549,58.475,12.176
3.448,0.20723,0.66764,0.40517,0.62891,0.75098,58.67,12.694
3.456,0.20821,0.69208,0.43473,0.61523,0.72157,58.866,13.264
3.464,0.20821,0.70968,0.52956,0.57031,0.62549,58.866,13.886
3.472,0.20919,0.72336,0.7303,0.49023,0.4451,59.061,14.56
3.48,0.21017,0.73216,0.94951,0.3457,0.2451,59.257,15.285
3.488,0.21212,0.73705,0.99015,0.21094,0.19412,59.257,15.751
3.496,0.21408,0.739,0.6798,0.18945,0.42941,59.257,16.01
3.504,0.21701,0.73705,0.43966,0.375,0.66471,59.061,16.062
3.512,0.22092,0.73314,0.35961,0.53906,0.76667,58.866,15.907
3.52,0.22385,0.72727,0.35468,0.63477,0.78627,58.67,15.648
3.528,0.22874,0.71945,0.36946,0.66992,0.78039,58.279,15.44
3.536,0.23265,0.71065,0.37562,0.67969,0.77647,58.083,15.285
3.544,0.23754,0.69892,0.37562,0.68555,0.77647,57.692,15.13
3.552,0.24145,0.68622,0.38054,0.68945,0.77647,57.106,15.078
3.56,0.24633,0.67155,0.38547,0.68945,0.77059,56.715,15.026
3.568,0.25122,0.65591,0.39532,0.68945,0.76078,56.128,14.974
3.576,0.25806,0.63734,0.40517,0.68945,0.7549,55.737,14.819
3.584,0.26393,0.61779,0.4101,0.69531,0.75098,55.15,14.456
3.592,0.27175,0.59629,0.41995,0.69531,0.74118,54.563,13.99
3.6,0.27957,0.57576,0.4298,0.69922,0.73529,53.977,13.472
3.608,0.28739,0.55718,0.43473,0.69922,0.73137,53.585,12.953
3.616,0.29619,0.53568,0.44951,0.69922,0.72549,52.999,12.642
3.624,0.30499,0.51417,0.46059,0.70508,0.71569,52.608,12.487
3.632,0.31281,0.49267,0.4803,0.70508,0.69608,52.021,12.746
3.64,0.3216,0.47214,0.50493,0.70508,0.68039,51.63,13.264
3.648,0.32942,0.45357,0.53448,0.70508,0.66078,51.043,13.99
3.656,0.33724,0.43695,0.56527,0.70508,0.64118,50.652,14.663
3.664,0.34604,0.42131,0.59483,0.70508,0.61569,50.065,14.87
3.672,0.35386,0.4086,0.61946,0.69922,0.5902,49.479,14.56
3.68,0.36266,0.39883,0.63547,0.69922,0.58039,48.892,13.679
3.688,0.37048,0.39003,0.65517,0.70508,0.57059,48.892,12.591
3.696,0.37928,0.38319,0.6798,0.70898,0.56078,49.87,11.451
3.704,0.3871,0.3783,0.69458,0.7207,0.55098,53.194,10.725
3.712,0.39589,0.37439,0.69458,0.72461,0.5549,59.648,10.311
3.72,0.40371,0.37146,0.68473,0.73047,0.56078,69.035,10.311
3.728,0.41251,0.36755,0.6601,0.71484,0.58039,79.791,10.57
3.736,0.42131,0.36461,0.61453,0.69531,0.61569,90.352,11.036
3.744,0.43011,0.36168,0.55542,0.67969,0.6549,99.544,11.399
3.752,0.43891,0.35875,0.48522,0.66016,0.69608,107.76,11.762
3.76,0.44868,0.35582,0.44458,0.64453,0.72549,114.6,11.865
3.768,0.45846,0.35191,0.41502,0.63477,0.74118,119.3,11.762
3.776,0.46823,0.34897,0.40025,0.63477,0.7451,121.25,11.399
3.784,0.47703,0.34506,0.40025,0.62891,0.75098,121.25,11.036
3.792,0.4868,0.34018,0.40025,0.62891,0.75098,120.08,10.829
3.8,0.49462,0.33529,0.40025,0.625,0.75098,118.12,10.777
3.808,0.50342,0.33138,0.40025,0.625,0.75098,115.97,10.881
3.816,0.51026,0.32747,0.40025,0.625,0.75098,113.23,11.088
3.824,0.51808,0.3216,0.40025,0.61914,0.7451,110.3,11.399
3.832,0.5259,0.31672,0.40025,0.61914,0.7451,107.37,11.762
3.84,0.53372,0.31085,0.40025,0.61914,0.7451,104.24,12.28
3.848,0.54154,0.30499,0.40517,0.61914,0.74118,101.11,13.212
3.856,0.54936,0.29912,0.4101,0.61914,0.74118,98.37,14.663
3.864,0.55621,0.29326,0.4101,0.625,0.73529,95.828,16.425
3.872,0.56305,0.28739,0.45443,0.59961,0.69608,93.09,18.342
3.88,0.56891,0.2825,0.61453,0.54492,0.56078,90.352,19.896
3.888,0.5738,0.27664,0.88547,0.42578,0.34902,87.81,20.881
3.896,0.57967,0.27175,1.0345,0.24609,0.2098,85.072,21.244
3.904,0.58553,0.26784,0.88054,0.16992,0.32353,82.334,21.192
3.912,0.5914,0.26393,0.5899,0.29102,0.56078,79.4,20.881
3.92,0.59726,0.25904,0.43966,0.48047,0.7,76.271,20.311
3.928,0.60313,0.25318,0.40025,0.60547,0.75098,73.338,19.637
3.936,0.60802,0.24829,0.39039,0.66016,0.76078,70.6,19.067
3.944,0.61388,0.24633,0.39039,0.67969,0.76667,68.057,18.756
3.952,0.61877,0.24927,0.39039,0.68555,0.76667,65.906,18.705
3.96,0.62268,0.26002,0.39532,0.68555,0.76667,63.95,18.964
3.968,0.62757,0.28055,0.40025,0.68945,0.76078,62.386,19.275
3.976,0.63148,0.31085,0.40517,0.68945,0.7549,61.017,19.585
3.984,0.63539,0.34995,0.41502,0.68945,0.75098,60.039,19.896
3.992,0.63832,0.39492,0.41995,0.69531,0.7451,59.257,20.155
4,0.64125,0.43793,0.42488,0.69922,0.74118,58.67,20.155
4.008,0.64418,0.47898,0.43473,0.69922,0.73529,58.279,19.845
4.016,0.64712,0.52395,0.44458,0.69922,0.72549,58.279,19.223
4.024,0.64809,0.56696,0.45443,0.70508,0.72157,58.475,18.342
4.032,0.64907,0.60704,0.46552,0.70898,0.7098,58.67,17.409
4.04,0.65005,0.64027,0.4803,0.71484,0.69608,59.061,16.58
4.048,0.65005,0.66862,0.50493,0.72461,0.68627,59.452,16.062
4.056,0.65005,0.69013,0.52956,0.72461,0.66471,59.844,15.751
4.064,0.65005,0.70674,0.56034,0.73047,0.6451,60.235,15.751
4.072,0.65005,0.71848,0.58005,0.72461,0.62549,60.626,15.907
4.08,0.65005,0.7263,0.5899,0.71484,0.61961,61.017,16.218
4.088,0.65005,0.72923,0.59483,0.70508,0.61569,61.408,16.528
4.096,0.64907,0.73021,0.5899,0.69531,0.61961,61.604,16.58
4.104,0.64907,0.72825,0.57512,0.68555,0.62941,62.19,16.321
4.112,0.64809,0.72336,0.55542,0.66992,0.6451,63.755,15.907
4.12,0.64809,0.71652,0.53448,0.66406,0.66078,66.688,15.337
4.128,0.64712,0.7087,0.50985,0.66016,0.68039,71.382,14.819
4.136,0.64712,0.6999,0.48522,0.6543,0.69608,78.031,14.456
4.144,0.64614,0.68817,0.46552,0.64453,0.7098,85.463,14.145
4.152,0.64418,0.67546,0.46059,0.64062,0.71569,92.894,13.886
4.16,0.64223,0.66178,0.45443,0.64062,0.72157,99.544,13.782
4.168,0.64027,0.64516,0.45443,0.64062,0.72157,105.02,13.627
4.176,0.63734,0.62757,0.45443,0.64062,0.72157,109.13,13.575
4.184,0.63441,0.60802,0.45443,0.64062,0.72157,111.47,13.627
4.192,0.63148,0.58749,0.45443,0.64453,0.71569,112.06,13.627
4.2,0.62854,0.56794,0.45443,0.64453,0.71569,111.08,13.627
4.208,0.62561,0.54936,0.45443,0.64453,0.71569,109.13,13.627
4.216,0.6217,0.52981,0.45443,0.64453,0.71569,106.39,13.627
4.224,0.61779,0.50929,0.45443,0.64453,0.71569,103.26,13.575
4.232,0.61193,0.48974,0.45443,0.64062,0.71569,99.935,13.472
4.24,0.60704,0.47116,0.45443,0.64062,0.71569,96.61,13.316
4.248,0.60117,0.45552,0.45443,0.64062,0.71569,93.09,13.212
4.256,0.59629,0.44184,0.45443,0.64062,0.71569,89.57,13.057
4.264,0.58944,0.43011,0.44951,0.63477,0.71569,86.245,13.057
4.272,0.58358,0.42033,0.44951,0.63477,0.71569,82.725,13.161
4.28,0.57771,0.41349,0.44458,0.63477,0.72157,79.205,13.264
4.288,0.57283,0.40762,0.43966,0.63477,0.72549,75.685,13.523
4.296,0.56794,0.40469,0.43966,0.63477,0.73137,72.164,13.834
4.304,0.56207,0.40176,0.43966,0.63477,0.72549,69.035,14.197
4.312,0.55718,0.40078,0.43966,0.63477,0.72157,66.102,14.508
4.32,0.55132,0.39883,0.44458,0.63477,0.72157,63.559,14.819
4.328,0.54545,0.39687,0.44458,0.63477,0.72157,61.213,15.026
4.336,0.53861,0.39492,0.44458,0.63477,0.72549,59.257,15.078
4.344,0.53275,0.39296,0.44458,0.62891,0.72157,57.497,14.974
4.352,0.52688,0.39101,0.44951,0.62891,0.72157,56.128,14.715
4.36,0.52102,0.39003,0.44951,0.62891,0.71569,54.954,14.456
4.368,0.51417,0.39198,0.46059,0.64062,0.7098,54.172,14.145
4.376,0.50733,0.39883,0.47537,0.65039,0.69608,53.585,13.938
4.384,0.49951,0.41056,0.49507,0.66016,0.6902,53.39,13.782
4.392,0.49071,0.42815,0.50985,0.66406,0.68039,53.39,13.679
4.4,0.48192,0.44673,0.53448,0.66992,0.66078,53.585,13.679
4.408,0.47214,0.46823,0.56034,0.66016,0.6451,53.977,13.679
4.416,0.46237,0.49462,0.56527,0.64062,0.64118,54.563,13.782
4.424,0.45259,0.52395,0.55542,0.625,0.64118,55.15,13.679
4.432,0.44184,0.55327,0.54557,0.61914,0.65098,55.541,13.627
4.44,0.43206,0.58065,0.5197,0.61914,0.66078,56.128,13.627
4.448,0.42229,0.60411,0.49507,0.61523,0.68627,56.519,13.575
4.456,0.41251,0.62268,0.46059,0.61523,0.7098,56.91,13.523
4.464,0.40371,0.63539,0.43473,0.61523,0.72549,57.106,13.472
4.472,0.39492,0.64418,0.42488,0.61523,0.73137,57.106,13.472
4.48,0.38612,0.64809,0.41995,0.61523,0.73529,57.106,13.472
4.488,0.37732,0.64809,0.41995,0.61523,0.74118,57.106,13.523
4.496,0.36852,0.64516,0.41995,0.61914,0.74118,56.91,13.627
4.504,0.36168,0.63832,0.41995,0.61914,0.74118,56.715,13.782
4.512,0.35484,0.6305,0.42488,0.625,0.73529,56.519,13.834
4.52,0.348,0.61975,0.44951,0.62891,0.71569,56.128,13.99
4.528,0.34213,0.60606,0.52956,0.58008,0.64118,55.541,14.249
4.536,0.33822,0.59042,0.71552,0.5,0.48039,55.346,14.56
4.544,0.33333,0.57185,0.97044,0.36523,0.25882,54.759,15.13
4.552,0.32942,0.55132,1.0603,0.20117,0.16471,54.368,15.803
4.56,0.32649,0.52981,0.8399,0.15625,0.32353,53.977,16.632
4.568,0.32356,0.50635,0.53941,0.29492,0.58431,53.585,17.461
4.576,0.3216,0.48192,0.39532,0.48438,0.73529,52.999,18.031
4.584,0.31965,0.45846,0.36453,0.60547,0.77647,52.608,18.342
4.592,0.31867,0.435,0.36946,0.6543,0.78039,52.216,18.342
4.6,0.31769,0.41447,0.37562,0.66992,0.77647,51.825,18.031
4.608,0.31672,0.39785,0.38547,0.67969,0.77647,51.434,17.461
4.616,0.31574,0.38025,0.39039,0.67969,0.77059,51.043,16.788
4.624,0.31574,0.36364,0.39532,0.67969,0.76667,50.652,16.062
4.632,0.31476,0.34995,0.40025,0.68555,0.76078,50.261,15.596
4.64,0.31476,0.33822,0.4101,0.68555,0.7549,49.87,15.337
4.648,0.31378,0.32845,0.41502,0.68555,0.75098,49.479,15.181
4.656,0.31281,0.32258,0.41995,0.68555,0.74118,49.087,15.13
4.664,0.31183,0.31769,0.43473,0.68555,0.73529,48.892,15.078
4.672,0.31183,0.31574,0.44458,0.68555,0.73137,48.501,14.974
4.68,0.30987,0.31476,0.45443,0.68555,0.72157,48.11,14.819
4.688,0.3089,0.31476,0.46552,0.68555,0.7098,47.718,14.767
4.696,0.30596,0.31476,0.4803,0.68945,0.69608,47.523,14.767
4.704,0.30401,0.31672,0.5,0.68945,0.68039,47.132,14.819
4.712,0.30108,0.31769,0.52463,0.69922,0.66471,46.936,14.974
4.72,0.29814,0.31867,0.56034,0.69922,0.64118,46.741,15.337
4.728,0.29619,0.31867,0.5899,0.69922,0.61961,46.349,15.803
4.736,0.29326,0.31769,0.60961,0.69531,0.6,45.958,16.218
4.744,0.29032,0.31574,0.63054,0.68555,0.5902,45.763,16.062
4.752,0.28739,0.31378,0.63547,0.67969,0.58431,45.958,15.285
4.76,0.28543,0.31183,0.63054,0.67969,0.5902,47.718,13.938
4.768,0.28348,0.3089,0.61453,0.66992,0.6,52.608,12.591
4.776,0.28152,0.30499,0.5899,0.66406,0.61569,61.408,11.503
4.784,0.28055,0.30108,0.56034,0.66016,0.63529,72.751,10.933
4.792,0.27859,0.29717,0.52463,0.66016,0.66078,84.681,10.829
4.8,0.27664,0.29423,0.5,0.6543,0.68039,95.632,11.14
4.808,0.27468,0.2913,0.4803,0.6543,0.69608,105.22,11.71
4.816,0.27273,0.28837,0.46059,0.65039,0.7098,113.62,12.332
4.824,0.27077,0.28348,0.44951,0.64453,0.71569,120.27,12.746
4.832,0.26979,0.27859,0.43966,0.64062,0.72157,124.38,12.746
4.84,0.26784,0.2737,0.43966,0.64062,0.72549,125.55,12.435
4.848,0.26686,0.26882,0.43966,0.64062,0.72157,124.77,12.021
4.856,0.26588,0.26491,0.44458,0.64062,0.72157,123.01,11.554
4.864,0.26393,0.26002,0.44951,0.64062,0.71569,120.67,11.347
4.872,0.26197,0.25611,0.45443,0.64062,0.71569,117.73,11.244
4.88,0.26002,0.2522,0.45443,0.64062,0.71569,114.41,11.244
4.888,0.25806,0.24829,0.46059,0.64062,0.71569,110.89,11.347
4.896,0.25513,0.24633,0.46059,0.64062,0.71569,107.37,11.399
4.904,0.2522,0.24438,0.46059,0.64062,0.7098,104.04,11.503
4.912,0.24927,0.24242,0.46552,0.64062,0.7098,100.72,11.71
4.92,0.24633,0.23949,0.46552,0.64453,0.7098,97.393,11.865
4.928,0.24438,0.23754,0.46552,0.64453,0.7098,94.263,12.021
4.936,0.24145,0.2346,0.46059,0.64453,0.7098,91.33,12.176
4.944,0.23851,0.23265,0.46059,0.64453,0.7098,88.396,12.383
4.952,0.23558,0.23069,0.46059,0.64453,0.7098,85.463,12.591
4.96,0.23265,0.22972,0.46059,0.64062,0.7098,82.529,12.746
4.968,0.22972,0.22776,0.46552,0.64453,0.70588,79.791,13.057
4.976,0.22678,0.22483,0.4803,0.6543,0.69608,76.662,13.523
4.984,0.22385,0.2219,0.49507,0.66406,0.68627,73.729,13.938
4.992,0.22092,0.21994,0.5,0.67578,0.67647,70.991,14.301
5,0.21799,0.21994,0.52463,0.68555,0.66471,68.644,14.715
5.008,0.21603,0.2219,0.55049,0.67969,0.65098,66.493,15.026
5.016,0.2131,0.22972,0.56034,0.66016,0.6451,64.733,15.285
5.024,0.21114,0.24438,0.55542,0.64062,0.6451,63.168,15.337
5.032,0.20919,0.26784,0.54557,0.625,0.6451,61.995,15.181
5.04,0.20626,0.30303,0.52463,0.61914,0.6549,61.017,14.767
5.048,0.2043,0.34702,0.5,0.61914,0.68039,60.235,14.249
5.056,0.20235,0.39883,0.46059,0.61914,0.70588,59.648,13.679
5.064,0.20039,0.45455,0.43473,0.61914,0.72549,59.257,13.264
5.072,0.19941,0.51124,0.41995,0.61914,0.73529,59.061,12.953
5.08,0.19746,0.565,0.41502,0.61914,0.74118,59.061,12.902
5.088,0.19648,0.61486,0.41502,0.61914,0.74118,59.061,13.005
5.096,0.19648,0.65298,0.4101,0.61914,0.74118,59.257,13.264
5.104,0.1955,0.68231,0.40517,0.61914,0.7451,59.452,13.523
5.112,0.1955,0.70968,0.40517,0.61914,0.75098,59.648,13.834
5.12,0.19453,0.73314,0.4101,0.62891,0.74118,59.844,13.99
5.128,0.19453,0.75171,0.44458,0.63477,0.71569,60.039,14.197
5.136,0.1955,0.7654,0.53448,0.58008,0.63529,60.039,14.456
5.144,0.1955,0.77419,0.72537,0.49414,0.46471,60.039,14.767
5.152,0.19648,0.7781,0.96552,0.33984,0.24902,60.039,15.285
5.16,0.19746,0.77908,1.0296,0.18945,0.17843,59.844,15.803
5.168,0.19941,0.77713,0.76478,0.16016,0.37059,59.844,16.373
5.176,0.20137,0.77224,0.49015,0.33594,0.61961,59.648,16.788
5.184,0.20332,0.76442,0.38054,0.50977,0.75098,59.257,16.995
5.192,0.20626,0.75464,0.36453,0.61914,0.77647,58.866,17.098
5.2,0.20919,0.74389,0.37562,0.66016,0.78039,58.475,16.891
5.208,0.2131,0.73118,0.38547,0.67578,0.78039,58.279,16.58
5.216,0.21603,0.71652,0.38547,0.67969,0.77647,57.692,16.062
5.224,0.21994,0.70088,0.39039,0.68555,0.77059,57.301,15.648
5.232,0.22385,0.68231,0.39532,0.68555,0.76078,56.91,15.285
5.24,0.22678,0.66276,0.40517,0.68945,0.7549,56.323,15.13
5.248,0.23069,0.64125,0.41502,0.68945,0.75098,55.932,15.13
5.256,0.23363,0.61975,0.41995,0.68555,0.74118,55.346,15.13
5.264,0.23656,0.59726,0.4298,0.68555,0.73529,54.954,15.078
5.272,0.23949,0.5738,0.43966,0.68945,0.73137,54.368,14.87
5.28,0.24242,0.5523,0.44951,0.68945,0.72549,53.781,14.56
5.288,0.24536,0.53079,0.46059,0.68945,0.71569,53.39,14.301
5.296,0.24829,0.5132,0.47537,0.68945,0.7098,52.999,14.197
5.304,0.25024,0.49853,0.49015,0.69531,0.7,52.412,14.249
5.312,0.25318,0.48387,0.50985,0.69922,0.68627,52.021,14.508
5.32,0.25415,0.47116,0.53941,0.70508,0.66078,51.63,14.87
5.328,0.25611,0.45943,0.5702,0.70508,0.64118,51.043,15.337
5.336,0.25709,0.44868,0.59975,0.70508,0.61569,50.652,15.699
5.344,0.25904,0.44086,0.61946,0.69922,0.6,50.065,15.803
5.352,0.26002,0.43304,0.63054,0.69531,0.58431,49.87,15.492
5.36,0.261,0.42717,0.63547,0.68555,0.58431,50.065,14.663
5.368,0.26197,0.42229,0.61946,0.67969,0.59608,52.021,13.472
5.376,0.26295,0.4174,0.59975,0.67969,0.6098,56.715,12.176
5.384,0.26491,0.41349,0.5702,0.67578,0.62941,64.342,11.244
5.392,0.26588,0.40958,0.54557,0.66992,0.65098,74.316,10.777
5.4,0.26686,0.40665,0.51478,0.66016,0.67647,84.681,10.622
5.408,0.26882,0.40371,0.48522,0.6543,0.6902,94.263,10.829
5.416,0.26882,0.3998,0.46552,0.6543,0.7098,103.06,11.399
5.424,0.26979,0.39589,0.44951,0.64453,0.72157,110.69,12.021
5.432,0.27077,0.39101,0.43966,0.64453,0.73137,116.75,12.435
5.44,0.27175,0.38612,0.43473,0.64062,0.73529,120.47,12.487
5.448,0.27175,0.38123,0.4298,0.64062,0.73529,121.84,12.28
5.456,0.27273,0.37537,0.43473,0.63477,0.73529,121.64,11.813
5.464,0.27175,0.37048,0.43473,0.63477,0.73529,120.27,11.399
5.472,0.27175,0.36461,0.43473,0.63477,0.73137,118.51,11.14
5.48,0.27175,0.35875,0.43966,0.63477,0.72157,116.17,11.036
5.488,0.27077,0.35288,0.44951,0.63477,0.72157,113.62,11.14
5.496,0.26979,0.348,0.45443,0.63477,0.72157,110.89,11.244
5.504,0.26882,0.34409,0.45443,0.63477,0.72157,107.76,11.451
5.512,0.26686,0.3392,0.45443,0.63477,0.72157,104.63,11.658
5.52,0.26491,0.33333,0.45443,0.63477,0.72157,101.5,11.762
5.528,0.26295,0.32845,0.46059,0.63477,0.71569,98.761,11.969
5.536,0.261,0.32258,0.45443,0.63477,0.71569,96.219,12.124
5.544,0.25806,0.31672,0.45443,0.63477,0.72157,93.481,12.176
5.552,0.25513,0.31183,0.44951,0.64062,0.72157,90.743,12.28
5.56,0.25318,0.30596,0.45443,0.64062,0.71569,88.005,12.332
5.568,0.25122,0.30108,0.46552,0.64453,0.7098,85.267,12.435
5.576,0.24927,0.29521,0.4803,0.6543,0.69608,82.334,12.591
5.584,0.24731,0.29032,0.49507,0.66406,0.6902,79.4,12.746
5.592,0.24633,0.28446,0.50493,0.66992,0.68039,76.467,12.953
5.6,0.24536,0.27957,0.53448,0.67969,0.66471,73.533,13.212
5.608,0.24438,0.27761,0.55542,0.66406,0.65098,70.6,13.575
5.616,0.2434,0.27664,0.56034,0.64453,0.6451,68.253,13.938
5.624,0.24242,0.27957,0.54557,0.62891,0.6451,66.102,14.404
5.632,0.24145,0.29032,0.52956,0.625,0.6549,64.342,14.56
5.64,0.23949,0.3089,0.5,0.61914,0.67059,62.777,14.508
5.648,0.23851,0.33822,0.47044,0.61914,0.7,61.408,14.093
5.656,0.23754,0.37634,0.43473,0.625,0.72549,60.43,13.472
5.664,0.23656,0.42131,0.41502,0.625,0.7451,59.648,12.694
5.672,0.23558,0.47116,0.40517,0.625,0.75098,59.061,12.124
5.68,0.23558,0.52102,0.40025,0.625,0.7549,58.67,11.813
5.688,0.2346,0.56891,0.39532,0.61914,0.7549,58.475,11.658
5.696,0.2346,0.60802,0.39532,0.61914,0.7549,58.475,11.762
5.704,0.23363,0.64027,0.39532,0.61914,0.7549,58.475,12.021
5.712,0.23363,0.67058,0.40025,0.625,0.7549,58.475,12.435
5.72,0.23363,0.69697,0.4101,0.63477,0.74118,58.67,13.005
5.728,0.23363,0.7175,0.45443,0.60938,0.7,58.866,13.679
5.736,0.23363,0.73412,0.58005,0.55469,0.58039,58.866,14.404
5.744,0.23363,0.74585,0.80049,0.45508,0.38039,59.061,15.026
5.752,0.2346,0.75269,0.9803,0.30469,0.2098,59.061,15.648
5.76,0.23558,0.7566,0.88547,0.18945,0.19412,59.061,16.01
5.768,0.23754,0.7566,0.59975,0.25586,0.50588,59.061,16.114
5.776,0.23949,0.75464,0.4101,0.42578,0.70588,58.866,16.062
5.784,0.24145,0.74976,0.35468,0.57422,0.77647,58.67,15.803
5.792,0.2434,0.74194,0.35961,0.64453,0.78627,58.279,15.596
5.8,0.24633,0.73412,0.36946,0.67578,0.78039,58.083,15.337
5.808,0.24829,0.72434,0.38054,0.68555,0.78039,57.692,15.13
5.816,0.2522,0.71261,0.38547,0.68555,0.77647,57.301,14.974
5.824,0.25513,0.6999,0.39039,0.68945,0.77059,56.91,14.87
5.832,0.26002,0.68426,0.39532,0.68945,0.76667,56.519,14.87
5.84,0.26393,0.66373,0.40517,0.69531,0.76078,55.932,14.819
5.848,0.26979,0.6393,0.41502,0.68945,0.75098,55.346,14.663
5.856,0.27566,0.61681,0.41995,0.69531,0.7451,54.954,14.301
5.864,0.28152,0.59531,0.43473,0.69531,0.74118,54.368,13.834
5.872,0.28837,0.57478,0.43966,0.69531,0.73137,53.781,13.316
5.88,0.29423,0.55327,0.45443,0.69922,0.72157,53.194,12.902
5.888,0.3001,0.53275,0.46552,0.69922,0.71569,52.803,12.642
5.896,0.30596,0.51417,0.47537,0.70508,0.70588,52.216,12.642
5.904,0.31183,0.49853,0.49507,0.70508,0.6902,51.825,13.005
5.912,0.31769,0.48192,0.5197,0.70508,0.67647,51.434,13.679
5.92,0.32454,0.46628,0.55049,0.70508,0.65098,50.847,14.456
5.928,0.3304,0.45259,0.58498,0.70508,0.62549,50.261,15.026
5.936,0.33627,0.43988,0.60961,0.70508,0.6,49.674,15.13
5.944,0.34213,0.42913,0.62438,0.69922,0.5902,49.087,14.715
5.952,0.34897,0.41935,0.63547,0.68945,0.58431,48.892,13.679
5.96,0.35386,0.41251,0.63547,0.68945,0.58431,49.087,12.487
5.968,0.35973,0.40567,0.61946,0.68555,0.5902,51.043,11.503
5.976,0.36657,0.40078,0.59975,0.67969,0.60588,55.737,10.881
5.984,0.37341,0.39687,0.5702,0.67578,0.62941,63.95,10.622
5.992,0.38025,0.39296,0.53941,0.66992,0.65098,74.316,10.777
6,0.38807,0.39101,0.50985,0.66992,0.67059,85.267,11.088
6.008,0.39589,0.38905,0.4803,0.66406,0.6902,95.437,11.554
6.016,0.40469,0.38612,0.46552,0.66016,0.70588,104.24,12.073
6.024,0.41349,0.38319,0.45443,0.6543,0.71569,111.86,12.435
6.032,0.42229,0.38025,0.44458,0.65039,0.72157,117.73,12.591
6.04,0.43109,0.37732,0.43966,0.64453,0.72549,121.06,12.435
6.048,0.43891,0.37439,0.43473,0.64453,0.72549,122.23,12.176
6.056,0.44575,0.37048,0.43966,0.64062,0.72157,121.25,12.021
6.064,0.45357,0.36657,0.43966,0.64062,0.72157,119.49,11.865
6.072,0.46041,0.36266,0.44458,0.64062,0.72157,117.34,11.865
6.08,0.46725,0.35777,0.44951,0.64062,0.71569,114.8,12.073
6.088,0.4741,0.35386,0.44951,0.64062,0.71569,111.86,12.332
6.096,0.48192,0.34995,0.45443,0.64453,0.7098,108.74,12.487
6.104,0.48778,0.34604,0.46059,0.64062,0.7098,105.8,12.694
6.112,0.49365,0.34213,0.46552,0.64062,0.7098,102.87,12.85
6.12,0.49853,0.33724,0.46552,0.64062,0.7098,100.13,12.953
6.128,0.50342,0.33138,0.46552,0.64062,0.7098,97.393,13.057
6.136,0.50831,0.32649,0.46552,0.64062,0.7098,94.459,13.264
6.144,0.5132,0.3216,0.46552,0.64062,0.7098,91.917,13.523
6.152,0.51711,0.31672,0.47044,0.64453,0.7098,88.983,13.834
6.16,0.52199,0.31183,0.4803,0.6543,0.7,86.245,14.301
6.168,0.5259,0.30596,0.49507,0.66406,0.6902,83.507,15.13
6.176,0.52981,0.30108,0.50493,0.66992,0.68627,80.769,16.218
6.184,0.53372,0.29521,0.51478,0.67969,0.67647,77.836,17.15
6.192,0.53666,0.29032,0.53941,0.68555,0.66471,74.902,17.72
6.2,0.53959,0.28543,0.56034,0.66992,0.65098,72.164,17.72
6.208,0.5435,0.28348,0.56034,0.65039,0.65098,69.426,17.306
6.216,0.54545,0.28348,0.55049,0.64062,0.65098,66.884,16.839
6.224,0.54839,0.28739,0.53941,0.63477,0.65098,64.928,16.425
6.232,0.55034,0.29814,0.5197,0.62891,0.66471,63.168,16.062
6.24,0.5523,0.31672,0.49015,0.63477,0.68627,61.799,15.751
6.248,0.55425,0.34506,0.46059,0.63477,0.7098,60.626,15.596
6.256,0.55523,0.38025,0.43473,0.64062,0.72549,59.844,15.44
6.264,0.55621,0.42229,0.4298,0.64062,0.73529,59.061,15.389
6.272,0.55718,0.46628,0.42488,0.63477,0.73529,58.67,15.44
6.28,0.55718,0.51124,0.41995,0.62891,0.73529,58.279,15.492
6.288,0.55816,0.55327,0.41995,0.62891,0.73529,58.279,15.596
6.296,0.55718,0.58749,0.41995,0.63477,0.74118,58.475,15.648
6.304,0.55718,0.61486,0.41995,0.63477,0.73529,58.67,15.699
6.312,0.55621,0.64027,0.44458,0.64062,0.72157,59.061,15.803
6.32,0.55523,0.66276,0.50985,0.60938,0.66078,59.257,15.907
6.328,0.55425,0.68035,0.67488,0.55078,0.52549,59.648,16.01
6.336,0.55425,0.69501,0.93473,0.43555,0.31961,59.844,16.114
6.344,0.55327,0.70479,1.1096,0.25977,0.16863,60.235,16.425
6.352,0.5523,0.71065,0.96552,0.16602,0.24902,60.235,16.839
6.36,0.55132,0.71359,0.63547,0.25586,0.5098,60.43,17.306
6.368,0.55132,0.71359,0.42488,0.44531,0.7,60.43,17.772
6.376,0.55034,0.71163,0.36946,0.58984,0.76078,60.235,18.083
6.384,0.54936,0.70674,0.37562,0.66016,0.76667,60.039,18.238
6.392,0.54839,0.6999,0.38054,0.67969,0.76667,59.844,18.446
6.4,0.54839,0.69208,0.38547,0.68555,0.76667,59.452,18.912
6.408,0.54741,0.68328,0.39039,0.68945,0.76667,59.061,19.223
6.416,0.54643,0.67253,0.39532,0.68945,0.76078,58.67,18.705
6.424,0.54545,0.6608,0.40025,0.68945,0.7549,58.279,16.995
6.432,0.54545,0.64712,0.4101,0.68945,0.75098,57.888,14.974
6.44,0.54448,0.63148,0.41502,0.68945,0.74118,57.497,13.679
6.448,0.5435,0.61388,0.42488,0.68945,0.73529,56.91,13.886
6.456,0.54252,0.59629,0.43473,0.68945,0.73137,56.323,14.87
6.464,0.54154,0.57674,0.43966,0.68945,0.72549,55.932,15.751
6.472,0.53959,0.55718,0.45443,0.69531,0.72157,55.346,16.218
6.48,0.53861,0.53666,0.46552,0.69922,0.7098,54.759,16.269
6.488,0.53666,0.51711,0.47537,0.69922,0.70588,54.172,16.321
6.496,0.5347,0.50049,0.49507,0.69922,0.6902,53.781,16.321
6.504,0.53177,0.4868,0.5197,0.70508,0.67059,53.194,16.114
6.512,0.52981,0.47214,0.55542,0.70508,0.65098,52.608,15.751
6.52,0.52786,0.45846,0.58498,0.70898,0.62549,52.021,15.389
6.528,0.5259,0.44673,0.60961,0.70508,0.6,51.434,15.337
6.536,0.52493,0.43695,0.63054,0.69531,0.5902,50.847,15.44
6.544,0.52297,0.42913,0.63547,0.68945,0.58431,50.652,15.44
6.552,0.52102,0.42229,0.63547,0.67969,0.58431,51.63,15.181
6.56,0.51906,0.4174,0.61453,0.66992,0.59608,54.954,14.715
6.568,0.51711,0.41349,0.5899,0.66406,0.61569,61.604,14.145
6.576,0.51515,0.41056,0.56034,0.66016,0.63529,71.186,13.679
6.584,0.5132,0.40762,0.52463,0.66016,0.66078,81.943,13.523
6.592,0.51222,0.40665,0.49507,0.6543,0.68039,92.112,13.368
6.6,0.51026,0.40567,0.47044,0.65039,0.70588,101.11,13.316
6.608,0.50831,0.40371,0.44951,0.64453,0.71569,109.52,13.368
6.616,0.50635,0.40176,0.43473,0.64453,0.72549,116.36,13.316
6.624,0.50342,0.39883,0.4298,0.64062,0.73137,120.86,13.264
6.632,0.50049,0.39589,0.42488,0.64062,0.73529,122.82,13.057
6.64,0.49756,0.39296,0.42488,0.63477,0.73529,122.82,12.85
6.648,0.49267,0.38905,0.42488,0.63477,0.73137,121.64,12.642
6.656,0.48778,0.38612,0.4298,0.63477,0.73137,119.88,12.435
6.664,0.48192,0.38221,0.43473,0.63477,0.72549,117.73,12.28
6.672,0.47605,0.37732,0.43473,0.63477,0.72549,115.19,12.124
6.68,0.46921,0.37341,0.43966,0.64062,0.72157,112.45,12.021
6.688,0.46237,0.36852,0.43966,0.64062,0.72157,109.71,11.865
6.696,0.45552,0.36559,0.44951,0.64062,0.71569,106.78,11.813
6.704,0.44868,0.36266,0.44951,0.64062,0.71569,103.65,11.762
6.712,0.43988,0.35875,0.45443,0.64062,0.71569,100.91,11.762
6.72,0.43109,0.35386,0.45443,0.64062,0.71569,97.979,11.762
6.728,0.42131,0.34995,0.45443,0.64062,0.71569,95.437,11.865
6.736,0.41056,0.34506,0.44951,0.64062,0.71569,92.699,12.021
6.744,0.40078,0.34018,0.44951,0.64062,0.71569,89.961,12.28
6.752,0.39198,0.33529,0.44951,0.64062,0.7098,87.223,12.435
6.76,0.38221,0.3304,0.46552,0.65039,0.70588,84.485,12.591
6.768,0.37243,0.32454,0.4803,0.66016,0.69608,81.552,12.694
6.776,0.36266,0.31867,0.49015,0.66406,0.68627,78.618,12.85
6.784,0.35288,0.31281,0.50985,0.66992,0.67059,75.88,13.005
6.792,0.34213,0.30792,0.53941,0.67578,0.65098,72.947,13.161
6.8,0.33236,0.30596,0.55049,0.66016,0.6451,70.209,13.212
6.808,0.32258,0.30596,0.54557,0.64062,0.6451,67.862,13.264
6.816,0.31281,0.31183,0.53941,0.625,0.65098,65.711,13.264
6.824,0.30303,0.32454,0.52463,0.61914,0.66078,64.146,13.368
6.832,0.29423,0.34506,0.49507,0.61914,0.67647,62.582,13.627
6.84,0.28641,0.37439,0.46059,0.61914,0.70588,61.408,13.834
6.848,0.27761,0.41056,0.42488,0.61914,0.72549,60.235,13.938
6.856,0.27077,0.45259,0.4101,0.625,0.74118,59.648,13.938
6.864,0.26393,0.49658,0.40025,0.61914,0.7451,59.061,13.834
6.872,0.25709,0.54057,0.39532,0.61914,0.75098,58.866,13.627
6.88,0.25122,0.58065,0.39532,0.61914,0.75098,58.67,13.523
6.888,0.24633,0.61584,0.39532,0.61914,0.75098,58.67,13.368
6.896,0.24145,0.64321,0.40025,0.61914,0.75098,58.866,13.316
6.904,0.23754,0.66276,0.4101,0.62891,0.7451,59.061,13.368
6.912,0.23265,0.68133,0.43473,0.63477,0.72157,59.257,13.523
6.92,0.22972,0.69599,0.5197,0.58398,0.64118,59.452,13.834
6.928,0.22581,0.70674,0.70443,0.50977,0.48431,59.648,14.197
6.936,0.22385,0.71457,0.94951,0.37109,0.26471,59.844,14.715
6.944,0.2219,0.71848,1.0394,0.20508,0.16863,59.844,15.285
6.952,0.22092,0.71945,0.81527,0.16016,0.32941,59.844,15.803
6.96,0.21994,0.71848,0.5197,0.30469,0.5902,59.844,16.321
6.968,0.21994,0.71554,0.38054,0.49023,0.74118,59.648,16.839
6.976,0.21896,0.70968,0.35468,0.60938,0.77647,59.452,17.15
6.984,0.21896,0.70283,0.36453,0.66406,0.78039,59.061,17.202
6.992,0.21896,0.69501,0.36946,0.67969,0.78039,58.866,16.995
7,0.21799,0.68524,0.37562,0.68555,0.77647,58.475,16.58
7.008,0.21799,0.67546,0.38547,0.68945,0.77647,58.279,16.01
7.016,0.21799,0.66276,0.39039,0.68945,0.76667,57.692,15.596
7.024,0.21799,0.64907,0.39532,0.69531,0.76078,57.301,15.181
7.032,0.21896,0.63441,0.40025,0.69531,0.7549,56.91,14.974
7.04,0.21896,0.61681,0.4101,0.69531,0.75098,56.323,14.819
7.048,0.21896,0.59922,0.41502,0.69531,0.7451,55.737,14.663
7.056,0.21896,0.57967,0.42488,0.69922,0.74118,55.346,14.456
7.064,0.21994,0.55914,0.43473,0.69922,0.73529,54.759,14.249
7.072,0.21994,0.53861,0.43966,0.69922,0.73137,54.172,14.093
7.08,0.21994,0.51808,0.45443,0.69922,0.72157,53.781,13.99
7.088,0.21994,0.49756,0.47044,0.69922,0.70588,53.194,14.093
7.096,0.21994,0.48192,0.49507,0.70508,0.6902,52.803,14.197
7.104,0.21994,0.46725,0.5197,0.70508,0.67059,52.216,14.456
7.112,0.21994,0.45259,0.55542,0.70898,0.6451,51.63,14.715
7.12,0.21896,0.43988,0.58498,0.70508,0.62549,51.043,15.026
7.128,0.21896,0.42815,0.60961,0.69922,0.60588,50.652,15.285
7.136,0.21896,0.4174,0.63054,0.69531,0.5902,50.261,15.181
7.144,0.21799,0.40958,0.63054,0.68945,0.5902,50.261,14.715
7.152,0.21799,0.40274,0.61946,0.67969,0.5902,51.825,13.782
7.16,0.21799,0.39687,0.59975,0.67578,0.6,55.932,12.642
7.168,0.21799,0.39296,0.57512,0.66992,0.61961,63.168,11.71
7.176,0.21896,0.38905,0.54557,0.66992,0.64118,72.751,11.088
7.184,0.21896,0.38612,0.5197,0.66992,0.66471,83.116,10.829
7.192,0.21994,0.38416,0.49015,0.66016,0.6902,92.699,10.933
7.2,0.21994,0.38221,0.46059,0.6543,0.70588,101.3,11.399
7.208,0.2219,0.38025,0.44458,0.6543,0.72157,109.32,11.969
7.216,0.22287,0.37732,0.43473,0.64453,0.73137,115.97,12.383
7.224,0.22385,0.37439,0.4298,0.64453,0.73137,120.27,12.487
7.232,0.22483,0.37146,0.42488,0.64062,0.73529,122.03,12.383
7.24,0.22581,0.36755,0.41995,0.64062,0.73529,121.84,12.021
7.248,0.22678,0.36364,0.41995,0.64062,0.73529,120.67,11.554
7.256,0.22678,0.35973,0.42488,0.63477,0.73137,118.71,11.192
7.264,0.22678,0.35484,0.4298,0.63477,0.73137,116.56,11.036
7.272,0.22581,0.35093,0.43473,0.64062,0.72549,114.02,10.933
7.28,0.22581,0.34604,0.43966,0.64062,0.72157,111.47,11.088
7.288,0.22483,0.34213,0.44458,0.64062,0.72157,108.54,11.244
7.296,0.22385,0.33822,0.44951,0.64062,0.71569,105.8,11.451
7.304,0.2219,0.33529,0.44951,0.64062,0.71569,103.06,11.71
7.312,0.21994,0.33138,0.45443,0.64062,0.71569,100.33,11.969
7.32,0.21896,0.32649,0.45443,0.64062,0.71569,97.588,12.124
7.328,0.21701,0.3216,0.45443,0.64062,0.71569,95.046,12.28
7.336,0.21603,0.31769,0.45443,0.64062,0.71569,92.308,12.435
7.344,0.21505,0.31281,0.45443,0.64453,0.71569,89.57,12.591
7.352,0.21408,0.30792,0.46059,0.6543,0.70588,86.832,12.746
7.36,0.2131,0.30303,0.4803,0.66406,0.69608,83.898,12.953
7.368,0.21212,0.29814,0.49015,0.67578,0.6902,80.965,13.057
7.376,0.21114,0.29326,0.5,0.67969,0.68039,78.031,13.316
7.384,0.21017,0.28739,0.53448,0.68555,0.66471,74.902,13.523
7.392,0.20919,0.28446,0.55049,0.67578,0.65098,72.164,13.886
7.4,0.20919,0.28348,0.55542,0.6543,0.6451,69.426,14.301
7.408,0.20821,0.28543,0.53941,0.64062,0.6451,67.275,14.767
7.416,0.20723,0.29228,0.52463,0.63477,0.6549,65.319,15.026
7.424,0.20723,0.30694,0.50493,0.62891,0.67059,63.559,15.026
7.432,0.20626,0.32942,0.47537,0.625,0.69608,62.19,14.767
7.44,0.20528,0.3607,0.43473,0.625,0.72157,61.213,14.301
7.448,0.20528,0.39883,0.41995,0.625,0.73529,60.235,13.834
7.456,0.2043,0.44184,0.4101,0.62891,0.74118,59.648,13.472
7.464,0.2043,0.48583,0.4101,0.625,0.7451,59.257,13.161
7.472,0.2043,0.52884,0.40517,0.625,0.75098,59.061,12.953
7.48,0.2043,0.56891,0.40517,0.625,0.75098,58.866,12.953
7.488,0.2043,0.60508,0.40025,0.61914,0.75098,59.061,13.057
7.496,0.2043,0.63148,0.40025,0.625,0.75098,59.257,13.316
7.504,0.2043,0.652,0.41502,0.63477,0.74118,59.452,13.627
7.512,0.20528,0.67058,0.47044,0.60938,0.69608,59.648,14.093
7.52,0.20626,0.68622,0.59483,0.55078,0.58039,59.844,14.508
7.528,0.20723,0.69795,0.8202,0.44531,0.38039,59.844,15.078
7.536,0.20919,0.70577,1.0148,0.2793,0.2,60.039,15.699
7.544,0.21017,0.71065,0.93473,0.16016,0.18431,60.039,16.269
7.552,0.21114,0.71261,0.64039,0.22461,0.47451,60.039,16.632
7.56,0.21212,0.71261,0.42488,0.41016,0.6902,60.039,16.839
7.568,0.2131,0.7087,0.35961,0.56445,0.77059,59.844,16.839
7.576,0.21408,0.70381,0.35468,0.64062,0.78627,59.648,16.788
7.584,0.21603,0.69697,0.36453,0.66992,0.78039,59.257,16.528
7.592,0.21799,0.68915,0.36946,0.67969,0.78039,58.866,16.218
7.6,0.21896,0.67937,0.37562,0.68555,0.78039,58.475,15.803
7.608,0.22092,0.66862,0.38547,0.68555,0.77647,58.279,15.492
7.616,0.22287,0.65689,0.39039,0.68555,0.76667,57.692,15.285
7.624,0.22581,0.64321,0.40025,0.68555,0.76078,57.301,15.181
7.632,0.22776,0.62757,0.4101,0.68945,0.7549,56.715,15.13
7.64,0.22972,0.60997,0.41502,0.68945,0.75098,56.128,15.026
7.648,0.23167,0.5914,0.42488,0.68945,0.7451,55.737,14.819
7.656,0.2346,0.57185,0.43473,0.68945,0.73529,55.15,14.508
7.664,0.23656,0.5523,0.44458,0.68945,0.73137,54.759,14.197
7.672,0.23851,0.53177,0.45443,0.69531,0.72157,54.172,13.99
7.68,0.24047,0.51124,0.47044,0.69922,0.7098,53.781,13.99
7.688,0.2434,0.48974,0.49015,0.70508,0.69608,53.194,14.197
7.696,0.24536,0.47312,0.51478,0.70508,0.68039,52.803,14.56
7.704,0.24731,0.46139,0.53941,0.70898,0.66078,52.216,15.026
7.712,0.24927,0.44868,0.5702,0.70898,0.63529,51.63,15.389
7.72,0.25024,0.43597,0.59975,0.70508,0.6098,51.239,15.596
7.728,0.25122,0.42522,0.61946,0.69922,0.6,50.652,15.44
7.736,0.25318,0.41642,0.62438,0.69531,0.5902,50.652,14.974
7.744,0.25513,0.4086,0.63054,0.68555,0.5902,51.239,13.99
7.752,0.25611,0.40176,0.60961,0.67969,0.59608,53.977,12.902
7.76,0.25806,0.39687,0.5899,0.67578,0.6098,59.844,11.813
7.768,0.26002,0.39296,0.56034,0.66992,0.63529,68.253,11.088
7.776,0.26197,0.38905,0.52956,0.66992,0.66078,78.422,10.777
7.784,0.26393,0.38612,0.5,0.66406,0.68627,88.396,10.829
7.792,0.26588,0.38416,0.47537,0.6543,0.70588,97.588,11.14
7.8,0.26686,0.38221,0.44951,0.65039,0.71569,106,11.658
7.808,0.26882,0.38025,0.43966,0.65039,0.72549,113.23,12.124
7.816,0.26979,0.3783,0.43473,0.64453,0.73137,118.32,12.383
7.824,0.27077,0.37537,0.4298,0.64062,0.73529,121.06,12.383
7.832,0.27175,0.37243,0.4298,0.64062,0.73529,121.84,12.073
7.84,0.27175,0.36852,0.4298,0.64062,0.73137,121.06,11.554
7.848,0.27077,0.36559,0.4298,0.64062,0.73137,119.69,11.192
7.856,0.27077,0.36168,0.43473,0.64062,0.73137,117.73,11.036
7.864,0.26979,0.35777,0.43966,0.64062,0.72157,115.19,10.933
7.872,0.26882,0.35386,0.43966,0.64062,0.72157,112.65,11.088
7.88,0.26784,0.34897,0.44458,0.64062,0.71569,109.91,11.244
7.888,0.26686,0.33822,0.44951,0.64062,0.71569,106.98,11.451
7.896,0.26491,0.32649,0.45443,0.64062,0.71569,104.04,11.762
7.904,0.26393,0.31867,0.45443,0.64062,0.71569,101.11,12.021
7.912,0.26197,0.31183,0.45443,0.64062,0.71569,98.37,12.176
7.92,0.26002,0.30596,0.45443,0.64062,0.71569,95.828,12.332
7.928,0.25806,0.3001,0.44951,0.64062,0.71569,93.286,12.435
7.936,0.25611,0.29423,0.44951,0.64062,0.71569,90.548,12.591
7.944,0.25415,0.28935,0.46059,0.64453,0.7098,87.81,12.694
7.952,0.2522,0.28348,0.47537,0.6543,0.69608,85.072,12.85
7.96,0.25024,0.27761,0.49015,0.66406,0.6902,82.138,13.057
7.968,0.24829,0.27175,0.5,0.66992,0.67647,79.205,13.316
7.976,0.24633,0.26491,0.52463,0.67969,0.66078,76.271,13.627
7.984,0.24438,0.26002,0.55049,0.68555,0.6451,73.338,13.938
7.992,0.24242,0.25709,0.55542,0.6543,0.6451,70.6,14.249
8,0.24145,0.25709,0.54557,0.64062,0.6451,68.253,14.663
8.008,0.24047,0.26197,0.52956,0.63477,0.6549,66.297,15.026
8.016,0.23949,0.2737,0.51478,0.625,0.66471,64.537,15.181
8.024,0.23851,0.29423,0.4803,0.625,0.68627,62.973,15.13
8.032,0.23754,0.32356,0.44951,0.62891,0.71569,61.799,14.819
8.04,0.23754,0.36168,0.42488,0.62891,0.73529,60.821,14.301
8.048,0.23656,0.40665,0.41502,0.62891,0.74118,60.039,13.834
8.056,0.23656,0.45552,0.4101,0.625,0.7451,59.648,13.316
8.064,0.23656,0.5044,0.40517,0.625,0.75098,59.452,13.005
8.072,0.23558,0.55132,0.40025,0.625,0.75098,59.257,12.902
8.08,0.23558,0.59335,0.39532,0.625,0.7549,59.257,13.005
8.088,0.23558,0.6305,0.39532,0.625,0.7549,59.257,13.264
8.096,0.23558,0.65787,0.4101,0.63477,0.75098,59.452,13.627
8.104,0.23558,0.6784,0.44951,0.61523,0.71569,59.648,14.145
8.112,0.23558,0.69599,0.55542,0.56445,0.61569,59.844,14.663
8.12,0.23656,0.71065,0.75985,0.48047,0.43529,60.039,15.285
8.128,0.23754,0.72239,0.98522,0.31445,0.22941,60.235,15.803
8.136,0.23851,0.72923,1.0246,0.16992,0.17843,60.235,16.373
8.144,0.23949,0.73314,0.70443,0.16016,0.41569,60.235,16.788
8.152,0.24047,0.73412,0.45443,0.37109,0.6549,60.235,16.943
8.16,0.24145,0.73118,0.36453,0.53906,0.76078,60.039,16.995
8.168,0.2434,0.72727,0.35468,0.63477,0.78039,59.844,16.891
8.176,0.24438,0.72043,0.36946,0.67578,0.78039,59.648,16.632
8.184,0.24536,0.71163,0.37562,0.68555,0.78039,59.257,16.321
8.192,0.24731,0.70186,0.38547,0.68945,0.77647,58.866,15.907
8.2,0.24829,0.69013,0.39039,0.68945,0.77059,58.475,15.492
8.208,0.24927,0.67742,0.39532,0.69531,0.76667,58.083,15.285
8.216,0.25024,0.66276,0.40025,0.69531,0.76078,57.497,15.13
8.224,0.25122,0.64614,0.40517,0.69922,0.7549,57.106,15.13
8.232,0.25318,0.62659,0.41502,0.69922,0.7451,56.519,15.078
8.24,0.25415,0.60704,0.42488,0.69922,0.74118,55.932,14.974
8.248,0.25611,0.58456,0.43473,0.69922,0.73529,55.346,14.715
8.256,0.25806,0.56207,0.44458,0.69922,0.73137,54.954,14.404
8.264,0.25904,0.53959,0.45443,0.69922,0.72157,54.368,14.145
8.272,0.261,0.51613,0.47044,0.70508,0.7098,53.781,14.093
8.28,0.26295,0.49462,0.48522,0.70898,0.69608,53.39,14.249
8.288,0.26393,0.47312,0.50985,0.70898,0.68039,52.803,14.663
8.296,0.26491,0.4565,0.53941,0.70898,0.66078,52.412,15.078
8.304,0.26686,0.44282,0.5702,0.71484,0.63529,51.825,15.44
8.312,0.26784,0.42815,0.59975,0.70898,0.61569,51.434,15.699
8.32,0.26882,0.41642,0.61946,0.69922,0.59608,50.847,15.648
8.328,0.27077,0.40469,0.63054,0.68945,0.58431,50.652,15.13
8.336,0.27175,0.39589,0.63547,0.68555,0.58431,51.043,14.249
8.344,0.2737,0.38905,0.61946,0.67969,0.59608,53.194,13.057
8.352,0.27468,0.38319,0.59975,0.67578,0.60588,58.279,11.865
8.36,0.27566,0.3783,0.5702,0.66992,0.62549,66.102,11.088
8.368,0.27664,0.37537,0.53941,0.66992,0.65098,76.076,10.622
8.376,0.27761,0.37243,0.50985,0.66406,0.67059,86.05,10.622
8.384,0.27859,0.3695,0.4803,0.66016,0.6902,95.632,11.036
8.392,0.28055,0.36755,0.46552,0.6543,0.7098,104.24,11.554
8.4,0.28152,0.36559,0.44951,0.6543,0.71569,111.67,12.073
8.408,0.2825,0.36364,0.43966,0.64453,0.72549,117.34,12.332
8.416,0.2825,0.3607,0.43473,0.64062,0.73137,120.86,12.176
8.424,0.2825,0.35679,0.43473,0.64062,0.73137,122.03,11.865
8.432,0.2825,0.35288,0.43473,0.64062,0.73137,121.64,11.451
8.44,0.28152,0.34897,0.43966,0.64062,0.72549,120.47,11.14
8.448,0.28055,0.34506,0.43966,0.64062,0.72157,118.51,11.036
8.456,0.27957,0.34018,0.44951,0.63477,0.72157,116.36,11.088
8.464,0.27859,0.33431,0.44951,0.63477,0.71569,113.82,11.192
8.472,0.27664,0.32942,0.44951,0.63477,0.71569,111.08,11.399
8.48,0.27468,0.32454,0.45443,0.63477,0.71569,108.15,11.554
8.488,0.27175,0.32063,0.46059,0.63477,0.71569,105.41,11.762
8.496,0.26882,0.31672,0.46059,0.63477,0.71569,102.48,12.021
8.504,0.26686,0.31183,0.46059,0.63477,0.71569,99.544,12.073
8.512,0.26393,0.30694,0.46059,0.63477,0.71569,96.806,12.124
8.52,0.261,0.30108,0.45443,0.63477,0.71569,94.068,12.124
8.528,0.25904,0.29619,0.45443,0.63477,0.7098,91.33,12.176
8.536,0.25611,0.29032,0.46552,0.64062,0.7098,88.592,12.383
8.544,0.25415,0.28543,0.4803,0.6543,0.69608,85.658,12.642
8.552,0.25122,0.27957,0.49507,0.66406,0.6902,82.921,12.953
8.56,0.24927,0.2737,0.50493,0.66992,0.68039,79.987,13.212
8.568,0.24731,0.26784,0.52463,0.67969,0.66471,76.858,13.472
8.576,0.24536,0.26197,0.55049,0.67578,0.65098,73.924,13.782
8.584,0.24438,0.25806,0.56034,0.6543,0.6451,71.186,14.197
8.592,0.24242,0.25709,0.55049,0.63477,0.6451,68.84,14.663
8.6,0.24145,0.261,0.53941,0.61914,0.6451,66.688,15.026
8.608,0.23949,0.26979,0.5197,0.61914,0.6549,64.928,15.13
8.616,0.23851,0.28837,0.49015,0.61523,0.68039,63.364,15.078
8.624,0.23656,0.31574,0.45443,0.61914,0.7098,62.19,14.715
8.632,0.23558,0.35191,0.42488,0.61914,0.73137,61.213,14.249
8.64,0.2346,0.39589,0.4101,0.61914,0.74118,60.235,13.834
8.648,0.23363,0.44379,0.40517,0.61914,0.7451,59.844,13.472
8.656,0.23265,0.49365,0.40517,0.61914,0.75098,59.452,13.264
8.664,0.23167,0.54154,0.40517,0.61914,0.75098,59.061,13.161
8.672,0.23167,0.58553,0.40025,0.61914,0.75098,59.061,13.264
8.68,0.23167,0.62366,0.40025,0.61914,0.75098,59.061,13.472
8.688,0.23069,0.65298,0.40517,0.62891,0.7451,59.257,13.782
8.696,0.23069,0.67449,0.43966,0.63477,0.71569,59.452,14.145
8.704,0.23069,0.69404,0.52956,0.57422,0.63529,59.648,14.508
8.712,0.23069,0.71163,0.70936,0.49414,0.47059,59.844,15.026
8.72,0.23069,0.72434,0.94458,0.34961,0.2549,60.039,15.596
8.728,0.23167,0.73118,1.0049,0.18945,0.18824,60.235,16.062
8.736,0.23167,0.73509,0.74507,0.16016,0.37451,60.235,16.425
8.744,0.23265,0.73607,0.4803,0.33008,0.62549,60.235,16.632
8.752,0.2346,0.73412,0.36946,0.50977,0.7549,60.235,16.684
8.76,0.23558,0.73021,0.35468,0.61523,0.78039,60.039,16.632
8.768,0.23656,0.72336,0.36453,0.66016,0.78627,59.844,16.373
8.776,0.23851,0.71554,0.36946,0.67969,0.78627,59.452,16.01
8.784,0.24047,0.70577,0.36946,0.68555,0.78039,59.257,15.492
8.792,0.24145,0.69501,0.37562,0.68555,0.77647,58.67,15.026
8.8,0.2434,0.68328,0.38547,0.68555,0.77647,58.279,14.715
8.808,0.24536,0.6696,0.39039,0.68555,0.77059,57.692,14.508
8.816,0.24731,0.65396,0.39532,0.68555,0.76078,57.106,14.404
8.824,0.24829,0.63636,0.4101,0.68555,0.7549,56.519,14.249
8.832,0.25024,0.61779,0.41502,0.68555,0.75098,55.932,14.093
8.84,0.25122,0.59726,0.42488,0.68945,0.7451,55.346,13.782
8.848,0.25318,0.57478,0.43473,0.68945,0.74118,54.759,13.368
8.856,0.25415,0.5523,0.44458,0.69531,0.73137,54.172,13.057
8.864,0.25513,0.52981,0.45443,0.69531,0.72157,53.585,12.902
8.872,0.25709,0.50831,0.47044,0.69922,0.7098,52.999,12.953
8.88,0.25904,0.48778,0.49015,0.69922,0.69608,52.412,13.212
8.888,0.26002,0.47019,0.51478,0.70508,0.67647,51.825,13.627
8.896,0.26197,0.45552,0.54557,0.70898,0.65098,51.239,14.145
8.904,0.26393,0.44086,0.58005,0.70508,0.62549,50.652,14.56
8.912,0.26588,0.42717,0.59975,0.69922,0.60588,50.065,14.715
8.92,0.26784,0.41544,0.60961,0.69531,0.59608,49.674,14.404
8.928,0.26882,0.40567,0.61453,0.68555,0.5902,49.674,13.316
8.936,0.27077,0.39687,0.60468,0.67969,0.6,50.847,11.969
8.944,0.27175,0.39003,0.58498,0.67578,0.6098,54.368,10.518
8.952,0.2737,0.38416,0.56034,0.66992,0.62941,61.213,9.3782
8.96,0.27566,0.37928,0.52956,0.66406,0.65098,70.404,8.9119
8.968,0.27761,0.37537,0.5,0.66406,0.67647,80.769,8.9119
8.976,0.28055,0.37243,0.47537,0.66016,0.69608,90.743,9.3782
8.984,0.28348,0.36852,0.45443,0.6543,0.7098,99.739,10.155
8.992,0.28543,0.36657,0.43473,0.65039,0.73137,107.95,10.881
9,0.28837,0.36461,0.42488,0.64453,0.73529,114.6,11.244
9.008,0.29032,0.36168,0.41995,0.64453,0.74118,119.3,11.192
9.016,0.29326,0.35777,0.41502,0.64062,0.74118,121.45,10.725
9.024,0.29521,0.35484,0.41502,0.64062,0.74118,121.64,9.9482
9.032,0.29814,0.35093,0.41502,0.64062,0.74118,120.47,9.2746
9.04,0.3001,0.34604,0.41995,0.63477,0.73529,118.71,8.7565
9.048,0.30303,0.34115,0.41995,0.63477,0.73529,116.36,8.4456
9.056,0.30694,0.33627,0.4298,0.63477,0.73137,113.82,8.3938
9.064,0.30987,0.33138,0.43473,0.63477,0.73137,111.08,8.5492
9.072,0.31281,0.32551,0.43473,0.64062,0.72549,108.15,8.9119
9.08,0.31574,0.31965,0.43966,0.64062,0.72157,105.41,9.3782
9.088,0.31769,0.31476,0.44458,0.64062,0.72157,102.48,9.8964
9.096,0.31965,0.31085,0.44458,0.64453,0.72157,99.739,10.518
9.104,0.32258,0.30596,0.44458,0.64453,0.72157,97.001,11.244
9.112,0.32454,0.3001,0.44458,0.64453,0.72157,94.263,12.176
9.12,0.32747,0.29326,0.45443,0.64453,0.71569,91.721,13.264
9.128,0.3304,0.28739,0.46552,0.6543,0.70588,88.983,14.197
9.136,0.33333,0.28152,0.4803,0.66406,0.6902,86.245,14.87
9.144,0.33627,0.27566,0.49507,0.67578,0.68627,83.312,15.285
9.152,0.3392,0.26882,0.50493,0.67969,0.67647,80.378,15.44
9.16,0.34213,0.26197,0.52956,0.68555,0.66078,77.249,15.492
9.168,0.34506,0.25513,0.54557,0.66992,0.65098,74.12,15.389
9.176,0.348,0.24927,0.55049,0.65039,0.65098,71.186,15.078
9.184,0.35191,0.24633,0.53941,0.63477,0.65098,68.449,14.56
9.192,0.35679,0.24731,0.52463,0.625,0.6549,66.102,14.093
9.2,0.36168,0.25415,0.50493,0.625,0.67059,64.146,13.575
9.208,0.36657,0.26882,0.47537,0.625,0.7,62.386,13.161
9.216,0.37243,0.29326,0.44458,0.625,0.72157,60.821,12.746
9.224,0.37928,0.32649,0.4298,0.625,0.73137,59.452,12.435
9.232,0.38612,0.36755,0.41995,0.625,0.73529,58.475,12.435
9.24,0.39198,0.41544,0.41502,0.61914,0.74118,57.692,12.694
9.248,0.39785,0.46432,0.4101,0.61914,0.74118,57.301,12.902
9.256,0.40371,0.51417,0.4101,0.61914,0.74118,57.106,12.902
9.264,0.40958,0.56012,0.4101,0.61914,0.74118,57.106,12.85
9.272,0.41642,0.6002,0.4101,0.625,0.73529,57.301,13.005
9.28,0.42326,0.63539,0.4298,0.62891,0.72549,57.497,13.523
9.288,0.43011,0.6608,0.49507,0.59961,0.66471,58.083,14.301
9.296,0.43695,0.68035,0.6601,0.53906,0.51961,58.475,15.078
9.304,0.44379,0.69697,0.91995,0.42969,0.3098,58.866,15.751
9.312,0.45064,0.71065,1.0702,0.27539,0.16863,59.257,16.373
9.32,0.4565,0.71945,0.90517,0.20117,0.2902,59.648,16.839
9.328,0.46334,0.72532,0.58498,0.29492,0.55098,59.844,17.098
9.336,0.47019,0.72727,0.40517,0.4707,0.72157,60.039,17.15
9.344,0.47801,0.72727,0.36453,0.59961,0.77059,60.039,17.098
9.352,0.4868,0.72336,0.36946,0.66406,0.77647,60.039,16.995
9.36,0.49462,0.7175,0.38054,0.68555,0.76667,59.844,16.943
9.368,0.50342,0.70968,0.38547,0.68945,0.76667,59.452,16.995
9.376,0.51222,0.70088,0.39039,0.69531,0.76078,59.257,16.995
9.384,0.52102,0.69013,0.40025,0.68945,0.76078,58.866,17.098
9.392,0.52981,0.6784,0.4101,0.68945,0.75098,58.279,16.995
9.4,0.53763,0.66569,0.41502,0.68945,0.7451,57.888,16.943
9.408,0.54545,0.65103,0.41995,0.68945,0.74118,57.497,16.839
9.416,0.5523,0.63343,0.4298,0.68945,0.73529,56.91,16.632
9.424,0.55914,0.61486,0.43966,0.68945,0.72549,56.519,16.425
9.432,0.56598,0.59433,0.44951,0.68945,0.71569,56.128,16.269
9.44,0.57283,0.57185,0.46059,0.69531,0.7098,55.541,16.114
9.448,0.57967,0.54839,0.47537,0.69922,0.70588,55.346,16.062
9.456,0.58651,0.52493,0.48522,0.69922,0.6902,54.759,16.218
9.464,0.5914,0.50147,0.50493,0.70508,0.67647,54.368,16.373
9.472,0.59726,0.47898,0.52956,0.70508,0.66471,53.977,16.788
9.48,0.60215,0.45748,0.56527,0.70508,0.64118,53.39,17.15
9.488,0.60704,0.44086,0.59483,0.70508,0.61569,52.803,17.461
9.496,0.61095,0.42717,0.61946,0.69922,0.6,52.216,17.565
9.504,0.61486,0.41349,0.63547,0.69531,0.58431,51.825,17.461
9.512,0.61779,0.40176,0.64039,0.68945,0.58431,51.825,17.15
9.52,0.6217,0.39101,0.63547,0.68555,0.58431,52.803,16.632
9.528,0.62463,0.38416,0.61946,0.67969,0.59608,56.323,16.218
9.536,0.62757,0.3783,0.5899,0.67578,0.61569,63.168,15.751
9.544,0.6305,0.37439,0.56034,0.66992,0.63529,72.947,15.44
9.552,0.63245,0.37146,0.52956,0.66992,0.66078,83.703,15.13
9.56,0.63441,0.37048,0.5,0.66406,0.68039,93.872,15.026
9.568,0.63636,0.3695,0.47537,0.66016,0.69608,102.87,15.026
9.576,0.63734,0.36852,0.45443,0.6543,0.7098,110.69,15.13
9.584,0.6393,0.36755,0.43966,0.65039,0.72157,117.14,15.181
9.592,0.6393,0.36755,0.43473,0.64453,0.73137,121.25,15.181
9.6,0.6393,0.36657,0.4298,0.64062,0.73137,122.82,15.026
9.608,0.63832,0.36461,0.4298,0.63477,0.73137,122.43,14.715
9.616,0.63832,0.36266,0.4298,0.63477,0.73137,121.06,14.301
9.624,0.63734,0.35973,0.43473,0.63477,0.73137,118.9,13.886
9.632,0.63539,0.35679,0.43473,0.63477,0.72549,116.56,13.523
9.64,0.63343,0.35288,0.43966,0.63477,0.72157,113.82,13.264
9.648,0.63148,0.34897,0.43966,0.63477,0.72157,111.08,13.057
9.656,0.62854,0.34409,0.44458,0.63477,0.71569,108.15,13.005
9.664,0.62561,0.34018,0.44951,0.63477,0.71569,105.22,13.057
9.672,0.62072,0.33529,0.45443,0.63477,0.71569,102.28,13.057
9.68,0.61681,0.3304,0.45443,0.63477,0.7098,99.544,13.161
9.688,0.61193,0.32649,0.45443,0.63477,0.7098,96.61,13.161
9.696,0.60606,0.32356,0.44951,0.62891,0.7098,94.068,13.161
9.704,0.6002,0.31867,0.44951,0.62891,0.7098,91.33,13.161
9.712,0.59531,0.31476,0.45443,0.62891,0.7098,88.788,13.161
9.72,0.58944,0.31085,0.46059,0.63477,0.7098,86.05,13.212
9.728,0.58358,0.30596,0.47537,0.64453,0.7,83.312,13.212
9.736,0.57771,0.29912,0.48522,0.66016,0.69608,80.378,13.264
9.744,0.57185,0.29326,0.49507,0.66992,0.68627,77.445,13.264
9.752,0.565,0.28837,0.51478,0.67578,0.67059,74.316,13.212
9.76,0.55914,0.28446,0.53941,0.66992,0.6549,71.382,13.264
9.768,0.5523,0.28152,0.54557,0.64453,0.65098,69.035,13.316
9.776,0.54545,0.28348,0.53941,0.625,0.6549,66.884,13.575
9.784,0.53959,0.2913,0.52956,0.61914,0.6549,65.124,13.834
9.792,0.53275,0.30499,0.51478,0.61914,0.66471,63.559,14.145
9.8,0.52688,0.32454,0.49015,0.61523,0.68627,62.19,14.456
9.808,0.52102,0.35484,0.45443,0.61914,0.7098,61.017,14.663
9.816,0.5132,0.39394,0.42488,0.61914,0.72549,60.235,14.715
9.824,0.50635,0.43891,0.41502,0.61914,0.73529,59.648,14.715
9.832,0.49853,0.48778,0.4101,0.61914,0.74118,59.257,14.56
9.84,0.49071,0.53666,0.40517,0.61914,0.7451,59.061,14.404
9.848,0.48094,0.5826,0.40025,0.61914,0.75098,59.061,14.197
9.856,0.47214,0.62463,0.40025,0.61914,0.75098,59.257,14.093
9.864,0.46237,0.65982,0.40517,0.61914,0.75098,59.257,13.938
9.872,0.45259,0.68817,0.41502,0.625,0.73529,59.452,13.99
9.88,0.44379,0.71065,0.45443,0.61523,0.7,59.648,14.145
9.888,0.435,0.72532,0.5702,0.57031,0.60588,59.844,14.404
9.896,0.42717,0.73509,0.78448,0.48047,0.42549,60.039,14.767
9.904,0.41935,0.74194,1.0246,0.31445,0.21961,60.039,15.285
9.912,0.41056,0.74585,1.0653,0.16602,0.16863,60.039,15.803
9.92,0.40176,0.74585,0.73522,0.14453,0.4,59.844,16.269
9.928,0.39296,0.74389,0.47044,0.35547,0.6451,59.648,16.632
9.936,0.38514,0.73998,0.36946,0.5293,0.7549,59.257,16.839
9.944,0.37732,0.73412,0.35468,0.62891,0.78039,59.061,16.943
9.952,0.3695,0.72532,0.36453,0.66992,0.78039,58.67,17.15
9.96,0.36364,0.71554,0.36946,0.68555,0.78039,58.279,17.254
9.968,0.35679,0.70381,0.36946,0.68555,0.78039,57.888,17.15
9.976,0.35093,0.69013,0.37562,0.68945,0.77647,57.497,16.788
9.984,0.34506,0.67546,0.38547,0.68945,0.77059,57.106,16.321
9.992,0.3392,0.6608,0.39039,0.68945,0.76078,56.715,15.803
10,0.33431,0.64516,0.40025,0.68945,0.7549,56.323,15.44
10.008,0.32942,0.62757,0.4101,0.68945,0.75098,55.737,15.078
10.016,0.32551,0.60704,0.41995,0.69531,0.74118,55.346,14.767
10.024,0.3216,0.58651,0.4298,0.69531,0.73529,54.759,14.456
10.032,0.31867,0.56403,0.43473,0.69531,0.73137,54.172,14.301
10.04,0.31574,0.54154,0.44951,0.69922,0.72157,53.781,14.249
10.048,0.31281,0.51906,0.46059,0.69922,0.71569,53.194,14.249
10.056,0.31085,0.49853,0.4803,0.70508,0.7,52.803,14.301
10.064,0.3089,0.47801,0.50493,0.70508,0.68039,52.412,14.508
10.072,0.30596,0.46041,0.53448,0.70898,0.66078,52.021,14.715
10.08,0.30401,0.44477,0.56527,0.70898,0.64118,51.434,14.974
10.088,0.30205,0.43206,0.59483,0.70898,0.61569,50.847,15.181
10.096,0.3001,0.42229,0.61453,0.70508,0.59608,50.456,15.337
10.104,0.29814,0.41349,0.62438,0.69922,0.5902,50.065,15.13
10.112,0.29619,0.40567,0.63054,0.68945,0.58431,50.652,14.56
10.12,0.29423,0.39883,0.61453,0.67969,0.59608,52.803,13.679
10.128,0.29326,0.39296,0.59483,0.67578,0.6098,58.083,12.746
10.136,0.29228,0.38905,0.56527,0.66992,0.62941,66.493,12.021
10.144,0.2913,0.38416,0.53448,0.66406,0.65098,77.054,11.554
10.152,0.29032,0.38025,0.5,0.66406,0.67647,87.614,11.399
10.16,0.28935,0.37732,0.47537,0.66016,0.69608,97.393,11.451
10.168,0.28837,0.37341,0.45443,0.6543,0.7098,106,11.813
10.176,0.28641,0.3695,0.43966,0.65039,0.72157,113.43,12.28
10.184,0.28543,0.36657,0.43473,0.64453,0.73137,119.3,12.591
10.192,0.28348,0.36461,0.4298,0.64062,0.73529,122.43,12.694
10.2,0.28152,0.3607,0.4298,0.64062,0.73529,123.4,12.435
10.208,0.27859,0.35582,0.4298,0.64062,0.73137,122.62,12.073
10.216,0.27566,0.35093,0.4298,0.63477,0.73137,121.25,11.658
10.224,0.27273,0.34604,0.43473,0.63477,0.73137,119.3,11.244
10.232,0.26882,0.34115,0.43473,0.63477,0.72549,116.75,11.088
10.24,0.26491,0.33529,0.43966,0.63477,0.72157,114.02,10.933
10.248,0.26002,0.3304,0.44458,0.64062,0.72157,111.08,11.036
10.256,0.25611,0.32454,0.44951,0.64062,0.72157,108.15,11.14
10.264,0.25122,0.31965,0.44951,0.64062,0.71569,105.22,11.244
10.272,0.24731,0.31378,0.45443,0.64062,0.71569,102.28,11.451
10.28,0.2434,0.30792,0.45443,0.64062,0.71569,99.544,11.71
10.288,0.23949,0.30401,0.45443,0.64453,0.7098,96.61,11.865
10.296,0.23558,0.30108,0.45443,0.64453,0.7098,94.068,12.124
10.304,0.23167,0.29619,0.45443,0.64453,0.7098,91.33,12.332
10.312,0.22678,0.29228,0.46059,0.64453,0.70588,88.788,12.487
10.32,0.2219,0.28739,0.47537,0.6543,0.69608,86.05,12.694
10.328,0.21799,0.2825,0.49015,0.66406,0.68627,83.116,12.85
10.336,0.21408,0.27664,0.5,0.67578,0.67647,80.183,12.953
10.344,0.21017,0.27077,0.51478,0.67969,0.66471,77.249,13.057
10.352,0.20723,0.26491,0.53941,0.68555,0.65098,74.12,13.264
10.36,0.20528,0.261,0.55542,0.66016,0.64118,71.382,13.472
10.368,0.20235,0.25904,0.55049,0.64062,0.64118,68.84,13.679
10.376,0.20039,0.26295,0.54557,0.62891,0.6451,66.884,13.99
10.384,0.19941,0.27175,0.52463,0.625,0.65098,64.928,14.301
10.392,0.19844,0.28739,0.5,0.61914,0.67059,63.364,14.456
10.4,0.19746,0.31281,0.46552,0.61914,0.7,61.995,14.404
10.408,0.19746,0.34702,0.43473,0.625,0.72549,61.017,14.145
10.416,0.19648,0.39003,0.41995,0.625,0.73529,60.039,13.834
10.424,0.19648,0.43793,0.4101,0.625,0.74118,59.452,13.523
10.432,0.19648,0.48778,0.40517,0.625,0.7451,59.061,13.212
10.44,0.19648,0.53666,0.40025,0.625,0.7451,58.866,13.005
10.448,0.19648,0.58162,0.40025,0.61914,0.7451,58.866,12.953
10.456,0.19746,0.6217,0.40025,0.61914,0.7451,59.061,13.005
10.464,0.19844,0.65494,0.4101,0.62891,0.7451,59.257,13.212
10.472,0.19941,0.68328,0.43473,0.63477,0.72549,59.452,13.523
10.48,0.20039,0.70479,0.50985,0.5957,0.6549,59.844,13.886
10.488,0.20137,0.71848,0.67488,0.51953,0.50588,60.039,14.456
10.496,0.20332,0.72727,0.92488,0.38477,0.2902,60.235,15.078
10.504,0.2043,0.73412,1.0345,0.21484,0.17451,60.235,15.751
10.512,0.20528,0.739,0.83498,0.16602,0.31373,60.235,16.321
10.52,0.20626,0.73998,0.53448,0.29492,0.57451,60.235,16.788
10.528,0.20723,0.739,0.38547,0.48438,0.73529,60.039,16.943
10.536,0.20821,0.73607,0.35961,0.60938,0.78039,59.844,16.943
10.544,0.20919,0.73021,0.36946,0.66406,0.78039,59.648,16.788
10.552,0.21017,0.72239,0.37562,0.68555,0.78039,59.257,16.373
10.56,0.21212,0.71359,0.38547,0.68555,0.77647,58.866,16.01
10.568,0.2131,0.70186,0.39039,0.68945,0.77059,58.475,15.596
10.576,0.21505,0.68915,0.39532,0.68945,0.76667,58.083,15.285
10.584,0.21603,0.67546,0.40025,0.68945,0.76078,57.497,15.13
10.592,0.21799,0.66178,0.4101,0.68945,0.7549,57.106,15.078
10.6,0.21896,0.64516,0.41502,0.68945,0.75098,56.519,15.026
10.608,0.21994,0.62659,0.41995,0.68945,0.74118,55.932,14.87
10.616,0.2219,0.60606,0.4298,0.68945,0.73529,55.346,14.715
10.624,0.22287,0.58358,0.43473,0.68945,0.73137,54.954,14.404
10.632,0.22483,0.56109,0.44951,0.68945,0.72157,54.368,14.093
10.64,0.22678,0.53763,0.46059,0.69531,0.71569,53.781,13.886
10.648,0.22874,0.51515,0.47537,0.69922,0.70588,53.194,13.938
10.656,0.23069,0.49267,0.49507,0.70508,0.6902,52.803,14.145
10.664,0.23265,0.47312,0.52463,0.70508,0.67059,52.216,14.508
10.672,0.2346,0.45455,0.55542,0.70898,0.6451,51.825,14.974
10.68,0.23656,0.43793,0.58498,0.70508,0.62549,51.239,15.337
10.688,0.23851,0.42522,0.60961,0.69922,0.60588,50.847,15.492
10.696,0.24145,0.41544,0.63054,0.69531,0.5902,50.456,15.337
10.704,0.2434,0.40567,0.63054,0.68945,0.58431,50.456,14.663
10.712,0.24536,0.39785,0.62438,0.68555,0.5902,51.825,13.627
10.72,0.24731,0.39101,0.60468,0.67969,0.60588,55.541,12.487
10.728,0.25024,0.38612,0.58005,0.67578,0.62549,62.19,11.554
10.736,0.2522,0.38123,0.55542,0.66992,0.6451,71.578,10.881
10.744,0.25318,0.37732,0.5197,0.66992,0.67059,81.747,10.622
10.752,0.25513,0.37439,0.49507,0.66406,0.6902,91.721,10.829
10.76,0.25611,0.37146,0.47044,0.66016,0.7098,100.52,11.244
10.768,0.25806,0.36755,0.44951,0.65039,0.72157,108.54,11.813
10.776,0.25904,0.36559,0.43966,0.64453,0.73137,115.19,12.28
10.784,0.26002,0.36364,0.43473,0.64453,0.73529,119.69,12.435
10.792,0.26002,0.36168,0.43473,0.64062,0.73529,121.64,12.332
10.8,0.261,0.35875,0.4298,0.64062,0.73529,121.84,11.969
10.808,0.261,0.35484,0.4298,0.64062,0.73529,120.86,11.503
10.816,0.261,0.35093,0.43473,0.64062,0.73137,119.3,11.14
10.824,0.26002,0.34702,0.43473,0.63477,0.73137,117.14,10.881
10.832,0.26002,0.34311,0.43966,0.63477,0.72157,114.8,10.829
10.84,0.25904,0.33822,0.44458,0.63477,0.72157,112.06,10.881
10.848,0.25806,0.33333,0.44951,0.63477,0.71569,109.32,11.088
10.856,0.25611,0.32845,0.44951,0.63477,0.71569,106.39,11.347
10.864,0.25513,0.32356,0.45443,0.64062,0.71569,103.46,11.503
10.872,0.25318,0.31769,0.46059,0.64062,0.71569,100.52,11.71
10.88,0.2522,0.31281,0.45443,0.64062,0.71569,97.784,11.865
10.888,0.25024,0.3089,0.45443,0.64062,0.71569,95.046,12.073
10.896,0.24927,0.30499,0.45443,0.64062,0.71569,92.308,12.28
10.904,0.24731,0.30108,0.45443,0.64062,0.7098,89.57,12.383
10.912,0.24633,0.29619,0.47044,0.65039,0.70588,86.832,12.591
10.92,0.24536,0.29032,0.49015,0.66016,0.6902,84.094,12.85
10.928,0.24438,0.28446,0.5,0.66992,0.68627,81.16,13.161
10.936,0.2434,0.27859,0.51478,0.67969,0.67059,78.227,13.472
10.944,0.24242,0.27273,0.53941,0.68555,0.6549,75.293,13.782
10.952,0.24047,0.26686,0.56034,0.66992,0.6451,72.555,14.145
10.96,0.23949,0.26393,0.55542,0.65039,0.6451,69.818,14.456
10.968,0.23754,0.26491,0.54557,0.63477,0.6451,67.471,14.819
10.976,0.23656,0.27273,0.53448,0.625,0.65098,65.515,15.026
10.984,0.2346,0.28543,0.50985,0.61914,0.66471,63.755,15.026
10.992,0.23265,0.30401,0.47537,0.61914,0.6902,62.386,14.819
11,0.23167,0.33333,0.44458,0.625,0.72157,61.213,14.456
11.008,0.23069,0.37243,0.41995,0.625,0.73529,60.43,13.938
11.016,0.22972,0.4174,0.41502,0.625,0.74118,59.844,13.472
11.024,0.22874,0.4653,0.4101,0.625,0.74118,59.257,13.161
11.032,0.22874,0.51417,0.4101,0.61914,0.7451,59.061,12.953
11.04,0.22776,0.56109,0.4101,0.61914,0.75098,59.061,12.953
11.048,0.22776,0.60313,0.4101,0.61914,0.7451,59.061,13.161
11.056,0.22776,0.6393,0.4101,0.625,0.7451,59.257,13.472
11.064,0.22776,0.66862,0.42488,0.62891,0.73529,59.452,13.834
11.072,0.22776,0.69306,0.4803,0.60547,0.68627,59.648,14.249
11.08,0.22776,0.71163,0.61453,0.54492,0.56078,59.844,14.767
11.088,0.22776,0.72239,0.85468,0.42969,0.34902,59.844,15.337
11.096,0.22776,0.72923,1.0296,0.25977,0.17843,60.039,15.907
11.104,0.22776,0.73412,0.9101,0.15625,0.24902,60.039,16.373
11.112,0.22776,0.73607,0.61453,0.23438,0.5,60.039,16.684
11.12,0.22776,0.73607,0.41502,0.42578,0.7,60.039,16.839
11.128,0.22874,0.73314,0.36453,0.57422,0.77059,60.039,16.839
11.136,0.22874,0.72825,0.36946,0.65039,0.77647,59.844,16.632
11.144,0.23069,0.72141,0.37562,0.67578,0.77647,59.452,16.373
11.152,0.23167,0.71359,0.38054,0.68555,0.77647,59.257,16.062
11.16,0.23265,0.70283,0.38547,0.68945,0.77647,58.866,15.699
11.168,0.2346,0.6911,0.39532,0.68945,0.76667,58.279,15.44
11.176,0.23656,0.67742,0.40025,0.68945,0.76078,57.888,15.285
11.184,0.23754,0.66276,0.4101,0.68945,0.7549,57.497,15.181
11.192,0.23949,0.64809,0.41502,0.68945,0.75098,56.91,15.181
11.2,0.24145,0.63148,0.41995,0.68945,0.7451,56.323,15.078
11.208,0.2434,0.6129,0.4298,0.68945,0.74118,55.737,14.87
11.216,0.24536,0.59238,0.43966,0.69531,0.73529,55.15,14.508
11.224,0.24731,0.56989,0.44951,0.69531,0.73137,54.563,14.145
11.232,0.24927,0.54741,0.46059,0.69531,0.72157,53.977,13.938
11.24,0.25122,0.5259,0.47537,0.69531,0.7098,53.585,13.938
11.248,0.25318,0.50342,0.49507,0.69922,0.69608,52.999,14.249
11.256,0.25513,0.48289,0.51478,0.70508,0.68039,52.412,14.715
11.264,0.25709,0.46432,0.54557,0.70508,0.66078,52.021,15.181
11.272,0.25806,0.44673,0.58005,0.70508,0.62941,51.434,15.596
11.28,0.25904,0.43206,0.60468,0.70508,0.6098,50.847,15.751
11.288,0.261,0.42033,0.61946,0.69922,0.59608,50.456,15.596
11.296,0.26197,0.41153,0.63054,0.68945,0.5902,50.456,14.974
11.304,0.26393,0.40371,0.62438,0.68555,0.5902,51.239,13.886
11.312,0.26588,0.39589,0.60961,0.67969,0.6,54.172,12.694
11.32,0.26686,0.39003,0.58498,0.67578,0.61569,60.039,11.658
11.328,0.26784,0.38514,0.55542,0.66992,0.64118,68.644,10.933
11.336,0.26882,0.38123,0.52463,0.66992,0.66078,78.814,10.622
11.344,0.26979,0.37732,0.49507,0.66406,0.68627,88.788,10.725
11.352,0.27077,0.37439,0.47044,0.66016,0.70588,97.979,11.14
11.36,0.27175,0.37146,0.44951,0.6543,0.72157,106.19,11.71
11.368,0.27175,0.36852,0.43473,0.65039,0.73137,113.23,12.176
11.376,0.27273,0.36559,0.4298,0.64453,0.73529,118.51,12.435
11.384,0.27175,0.36266,0.42488,0.64062,0.73529,121.06,12.332
11.392,0.27175,0.3607,0.42488,0.64062,0.73529,121.64,11.969
11.4,0.27175,0.35777,0.4298,0.63477,0.73137,121.06,11.503
11.408,0.27077,0.35386,0.4298,0.63477,0.73137,119.49,11.14
11.416,0.26979,0.34995,0.43473,0.63477,0.72549,117.73,11.036
11.424,0.26882,0.34506,0.43966,0.63477,0.72549,115.38,11.036
11.432,0.26686,0.34115,0.44458,0.63477,0.72157,112.84,11.14
11.44,0.26588,0.33627,0.44951,0.63477,0.72157,110.1,11.399
11.448,0.26295,0.3304,0.44951,0.63477,0.71569,107.17,11.658
11.456,0.261,0.32551,0.45443,0.64062,0.71569,104.24,11.865
11.464,0.25806,0.31965,0.46059,0.64062,0.71569,101.11,12.021
11.472,0.25513,0.31378,0.46059,0.64062,0.71569,98.37,12.073
11.48,0.2522,0.3089,0.46059,0.64062,0.71569,95.828,12.124
11.488,0.25024,0.30401,0.45443,0.63477,0.71569,93.09,12.176
11.496,0.24731,0.30108,0.45443,0.64062,0.71569,90.352,12.28
11.504,0.24438,0.29619,0.46552,0.64453,0.7098,87.614,12.435
11.512,0.24242,0.2913,0.4803,0.6543,0.69608,84.681,12.642
11.52,0.24145,0.28641,0.49507,0.66406,0.68627,81.943,12.902
11.528,0.23949,0.28055,0.50493,0.67578,0.67647,78.814,13.212
11.536,0.23851,0.2737,0.53448,0.67969,0.66078,75.88,13.368
11.544,0.23754,0.26784,0.55542,0.66992,0.6451,73.142,13.627
11.552,0.23656,0.26295,0.56034,0.65039,0.6451,70.404,13.938
11.56,0.23558,0.26295,0.54557,0.63477,0.6451,68.057,14.301
11.568,0.2346,0.26784,0.53448,0.625,0.6549,65.906,14.56
11.576,0.23363,0.28055,0.51478,0.61914,0.66471,64.146,14.715
11.584,0.23265,0.29912,0.4803,0.61914,0.6902,62.777,14.56
11.592,0.23167,0.32258,0.44458,0.61914,0.72157,61.408,14.197
11.6,0.23069,0.35777,0.41995,0.61914,0.73529,60.43,13.679
11.608,0.23069,0.40078,0.41502,0.625,0.74118,59.844,13.161
11.616,0.23069,0.44868,0.4101,0.61914,0.7451,59.257,12.694
11.624,0.23069,0.49756,0.40025,0.61914,0.75098,58.866,12.435
11.632,0.23069,0.54448,0.40517,0.61523,0.75098,58.67,12.383
11.64,0.23167,0.58847,0.40517,0.61523,0.75098,58.67,12.435
11.648,0.23167,0.62659,0.40025,0.61914,0.75098,58.67,12.694
11.656,0.23265,0.65885,0.4101,0.62891,0.74118,58.67,13.005
11.664,0.23265,0.68524,0.45443,0.60938,0.7,58.866,13.472
11.672,0.23265,0.70577,0.56527,0.56055,0.59608,59.061,13.938
11.68,0.23265,0.72043,0.77463,0.4707,0.40392,59.257,14.663
11.688,0.23363,0.73021,0.9803,0.31445,0.21373,59.257,15.285
11.696,0.23363,0.73509,1,0.18945,0.18431,59.257,15.907
11.704,0.2346,0.73803,0.65517,0.17969,0.4549,59.257,16.269
11.712,0.23558,0.73803,0.43473,0.39453,0.67647,59.257,16.425
11.72,0.23656,0.73705,0.35961,0.55469,0.77059,59.257,16.321
11.728,0.23754,0.73216,0.35468,0.64062,0.78039,58.866,16.01
11.736,0.23949,0.7263,0.36946,0.66992,0.78039,58.67,15.596
11.744,0.24047,0.71848,0.37562,0.67969,0.77647,58.279,15.13
11.752,0.24242,0.7087,0.38054,0.68555,0.77647,57.888,14.819
11.76,0.24438,0.69697,0.39039,0.68945,0.77059,57.497,14.715
11.768,0.24731,0.68328,0.39532,0.68945,0.76667,56.91,14.715
11.776,0.25024,0.66862,0.40517,0.68945,0.76078,56.519,14.767
11.784,0.25415,0.64907,0.41502,0.68945,0.7549,55.932,14.767
11.792,0.25806,0.6305,0.41502,0.68945,0.75098,55.346,14.663
11.8,0.26197,0.61584,0.42488,0.68945,0.74118,54.759,14.249
11.808,0.26588,0.59726,0.43473,0.68945,0.73529,54.172,13.782
11.816,0.26882,0.57674,0.44458,0.69531,0.73137,53.585,13.264
11.824,0.27273,0.55523,0.45443,0.69922,0.71569,52.999,12.953
11.832,0.27664,0.53275,0.47044,0.69922,0.70588,52.608,12.902
11.84,0.28055,0.51124,0.49015,0.70508,0.69608,52.021,13.161
11.848,0.28543,0.49071,0.50985,0.70898,0.67647,51.63,13.679
11.856,0.29032,0.47116,0.53448,0.70898,0.6549,51.043,14.301
11.864,0.29521,0.45357,0.5702,0.70508,0.63529,50.652,14.87
11.872,0.29912,0.43793,0.59975,0.69922,0.6098,50.065,15.13
11.88,0.30303,0.42424,0.61946,0.69531,0.59608,49.479,14.974
11.888,0.30694,0.41447,0.63054,0.68945,0.5902,49.087,14.249
11.896,0.31183,0.40665,0.63054,0.68555,0.58431,49.479,13.161
11.904,0.31672,0.39883,0.61453,0.68555,0.59608,51.239,11.969
11.912,0.3216,0.39198,0.5899,0.67969,0.6098,55.737,10.933
11.92,0.32747,0.3871,0.56527,0.67969,0.62941,63.364,10.363
11.928,0.33236,0.38221,0.53941,0.67578,0.65098,73.338,10.311
11.936,0.33822,0.37732,0.50985,0.66992,0.67059,83.898,10.622
11.944,0.34409,0.37439,0.48522,0.66406,0.6902,93.872,11.244
11.952,0.34995,0.37048,0.46552,0.66016,0.70588,102.67,11.865
11.96,0.35582,0.36657,0.44951,0.6543,0.71569,110.3,12.383
11.968,0.3607,0.36266,0.43966,0.65039,0.72157,116.36,12.591
11.976,0.36461,0.35973,0.43473,0.65039,0.73137,120.08,12.487
11.984,0.3695,0.35582,0.43473,0.64453,0.73137,121.45,12.176
11.992,0.37439,0.35191,0.43473,0.64453,0.73137,120.86,11.813
12,0.3783,0.34702,0.43473,0.64453,0.73137,119.49,11.554
12.008,0.38319,0.34311,0.43473,0.64453,0.72549,117.54,11.554
12.016,0.3871,0.33822,0.43966,0.64453,0.72157,114.99,11.762
12.024,0.39101,0.33236,0.43966,0.64453,0.72157,112.45,12.021
12.032,0.39492,0.32747,0.44458,0.64453,0.71569,109.52,12.332
12.04,0.39883,0.3216,0.45443,0.64453,0.71569,106.58,12.487
12.048,0.40176,0.31574,0.46059,0.64062,0.71569,103.65,12.694
12.056,0.40567,0.3089,0.46059,0.64453,0.71569,100.91,12.902
12.064,0.4086,0.30303,0.46059,0.64453,0.71569,97.979,13.005
12.072,0.41153,0.29619,0.46059,0.64453,0.71569,95.437,13.212
12.08,0.41447,0.29228,0.45443,0.64453,0.71569,92.894,13.368
12.088,0.4174,0.28837,0.45443,0.65039,0.71569,90.157,13.575
12.096,0.42131,0.28348,0.47044,0.66016,0.70588,87.614,13.782
12.104,0.42424,0.27859,0.48522,0.66992,0.69608,84.876,13.938
12.112,0.42815,0.2737,0.49507,0.67969,0.68627,82.138,14.197
12.12,0.43109,0.26784,0.50985,0.68555,0.68039,79.205,14.404
12.128,0.43402,0.261,0.53448,0.68945,0.66471,76.271,14.56
12.136,0.43695,0.25513,0.55542,0.67578,0.65098,73.338,14.767
12.144,0.43988,0.24927,0.56034,0.6543,0.65098,70.6,14.87
12.152,0.44282,0.24731,0.54557,0.64062,0.65098,68.253,15.078
12.16,0.44673,0.25024,0.52956,0.63477,0.6549,66.102,15.285
12.168,0.44966,0.26002,0.50985,0.62891,0.67059,64.342,15.44
12.176,0.45357,0.27957,0.4803,0.62891,0.6902,62.777,15.648
12.184,0.4565,0.30303,0.44951,0.63477,0.71569,61.408,15.751
12.192,0.45846,0.33333,0.4298,0.63477,0.73137,60.235,15.959
12.2,0.46041,0.37341,0.41995,0.63477,0.73529,59.648,16.114
12.208,0.46237,0.42131,0.41502,0.63477,0.74118,59.061,16.269
12.216,0.46432,0.47116,0.4101,0.62891,0.7451,58.67,16.425
12.224,0.46628,0.52199,0.4101,0.62891,0.7451,58.475,16.632
12.232,0.46823,0.56891,0.4101,0.62891,0.7451,58.475,16.788
12.24,0.47019,0.61095,0.41502,0.63477,0.74118,58.67,16.891
12.248,0.47214,0.64712,0.43473,0.64062,0.72549,59.061,16.891
12.256,0.4741,0.67742,0.5,0.60938,0.67647,59.257,16.788
12.264,0.47605,0.70088,0.6601,0.54492,0.53922,59.648,16.632
12.272,0.47801,0.71945,0.91995,0.43555,0.32941,60.039,16.632
12.28,0.47898,0.73021,1.0899,0.25977,0.17451,60.235,16.632
12.288,0.48094,0.73607,0.94458,0.16992,0.25882,60.43,16.684
12.296,0.48192,0.74096,0.61946,0.25586,0.51961,60.43,16.632
12.304,0.48289,0.74194,0.4101,0.44531,0.70588,60.43,16.58
12.312,0.48387,0.74096,0.36453,0.58984,0.77059,60.43,16.788
12.32,0.48485,0.73803,0.36453,0.66016,0.77647,60.235,17.202
12.328,0.4868,0.73216,0.36946,0.67969,0.77647,60.039,17.617
12.336,0.48778,0.72532,0.37562,0.68945,0.77647,59.648,17.876
12.344,0.48876,0.71554,0.38054,0.69531,0.77647,59.257,17.927
12.352,0.48974,0.70479,0.39039,0.69922,0.76667,58.866,17.824
12.36,0.48974,0.6911,0.39532,0.69922,0.76078,58.475,17.617
12.368,0.49071,0.67644,0.40517,0.69531,0.7549,58.083,17.409
12.376,0.49169,0.65982,0.41502,0.69531,0.75098,57.692,17.15
12.384,0.49267,0.64418,0.41995,0.69531,0.74118,57.106,16.839
12.392,0.49365,0.62659,0.4298,0.69531,0.73529,56.519,16.58
12.4,0.49462,0.60704,0.43966,0.69531,0.73137,56.128,16.425
12.408,0.4956,0.58651,0.44951,0.69922,0.72157,55.541,16.373
12.416,0.49658,0.56403,0.46059,0.69922,0.7098,55.15,16.321
12.424,0.49658,0.54154,0.47537,0.69922,0.7,54.759,16.321
12.432,0.49756,0.51906,0.49507,0.70508,0.6902,54.172,16.425
12.44,0.49756,0.49756,0.52463,0.70898,0.67059,53.781,16.684
12.448,0.49756,0.47801,0.55542,0.70898,0.6451,53.194,16.891
12.456,0.49756,0.46041,0.5899,0.70898,0.61961,52.412,17.098
12.464,0.49756,0.44477,0.61453,0.70508,0.6,52.021,17.15
12.472,0.49756,0.43109,0.63054,0.69922,0.5902,51.434,16.995
12.48,0.49853,0.42131,0.64039,0.69531,0.58431,51.239,16.684
12.488,0.49951,0.41349,0.63547,0.68555,0.58431,52.412,16.114
12.496,0.49951,0.40665,0.61453,0.67969,0.6,55.932,15.492
12.504,0.50049,0.40078,0.5899,0.67578,0.61569,62.582,14.87
12.512,0.50049,0.39589,0.56034,0.66992,0.64118,71.969,14.456
12.52,0.50147,0.39198,0.52463,0.66406,0.66078,82.921,14.145
12.528,0.50147,0.39003,0.49507,0.66016,0.68627,93.286,13.99
12.536,0.50147,0.3871,0.46552,0.6543,0.70588,102.48,13.99
12.544,0.50244,0.38416,0.44951,0.65039,0.72157,110.5,14.093
12.552,0.50342,0.38221,0.43473,0.64453,0.73137,116.95,14.093
12.56,0.5044,0.37928,0.4298,0.64062,0.73137,121.25,13.99
12.568,0.50342,0.37537,0.42488,0.63477,0.73529,123.01,13.834
12.576,0.50342,0.37243,0.42488,0.63477,0.73529,122.82,13.575
12.584,0.50147,0.3695,0.4298,0.62891,0.73529,121.45,13.264
12.592,0.49951,0.36657,0.4298,0.63477,0.73137,119.49,13.057
12.6,0.49756,0.36364,0.4298,0.63477,0.73137,117.14,12.902
12.608,0.4956,0.35973,0.43473,0.63477,0.73137,114.6,12.85
12.616,0.49365,0.35484,0.43966,0.63477,0.72549,111.86,12.694
12.624,0.49169,0.34995,0.44458,0.63477,0.72157,109.13,12.642
12.632,0.48876,0.34506,0.44951,0.63477,0.71569,106.39,12.591
12.64,0.48583,0.34018,0.44951,0.63477,0.71569,103.46,12.591
12.648,0.48192,0.33431,0.44951,0.64062,0.72157,100.72,12.487
12.656,0.47898,0.32942,0.44951,0.64062,0.72157,97.979,12.487
12.664,0.47507,0.32356,0.44951,0.64062,0.72157,95.241,12.487
12.672,0.47214,0.31867,0.44951,0.63477,0.72157,92.503,12.591
12.68,0.46823,0.31476,0.44951,0.63477,0.72157,89.961,12.694
12.688,0.4653,0.31183,0.45443,0.64062,0.7098,87.223,12.85
12.696,0.46041,0.30694,0.47044,0.65039,0.70588,84.485,13.005
12.704,0.4565,0.30205,0.48522,0.66016,0.69608,81.552,13.057
12.712,0.45161,0.29619,0.49507,0.66992,0.68627,78.814,13.161
12.72,0.44575,0.29032,0.51478,0.67578,0.67647,75.88,13.264
12.728,0.43988,0.28446,0.53941,0.67969,0.6549,73.142,13.316
12.736,0.43304,0.28055,0.55049,0.6543,0.65098,70.404,13.472
12.744,0.4262,0.28055,0.54557,0.63477,0.65098,68.057,13.472
12.752,0.41935,0.28641,0.53448,0.61914,0.6549,65.906,13.523
12.76,0.41153,0.3001,0.51478,0.61523,0.66471,64.146,13.523
12.768,0.40469,0.32356,0.49015,0.61523,0.68039,62.777,13.523
12.776,0.39687,0.35777,0.46059,0.61914,0.70588,61.408,13.627
12.784,0.38905,0.39296,0.4298,0.625,0.73137,60.43,13.782
12.792,0.38025,0.43109,0.41502,0.625,0.74118,59.844,13.834
12.8,0.37243,0.47605,0.40517,0.625,0.7451,59.257,13.834
12.808,0.36266,0.53568,0.40025,0.61914,0.75098,59.061,13.679
12.816,0.35386,0.58847,0.40025,0.61914,0.75098,58.866,13.627
12.824,0.34506,0.62366,0.40025,0.61914,0.75098,58.866,13.627
12.832,0.33627,0.65689,0.40025,0.61914,0.7451,59.061,13.782
12.84,0.32845,0.68524,0.4101,0.62891,0.74118,59.257,13.834
12.848,0.32063,0.70968,0.43966,0.61914,0.71569,59.452,13.886
12.856,0.31378,0.72825,0.52956,0.58008,0.64118,59.648,13.99
12.864,0.30694,0.74096,0.72044,0.5,0.47451,59.844,14.249
12.872,0.30108,0.74976,0.97044,0.34961,0.25882,59.844,14.715
12.88,0.29423,0.75367,1.0443,0.17969,0.17451,59.844,15.285
12.888,0.28935,0.75367,0.79557,0.15039,0.34902,59.844,15.907
12.896,0.28446,0.75269,0.50493,0.31055,0.6098,59.844,16.425
12.904,0.28055,0.74878,0.37562,0.5,0.75098,59.648,16.891
12.912,0.27664,0.74291,0.35468,0.61523,0.78039,59.257,17.254
12.92,0.2737,0.73607,0.36453,0.66406,0.78627,58.866,17.461
12.928,0.27077,0.7263,0.36946,0.67969,0.78039,58.67,17.409
12.936,0.26784,0.71554,0.37562,0.68555,0.78039,58.279,16.995
12.944,0.26588,0.70381,0.38054,0.68945,0.77647,57.888,16.528
12.952,0.26491,0.68915,0.38547,0.68945,0.77059,57.497,15.959
12.96,0.26393,0.67351,0.39532,0.68945,0.76667,56.91,15.492
12.968,0.26295,0.65591,0.40025,0.68945,0.76078,56.519,15.13
12.976,0.26295,0.63636,0.4101,0.68945,0.7549,56.128,14.87
12.984,0.26295,0.61779,0.41502,0.68945,0.75098,55.541,14.715
12.992,0.26197,0.59824,0.42488,0.69531,0.7451,55.15,14.508
13,0.26197,0.57674,0.43473,0.69531,0.74118,54.563,14.301
13.008,0.26197,0.55425,0.44458,0.69922,0.73137,53.977,14.197
13.016,0.26197,0.53079,0.46059,0.70508,0.72157,53.585,14.145
13.024,0.261,0.50831,0.47537,0.70508,0.7098,52.999,14.197
13.032,0.261,0.48583,0.49507,0.70508,0.69608,52.608,14.301
13.04,0.261,0.46628,0.52463,0.70898,0.67647,52.021,14.508
13.048,0.261,0.4477,0.56034,0.70898,0.65098,51.63,14.819
13.056,0.26002,0.43109,0.58498,0.70898,0.62549,51.043,15.13
13.064,0.26002,0.41642,0.60961,0.70508,0.60588,50.456,15.337
13.072,0.26002,0.40469,0.62438,0.69922,0.5902,50.065,15.285
13.08,0.25904,0.39589,0.63054,0.68945,0.5902,50.261,14.767
13.088,0.25904,0.38905,0.61946,0.67969,0.5902,52.021,13.886
13.096,0.25806,0.38319,0.59975,0.67578,0.60588,56.323,12.85
13.104,0.25709,0.3783,0.5702,0.66992,0.62941,63.755,11.865
13.112,0.25611,0.37341,0.53941,0.66406,0.6549,73.533,11.347
13.12,0.25513,0.37048,0.50493,0.66406,0.68039,84.094,11.088
13.128,0.25415,0.36657,0.47537,0.66016,0.7,93.872,11.244
13.136,0.25415,0.36364,0.45443,0.6543,0.71569,102.67,11.658
13.144,0.2522,0.3607,0.43966,0.65039,0.72549,110.5,12.124
13.152,0.25122,0.35679,0.4298,0.64453,0.73529,116.75,12.487
13.16,0.25024,0.35288,0.41995,0.64062,0.74118,120.67,12.642
13.168,0.24829,0.34897,0.41995,0.64062,0.74118,122.03,12.435
13.176,0.24633,0.34506,0.42488,0.64062,0.73529,121.64,12.073
13.184,0.24438,0.34213,0.42488,0.63477,0.73529,120.27,11.658
13.192,0.24145,0.3392,0.42488,0.63477,0.73529,118.32,11.244
13.2,0.23949,0.33431,0.4298,0.64062,0.73137,115.97,11.088
13.208,0.23656,0.3304,0.43473,0.64062,0.73137,113.43,11.036
13.216,0.23363,0.32551,0.43966,0.64062,0.72549,110.69,11.14
13.224,0.22972,0.31965,0.44951,0.64453,0.72157,107.95,11.347
13.232,0.22678,0.31476,0.44951,0.64453,0.72157,105.22,11.554
13.24,0.22483,0.3089,0.45443,0.64453,0.72157,102.48,11.762
13.248,0.2219,0.30303,0.45443,0.64453,0.71569,99.544,11.969
13.256,0.21994,0.29814,0.45443,0.64453,0.71569,96.806,12.073
13.264,0.21896,0.29228,0.45443,0.64453,0.71569,94.263,12.176
13.272,0.21701,0.28641,0.45443,0.64453,0.72157,91.525,12.332
13.28,0.21505,0.2825,0.45443,0.64453,0.72157,88.983,12.435
13.288,0.2131,0.27957,0.46552,0.65039,0.7098,86.245,12.642
13.296,0.21212,0.27468,0.4803,0.66016,0.7,83.312,12.85
13.304,0.21114,0.26979,0.49507,0.66992,0.6902,80.378,13.161
13.312,0.21017,0.26393,0.50985,0.67969,0.68039,77.249,13.368
13.32,0.20919,0.25806,0.53448,0.68555,0.66471,74.12,13.627
13.328,0.20821,0.2522,0.55049,0.66992,0.65098,71.382,13.938
13.336,0.20723,0.24829,0.55542,0.65039,0.65098,68.84,14.249
13.344,0.20626,0.24927,0.53941,0.63477,0.65098,66.688,14.56
13.352,0.20528,0.25611,0.52956,0.625,0.6549,64.733,14.767
13.36,0.2043,0.27175,0.50985,0.625,0.67059,62.973,14.819
13.368,0.20332,0.29717,0.47537,0.625,0.69608,61.604,14.715
13.376,0.20235,0.33236,0.44458,0.625,0.72157,60.43,14.301
13.384,0.20137,0.3695,0.41995,0.62891,0.74118,59.648,13.938
13.392,0.20039,0.4086,0.4101,0.625,0.7451,58.866,13.575
13.4,0.19941,0.45552,0.4101,0.625,0.75098,58.475,13.264
13.408,0.19844,0.5044,0.40517,0.61914,0.75098,58.279,13.005
13.416,0.19844,0.5523,0.40517,0.61914,0.75098,58.083,13.005
13.424,0.19844,0.59629,0.40025,0.61914,0.75098,58.083,13.057
13.432,0.19746,0.63441,0.40025,0.625,0.75098,58.083,13.264
13.44,0.19746,0.66667,0.41502,0.63477,0.74118,58.279,13.575
13.448,0.19844,0.69208,0.46552,0.60938,0.69608,58.279,13.938
13.456,0.19844,0.71163,0.5899,0.55078,0.58431,58.475,14.456
13.464,0.19844,0.7263,0.81527,0.44531,0.38431,58.67,15.026
13.472,0.19844,0.73607,1.0148,0.2793,0.20392,58.866,15.648
13.48,0.19941,0.74096,0.93473,0.16016,0.18431,58.866,16.269
13.488,0.19941,0.74291,0.64039,0.22461,0.47451,59.061,16.684
13.496,0.20039,0.74194,0.4298,0.41016,0.6902,59.061,16.891
13.504,0.20235,0.739,0.35961,0.57031,0.77059,58.866,16.891
13.512,0.20332,0.73412,0.35961,0.65039,0.78039,58.866,16.788
13.52,0.20528,0.72727,0.36946,0.67969,0.78039,58.67,16.528
13.528,0.20626,0.71848,0.37562,0.68945,0.78039,58.279,16.218
13.536,0.20821,0.70772,0.38547,0.69531,0.77647,58.083,15.751
13.544,0.21017,0.69599,0.39039,0.69922,0.77059,57.692,15.44
13.552,0.21212,0.68133,0.39532,0.69531,0.76667,57.301,15.181
13.56,0.21408,0.66569,0.40025,0.69531,0.76078,56.91,15.13
13.568,0.21603,0.64712,0.4101,0.69531,0.7549,56.323,15.13
13.576,0.21701,0.62757,0.41502,0.69531,0.75098,55.932,15.078
13.584,0.21896,0.60899,0.42488,0.69531,0.74118,55.346,14.974
13.592,0.21994,0.59042,0.43473,0.69531,0.74118,54.759,14.663
13.6,0.2219,0.56891,0.44951,0.69531,0.73529,54.368,14.404
13.608,0.22385,0.54643,0.46059,0.69922,0.72157,53.781,14.145
13.616,0.22581,0.52395,0.47044,0.69922,0.7098,53.39,14.093
13.624,0.22776,0.50147,0.49015,0.69922,0.69608,52.999,14.249
13.632,0.22972,0.47996,0.51478,0.70508,0.68039,52.412,14.56
13.64,0.23167,0.46041,0.54557,0.70508,0.66078,52.021,15.026
13.648,0.2346,0.44282,0.57512,0.70508,0.63529,51.434,15.389
13.656,0.23656,0.42815,0.60468,0.69922,0.6098,50.847,15.648
13.664,0.23851,0.41447,0.62438,0.69531,0.5902,50.456,15.648
13.672,0.24047,0.40371,0.63547,0.68945,0.58431,50.261,15.13
13.68,0.2434,0.39589,0.63547,0.68555,0.58431,50.847,14.197
13.688,0.24536,0.39003,0.61453,0.67969,0.59608,53.39,13.057
13.696,0.24731,0.38416,0.5899,0.66992,0.61569,58.67,11.969
13.704,0.24927,0.38025,0.56034,0.66992,0.63529,66.884,11.192
13.712,0.2522,0.37634,0.52956,0.66406,0.6549,76.662,10.777
13.72,0.25318,0.37243,0.5,0.66016,0.68039,86.832,10.777
13.728,0.25513,0.3695,0.47537,0.6543,0.7,96.024,11.14
13.736,0.25709,0.36657,0.45443,0.64453,0.71569,104.43,11.71
13.744,0.25806,0.36364,0.43966,0.64062,0.72549,111.86,12.176
13.752,0.25904,0.35973,0.4298,0.64062,0.73137,117.34,12.435
13.76,0.26002,0.35679,0.42488,0.63477,0.73529,120.67,12.383
13.768,0.261,0.35288,0.42488,0.62891,0.73529,121.84,12.073
13.776,0.261,0.34897,0.4298,0.62891,0.73529,121.45,11.71
13.784,0.261,0.34604,0.4298,0.63477,0.73137,120.08,11.347
13.792,0.261,0.34311,0.43473,0.63477,0.72549,118.32,11.088
13.8,0.261,0.33724,0.43966,0.63477,0.72157,115.97,10.933
13.808,0.26002,0.33236,0.44458,0.63477,0.72157,113.23,11.036
13.816,0.25806,0.32747,0.44951,0.63477,0.72157,110.3,11.14
13.824,0.25709,0.32258,0.44951,0.63477,0.72157,107.37,11.399
13.832,0.25415,0.31574,0.44951,0.63477,0.71569,104.24,11.71
13.84,0.2522,0.30987,0.45443,0.63477,0.71569,101.11,11.969
13.848,0.25024,0.30499,0.45443,0.63477,0.71569,98.175,12.124
13.856,0.24829,0.3001,0.45443,0.64062,0.71569,95.437,12.28
13.864,0.24731,0.29521,0.45443,0.64062,0.71569,92.699,12.383
13.872,0.24633,0.28935,0.45443,0.63477,0.72157,89.961,12.487
13.88,0.24438,0.28641,0.46059,0.64062,0.7098,87.223,12.694
13.888,0.2434,0.2825,0.4803,0.6543,0.69608,84.289,12.902
13.896,0.24145,0.27859,0.49507,0.66406,0.68627,81.356,13.057
13.904,0.23949,0.2737,0.50493,0.66992,0.67647,78.618,13.316
13.912,0.23851,0.26784,0.52463,0.67969,0.66471,75.685,13.627
13.92,0.23656,0.261,0.54557,0.67969,0.65098,72.947,13.938
13.928,0.2346,0.25709,0.55542,0.66016,0.65098,70.404,14.301
13.936,0.23265,0.25513,0.54557,0.63477,0.65098,68.057,14.715
13.944,0.23167,0.25709,0.53941,0.625,0.65098,65.906,15.078
13.952,0.23069,0.26686,0.5197,0.61914,0.66078,64.146,15.181
13.96,0.22972,0.28543,0.49507,0.61914,0.68039,62.777,15.026
13.968,0.22874,0.31476,0.46059,0.625,0.70588,61.408,14.715
13.976,0.22776,0.34604,0.4298,0.625,0.73137,60.43,14.197
13.984,0.22776,0.38221,0.41502,0.625,0.74118,59.844,13.782
13.992,0.22678,0.4262,0.4101,0.625,0.74118,59.257,13.368
14,0.22678,0.47507,0.4101,0.625,0.7451,58.866,13.212
14.008,0.22678,0.52395,0.4101,0.61914,0.75098,58.67,13.161
14.016,0.22678,0.56989,0.40517,0.61523,0.75098,58.67,13.212
14.024,0.22678,0.61095,0.40517,0.61523,0.75098,58.67,13.472
14.032,0.22678,0.64516,0.4101,0.625,0.7451,58.866,13.679
14.04,0.22776,0.67058,0.43966,0.61914,0.72157,59.061,14.093
14.048,0.22776,0.69208,0.5197,0.58008,0.64118,59.452,14.456
14.056,0.22874,0.7087,0.69458,0.50586,0.48431,59.648,14.974
14.064,0.23069,0.72043,0.93473,0.36523,0.26863,59.844,15.492
14.072,0.23167,0.72825,1.0148,0.20117,0.17843,59.844,16.062
14.08,0.23363,0.73118,0.79557,0.16016,0.33529,59.844,16.528
14.088,0.2346,0.73021,0.51478,0.31055,0.59608,59.844,16.788
14.096,0.23656,0.72923,0.38054,0.49414,0.7451,59.648,16.891
14.104,0.23754,0.72532,0.35961,0.61523,0.78039,59.452,16.891
14.112,0.23949,0.72043,0.36946,0.66406,0.78039,59.061,16.788
14.12,0.24047,0.71261,0.37562,0.67969,0.78039,58.866,16.425
14.128,0.24145,0.70381,0.38054,0.68555,0.77647,58.475,16.01
14.136,0.2434,0.69306,0.38547,0.68945,0.77647,58.083,15.648
14.144,0.24536,0.68035,0.39039,0.68945,0.76667,57.692,15.337
14.152,0.24731,0.66667,0.39532,0.68945,0.76667,57.106,15.181
14.16,0.25024,0.65103,0.40025,0.68945,0.76078,56.715,15.181
14.168,0.25122,0.63343,0.4101,0.69531,0.75098,56.128,15.181
14.176,0.25318,0.61584,0.41995,0.68945,0.7451,55.541,15.026
14.184,0.25513,0.59922,0.4298,0.68945,0.74118,55.15,14.767
14.192,0.25611,0.57869,0.43473,0.68945,0.73529,54.563,14.456
14.2,0.25806,0.55718,0.44951,0.69531,0.73137,53.977,14.197
14.208,0.26002,0.53568,0.46059,0.69922,0.72157,53.585,14.093
14.216,0.26197,0.5132,0.47537,0.69922,0.7098,52.999,14.197
14.224,0.26295,0.49267,0.49507,0.70508,0.69608,52.608,14.508
14.232,0.26491,0.47312,0.5197,0.70508,0.67647,52.021,14.87
14.24,0.26588,0.45455,0.55542,0.70898,0.65098,51.63,15.337
14.248,0.26686,0.43891,0.58005,0.70898,0.62941,51.043,15.596
14.256,0.26882,0.42522,0.60468,0.70508,0.6098,50.456,15.596
14.264,0.26979,0.41349,0.62438,0.69922,0.59608,50.065,15.181
14.272,0.27077,0.40371,0.62438,0.68945,0.5902,50.261,14.404
14.28,0.27273,0.39589,0.61453,0.68555,0.59608,51.63,13.161
14.288,0.27468,0.39101,0.59483,0.67969,0.6098,55.346,11.813
14.296,0.27566,0.38612,0.56527,0.67969,0.62941,61.995,10.777
14.304,0.27761,0.38221,0.53941,0.66992,0.65098,71.186,10
14.312,0.27957,0.37928,0.50985,0.66406,0.67647,81.356,9.7409
14.32,0.28152,0.37634,0.4803,0.66406,0.69608,91.134,9.8446
14.328,0.2825,0.37341,0.45443,0.66016,0.7098,99.935,10.155
14.336,0.28446,0.37048,0.43966,0.6543,0.73137,107.76,10.57
14.344,0.28543,0.36755,0.4298,0.65039,0.73529,114.02,10.881
14.352,0.28641,0.36461,0.42488,0.64453,0.74118,118.32,10.933
14.36,0.28739,0.36168,0.41995,0.64453,0.74118,120.27,10.622
14.368,0.28837,0.35777,0.42488,0.64062,0.74118,120.47,10.207
14.376,0.28837,0.35484,0.4298,0.64062,0.73529,119.49,9.6891
14.384,0.28935,0.35288,0.4298,0.64062,0.73137,117.93,9.3782
14.392,0.28837,0.34897,0.4298,0.64062,0.73137,115.78,9.2228
14.4,0.28739,0.34506,0.43473,0.64062,0.73137,113.23,9.2228
14.408,0.28543,0.34018,0.43966,0.64062,0.72549,110.69,9.3264
14.416,0.28446,0.33529,0.43966,0.64062,0.72157,107.95,9.5337
14.424,0.2825,0.3304,0.44458,0.64062,0.72157,105.22,9.6891
14.432,0.28152,0.32454,0.44951,0.64062,0.72157,102.28,9.9482
14.44,0.28055,0.31867,0.44951,0.64062,0.72157,99.348,10.155
14.448,0.27957,0.31378,0.44458,0.64453,0.72157,96.61,10.363
14.456,0.27761,0.30792,0.44458,0.64453,0.72157,93.872,10.622
14.464,0.27664,0.30303,0.44458,0.64453,0.72157,91.134,10.933
14.472,0.27468,0.29717,0.45443,0.64453,0.71569,88.396,11.399
14.48,0.2737,0.29326,0.46552,0.66016,0.7098,85.658,11.865
14.488,0.27273,0.29032,0.4803,0.66992,0.7,82.921,12.487
14.496,0.27175,0.28543,0.49507,0.67969,0.69608,79.987,13.212
14.504,0.27175,0.28055,0.50985,0.68945,0.68039,76.858,13.886
14.512,0.27175,0.27468,0.53448,0.68945,0.66471,73.924,14.508
14.52,0.27273,0.26882,0.54557,0.67578,0.6549,70.991,14.974
14.528,0.2737,0.26491,0.53941,0.6543,0.6549,68.449,15.13
14.536,0.27468,0.26491,0.52956,0.64453,0.6549,66.297,15.026
14.544,0.27566,0.26979,0.51478,0.64062,0.66471,64.342,14.456
14.552,0.27761,0.2825,0.49015,0.63477,0.68627,62.386,13.575
14.56,0.27957,0.30499,0.45443,0.63477,0.7098,61.017,12.591
14.568,0.28152,0.34311,0.4298,0.63477,0.72549,59.648,11.762
14.576,0.28446,0.38025,0.41502,0.64062,0.74118,58.475,11.192
14.584,0.28641,0.41153,0.4101,0.63477,0.7451,57.888,11.088
14.592,0.28935,0.45357,0.40025,0.63477,0.7451,57.301,11.192
14.6,0.2913,0.49951,0.40025,0.63477,0.75098,56.91,11.658
14.608,0.29423,0.54448,0.40025,0.63477,0.75098,56.91,12.124
14.616,0.29814,0.58749,0.40025,0.63477,0.75098,56.91,12.694
14.624,0.30108,0.62463,0.40517,0.64062,0.7451,57.106,13.161
14.632,0.30596,0.65591,0.4298,0.62891,0.72549,57.301,13.575
14.64,0.31085,0.68133,0.50985,0.5957,0.6451,57.497,13.99
14.648,0.31574,0.70088,0.69458,0.52539,0.48039,57.888,14.508
14.656,0.3216,0.71554,0.93966,0.40039,0.26863,58.279,15.078
14.664,0.32845,0.7263,1.0148,0.25,0.18824,58.279,15.596
14.672,0.33431,0.73216,0.77463,0.21094,0.36471,58.475,15.959
14.68,0.34115,0.73412,0.5,0.34961,0.61569,58.67,16.218
14.688,0.348,0.73216,0.38054,0.51562,0.75098,58.67,16.218
14.696,0.35484,0.72727,0.36453,0.62891,0.77647,58.475,16.218
14.704,0.36168,0.72141,0.37562,0.67578,0.77647,58.279,16.218
14.712,0.37048,0.71652,0.38054,0.68945,0.77059,58.279,16.114
14.72,0.3783,0.7087,0.39039,0.69922,0.76667,57.888,16.114
14.728,0.3871,0.69599,0.39532,0.69922,0.76078,57.497,16.01
14.736,0.39589,0.68231,0.40025,0.69922,0.76078,56.91,15.907
14.744,0.40371,0.67253,0.40517,0.69922,0.7549,56.519,15.751
14.752,0.41251,0.65885,0.41502,0.69922,0.75098,56.128,15.596
14.76,0.42131,0.64321,0.41995,0.69531,0.74118,55.541,15.337
14.768,0.42913,0.62463,0.4298,0.69922,0.73529,55.15,15.078
14.776,0.43793,0.60704,0.43473,0.69922,0.73137,54.759,14.767
14.784,0.4477,0.58944,0.44951,0.69922,0.72549,54.172,14.508
14.792,0.4565,0.56989,0.45443,0.69922,0.71569,53.781,14.404
14.8,0.46628,0.54839,0.47044,0.70508,0.70588,53.39,14.404
14.808,0.47703,0.5259,0.4803,0.69922,0.69608,52.999,14.56
14.816,0.4868,0.49951,0.50493,0.70508,0.67647,52.412,15.078
14.824,0.49756,0.47214,0.53448,0.70508,0.66078,52.021,15.699
14.832,0.50733,0.45357,0.56527,0.70508,0.63529,51.434,16.269
14.84,0.51613,0.44086,0.59975,0.70508,0.61569,51.043,16.58
14.848,0.52493,0.42424,0.62438,0.69922,0.5902,50.456,16.425
14.856,0.53177,0.4086,0.64039,0.69922,0.58431,50.065,16.01
14.864,0.53861,0.39589,0.64532,0.68945,0.58039,50.065,15.337
14.872,0.54545,0.38905,0.63547,0.68945,0.58431,51.043,14.663
14.88,0.5523,0.38319,0.61453,0.68555,0.6,54.368,14.093
14.888,0.55914,0.37928,0.58498,0.67969,0.61961,61.017,13.782
14.896,0.56598,0.37634,0.55542,0.67969,0.6451,70.795,13.575
14.904,0.57185,0.37243,0.52463,0.66992,0.67059,81.552,13.627
14.912,0.57869,0.3695,0.49507,0.66992,0.6902,91.917,13.782
14.92,0.58358,0.36559,0.47044,0.66406,0.70588,101.11,13.938
14.928,0.58944,0.36266,0.44951,0.6543,0.72157,109.32,14.197
14.936,0.59531,0.35973,0.43966,0.65039,0.72549,116.36,14.404
14.944,0.6002,0.35679,0.43473,0.64453,0.73137,120.86,14.56
14.952,0.60508,0.35386,0.43473,0.64062,0.73529,122.62,14.715
14.96,0.60997,0.35093,0.43473,0.64062,0.73529,122.43,14.819
14.968,0.61388,0.348,0.43473,0.64062,0.73137,120.86,14.974
14.976,0.61779,0.34506,0.43966,0.64062,0.72549,118.71,15.181
14.984,0.62072,0.34213,0.44458,0.64062,0.72157,116.17,15.389
14.992,0.62268,0.33822,0.44951,0.64062,0.72157,113.43,15.596
15,0.62463,0.33431,0.44951,0.64062,0.71569,110.5,15.751
15.008,0.62561,0.32942,0.45443,0.64062,0.71569,107.37,15.907
15.016,0.62561,0.32454,0.45443,0.63477,0.7098,104.24,16.062
15.024,0.62561,0.31965,0.45443,0.63477,0.7098,101.11,16.269
15.032,0.62463,0.31574,0.46059,0.63477,0.7098,98.175,16.425
15.04,0.62366,0.31183,0.46059,0.63477,0.7098,95.437,16.632
15.048,0.6217,0.30596,0.46059,0.63477,0.7098,92.699,16.788
15.056,0.61975,0.30108,0.46059,0.63477,0.7098,89.961,16.839
15.064,0.61681,0.29619,0.45443,0.63477,0.7098,87.223,16.684
15.072,0.61486,0.29326,0.46059,0.64453,0.70588,84.485,16.269
15.08,0.61193,0.29032,0.4803,0.6543,0.69608,81.552,15.596
15.088,0.60899,0.28543,0.49015,0.66992,0.6902,78.814,14.974
15.096,0.60606,0.28055,0.49507,0.67578,0.68627,75.88,14.508
15.104,0.60215,0.27468,0.5197,0.67969,0.67059,72.947,14.301
15.112,0.59824,0.27077,0.54557,0.66992,0.6549,70.209,14.404
15.12,0.59531,0.27077,0.55049,0.65039,0.65098,67.666,14.663
15.128,0.59042,0.27566,0.53941,0.63477,0.6549,65.515,15.078
15.136,0.58651,0.28739,0.52956,0.625,0.6549,63.755,15.596
15.144,0.58162,0.30987,0.51478,0.61914,0.66471,62.386,15.959
15.152,0.57771,0.34115,0.48522,0.61914,0.68627,61.017,16.114
15.16,0.57283,0.38123,0.45443,0.625,0.7098,60.039,16.062
15.168,0.56891,0.42033,0.4298,0.625,0.72549,59.257,15.803
15.176,0.565,0.45943,0.41995,0.625,0.73529,58.866,15.44
15.184,0.56109,0.5044,0.4101,0.625,0.74118,58.475,15.078
15.192,0.55621,0.55034,0.40517,0.61914,0.74118,58.279,14.767
15.2,0.5523,0.59238,0.40025,0.61914,0.7451,58.279,14.663
15.208,0.54741,0.6305,0.40025,0.61914,0.7451,58.475,14.56
15.216,0.5435,0.66178,0.40517,0.61914,0.7451,58.67,14.715
15.224,0.53861,0.68817,0.42488,0.625,0.73529,58.866,14.819
15.232,0.53372,0.70772,0.47537,0.60938,0.6902,59.257,15.026
15.24,0.52884,0.72239,0.61453,0.55469,0.57059,59.452,15.13
15.248,0.52395,0.73216,0.85468,0.45508,0.37451,59.648,15.337
15.256,0.51906,0.73803,1.0653,0.2793,0.18431,59.844,15.492
15.264,0.5132,0.73998,1.0702,0.15039,0.16471,59.844,15.803
15.272,0.50831,0.73803,0.68473,0.20508,0.44902,59.648,16.218
15.28,0.50342,0.73412,0.43966,0.39062,0.67059,59.452,16.58
15.288,0.49853,0.72923,0.36453,0.55078,0.76078,59.257,16.839
15.296,0.49267,0.72239,0.35468,0.64062,0.77647,58.866,16.995
15.304,0.48778,0.71359,0.36453,0.66992,0.78039,58.475,17.15
15.312,0.48289,0.70283,0.36946,0.67969,0.78039,58.279,17.202
15.32,0.47801,0.6911,0.37562,0.68555,0.77647,57.888,17.254
15.328,0.47312,0.67742,0.38547,0.68945,0.77059,57.301,17.254
15.336,0.46921,0.66178,0.39039,0.68945,0.76667,56.91,16.995
15.344,0.46432,0.64418,0.39532,0.68945,0.76078,56.519,16.632
15.352,0.45943,0.62561,0.40025,0.68555,0.7549,56.128,16.114
15.36,0.45455,0.60508,0.4101,0.68555,0.75098,55.541,15.648
15.368,0.44868,0.58553,0.41995,0.68945,0.7451,55.15,15.13
15.376,0.44282,0.56696,0.4298,0.68945,0.73529,54.759,14.767
15.384,0.43793,0.54643,0.43966,0.68945,0.73137,54.172,14.456
15.392,0.43304,0.52493,0.44951,0.68945,0.72157,53.781,14.301
15.4,0.42815,0.5044,0.47044,0.69531,0.7098,53.39,14.301
15.408,0.42326,0.48485,0.48522,0.69922,0.69608,52.803,14.508
15.416,0.4174,0.46725,0.50985,0.69922,0.67647,52.412,14.819
15.424,0.41153,0.45064,0.53941,0.70508,0.66078,51.825,15.13
15.432,0.40469,0.43695,0.5702,0.70508,0.63529,51.239,15.44
15.44,0.39883,0.42522,0.59975,0.69922,0.61569,50.847,15.699
15.448,0.39198,0.41642,0.61946,0.69531,0.59608,50.261,15.751
15.456,0.38514,0.40762,0.63054,0.68555,0.58431,50.065,15.44
15.464,0.37928,0.40176,0.63547,0.67969,0.58431,50.652,14.819
15.472,0.37341,0.39687,0.61453,0.66992,0.59608,53.194,13.99
15.48,0.36852,0.39394,0.5899,0.66992,0.61569,58.67,13.161
15.488,0.36266,0.39003,0.56034,0.66406,0.63529,67.471,12.435
15.496,0.35777,0.3871,0.52956,0.66016,0.66078,77.836,12.021
15.504,0.35386,0.38416,0.5,0.6543,0.68039,88.201,11.865
15.512,0.34897,0.38123,0.47044,0.65039,0.7,97.588,12.073
15.52,0.34506,0.37732,0.44951,0.64453,0.71569,106.19,12.383
15.528,0.34115,0.37439,0.43966,0.64062,0.73137,113.62,12.694
15.536,0.33724,0.37048,0.4298,0.63477,0.73529,119.1,12.902
15.544,0.33333,0.36559,0.41995,0.62891,0.74118,122.03,12.85
15.552,0.3304,0.36168,0.41995,0.625,0.74118,122.62,12.591
15.56,0.32649,0.35679,0.41995,0.625,0.73529,121.84,12.28
15.568,0.32356,0.35288,0.4298,0.625,0.73137,120.27,11.969
15.576,0.32063,0.34897,0.4298,0.625,0.73137,118.12,11.71
15.584,0.31769,0.34506,0.43473,0.625,0.72549,115.78,11.503
15.592,0.31378,0.3392,0.43966,0.625,0.72157,113.04,11.451
15.6,0.31085,0.33431,0.43966,0.62891,0.72157,110.3,11.399
15.608,0.30694,0.32845,0.44458,0.63477,0.72157,107.17,11.399
15.616,0.30303,0.32356,0.44951,0.63477,0.71569,104.24,11.503
15.624,0.29814,0.31769,0.44951,0.63477,0.71569,101.3,11.658
15.632,0.29326,0.31281,0.44951,0.63477,0.71569,98.566,11.813
15.64,0.28935,0.30694,0.44951,0.63477,0.72157,96.024,12.021
15.648,0.28543,0.30205,0.44951,0.63477,0.72157,93.286,12.176
15.656,0.28152,0.29717,0.44951,0.63477,0.72157,90.743,12.383
15.664,0.27761,0.29326,0.44951,0.64062,0.71569,88.005,12.487
15.672,0.27273,0.28935,0.46059,0.64453,0.70588,85.267,12.642
15.68,0.26882,0.28543,0.4803,0.6543,0.69608,82.334,12.746
15.688,0.26491,0.27957,0.49507,0.66406,0.68627,79.4,12.953
15.696,0.26002,0.2737,0.50493,0.66992,0.67647,76.467,13.057
15.704,0.25611,0.26784,0.53448,0.67969,0.6549,73.533,13.212
15.712,0.25318,0.26491,0.55049,0.66016,0.65098,70.795,13.523
15.72,0.24927,0.26686,0.55049,0.64062,0.65098,68.449,13.834
15.728,0.24633,0.27468,0.53941,0.61914,0.65098,66.493,14.197
15.736,0.24242,0.29228,0.52463,0.61523,0.6549,64.733,14.56
15.744,0.23851,0.31867,0.50493,0.61523,0.67059,63.168,14.767
15.752,0.23558,0.35484,0.47537,0.61523,0.69608,61.799,14.767
15.76,0.23167,0.39785,0.43966,0.61914,0.72157,60.821,14.56
15.768,0.22776,0.43988,0.41995,0.625,0.73529,60.039,14.249
15.776,0.22385,0.47996,0.4101,0.61914,0.7451,59.452,13.938
15.784,0.21994,0.52493,0.40517,0.61914,0.75098,59.257,13.627
15.792,0.21603,0.56989,0.40517,0.61914,0.75098,59.061,13.368
15.8,0.21408,0.61095,0.40025,0.61914,0.75098,59.061,13.212
15.808,0.21114,0.64614,0.40025,0.61523,0.75098,59.257,13.212
15.816,0.20919,0.67546,0.40517,0.61914,0.75098,59.452,13.316
15.824,0.20723,0.69892,0.41502,0.625,0.73529,59.648,13.523
15.832,0.20626,0.71652,0.47044,0.59961,0.68627,59.844,13.886
15.84,0.2043,0.72923,0.60961,0.54492,0.56078,59.844,14.301
15.848,0.2043,0.73705,0.84975,0.42969,0.3549,60.039,14.974
15.856,0.20332,0.74194,1.0345,0.25977,0.18431,60.235,15.596
15.864,0.20332,0.74194,0.92488,0.15625,0.17843,60.235,16.218
15.872,0.20332,0.73998,0.61946,0.23047,0.49412,60.039,16.684
15.88,0.2043,0.73607,0.41502,0.41602,0.7,60.039,16.943
15.888,0.20528,0.73021,0.35961,0.57031,0.77059,59.844,17.098
15.896,0.20626,0.72336,0.36453,0.64453,0.78039,59.452,16.995
15.904,0.20821,0.71457,0.36946,0.66992,0.78039,59.257,16.891
15.912,0.21017,0.70381,0.37562,0.67969,0.77647,58.866,16.58
15.92,0.21114,0.6911,0.38054,0.68945,0.77647,58.279,16.114
15.928,0.2131,0.67742,0.39039,0.68945,0.76667,57.888,15.751
15.936,0.21505,0.66178,0.39532,0.68945,0.76667,57.497,15.44
15.944,0.21799,0.64418,0.40025,0.68555,0.76078,56.91,15.285
15.952,0.21994,0.62561,0.41502,0.68555,0.7549,56.519,15.13
15.96,0.2219,0.60508,0.41995,0.68555,0.7451,55.932,15.026
15.968,0.22385,0.58553,0.4298,0.68555,0.74118,55.346,14.819
15.976,0.22678,0.56696,0.43473,0.68945,0.73529,54.954,14.56
15.984,0.22874,0.54643,0.44458,0.68945,0.73137,54.368,14.301
15.992,0.23069,0.52493,0.45443,0.68945,0.72157,53.977,14.197
16,0.23265,0.5044,0.47537,0.69531,0.7098,53.585,14.145
16.008,0.23363,0.48387,0.49507,0.69922,0.6902,52.999,14.301
16.016,0.2346,0.4653,0.5197,0.69922,0.67647,52.412,14.715
16.024,0.23558,0.4477,0.55049,0.70508,0.6549,52.021,15.078
16.032,0.23754,0.43304,0.58005,0.70508,0.62941,51.434,15.492
16.04,0.23851,0.42033,0.60468,0.69922,0.60588,50.847,15.751
16.048,0.23949,0.40958,0.62438,0.68945,0.5902,50.456,15.699
16.056,0.24047,0.40078,0.63547,0.68555,0.58431,50.261,15.181
16.064,0.24145,0.39394,0.63547,0.67969,0.58431,51.043,14.301
16.072,0.2434,0.38807,0.61946,0.67578,0.5902,53.781,13.212
16.08,0.24438,0.38123,0.59483,0.66992,0.60588,59.452,12.176
16.088,0.24536,0.37537,0.56527,0.66406,0.62941,67.862,11.399
16.096,0.24633,0.37146,0.53448,0.66016,0.65098,78.031,11.036
16.104,0.24731,0.36755,0.5,0.66016,0.68039,88.005,11.088
16.112,0.24829,0.36364,0.47537,0.6543,0.7,97.197,11.451
16.12,0.24927,0.3607,0.45443,0.65039,0.71569,105.61,12.021
16.128,0.25122,0.35679,0.43966,0.64453,0.72157,112.84,12.487
16.136,0.2522,0.35386,0.43473,0.64062,0.72549,118.12,12.85
16.144,0.25318,0.34995,0.43473,0.64062,0.73137,121.06,12.85
16.152,0.25415,0.34506,0.43473,0.63477,0.73137,121.64,12.487
16.16,0.25415,0.34115,0.43473,0.63477,0.72549,120.86,12.073
16.168,0.25415,0.33724,0.43966,0.62891,0.72157,119.3,11.658
16.176,0.25415,0.33431,0.44458,0.62891,0.72157,117.34,11.347
16.184,0.25415,0.3304,0.44458,0.62891,0.72157,114.99,11.244
16.192,0.25415,0.32551,0.44951,0.62891,0.71569,112.45,11.244
16.2,0.25415,0.32063,0.44951,0.62891,0.72157,109.71,11.451
16.208,0.25415,0.31574,0.45443,0.62891,0.71569,106.98,11.71
16.216,0.25318,0.31085,0.45443,0.63477,0.71569,104.04,11.969
16.224,0.2522,0.30499,0.45443,0.63477,0.71569,101.11,12.176
16.232,0.25122,0.3001,0.45443,0.63477,0.71569,98.175,12.435
16.24,0.25024,0.29423,0.45443,0.63477,0.71569,95.632,12.591
