Time [s], RESP, PLETH, II, V, AVR
0,0.50635,0.68719,0.48047,0.51562,0.60588
0.008,0.5132,0.68328,0.48438,0.51562,0.59608
0.016,0.51906,0.68035,0.48047,0.51562,0.6
0.024,0.52493,0.67742,0.42969,0.55469,0.60588
0.032,0.53079,0.67351,0.56445,0.50977,0.51961
0.04,0.53666,0.66764,1.0391,0.33594,0.26863
0.048,0.54252,0.65982,1.5,0.070312,-0.0058823
0.056,0.54839,0.65103,1.5,-0.044922,-0.10196
0.064,0.55523,0.64223,1.2285,0.22461,0.2549
0.072,0.56207,0.63343,0.4707,0.49414,0.6098
0.08,0.56891,0.62463,0.25977,0.5957,0.68039
0.088,0.57576,0.61584,0.32031,0.60547,0.64118
0.096,0.5826,0.60899,0.38086,0.56055,0.6098
0.104,0.58944,0.60215,0.4043,0.55078,0.61961
0.112,0.59726,0.59726,0.41602,0.53906,0.6098
0.12,0.60508,0.59335,0.41016,0.53906,0.61569
0.128,0.6129,0.58944,0.41602,0.53906,0.6098
0.136,0.6217,0.58553,0.42969,0.53906,0.60588
0.144,0.6305,0.58358,0.43555,0.5293,0.59608
0.152,0.64027,0.58162,0.43555,0.53516,0.60588
0.16,0.65103,0.58065,0.44531,0.52539,0.5902
0.168,0.6608,0.57967,0.44531,0.5293,0.59608
0.176,0.67155,0.57967,0.45508,0.51953,0.58431
0.184,0.68133,0.57771,0.46094,0.51562,0.58431
0.192,0.6911,0.57576,0.48047,0.50586,0.57059
0.2,0.69892,0.57283,0.48047,0.5,0.56471
0.208,0.70772,0.56794,0.49023,0.49023,0.5549
0.216,0.71652,0.56305,0.51562,0.49023,0.55098
0.224,0.72532,0.55621,0.5293,0.47461,0.53529
0.232,0.73412,0.54936,0.54492,0.46484,0.53529
0.24,0.74291,0.54154,0.56055,0.45508,0.51961
0.248,0.75171,0.53275,0.57422,0.44922,0.5098
0.256,0.75953,0.52493,0.5957,0.44531,0.50588
0.264,0.76637,0.51711,0.59961,0.44531,0.5
0.272,0.77419,0.51124,0.60547,0.44922,0.50588
0.28,0.78104,0.50342,0.60547,0.44531,0.5
0.288,0.78886,0.49658,0.5957,0.44922,0.5098
0.296,0.79668,0.48974,0.58398,0.45508,0.5098
0.304,0.8045,0.48192,0.57422,0.46484,0.52549
0.312,0.81134,0.47507,0.55469,0.4707,0.52941
0.32,0.81916,0.46823,0.53516,0.48047,0.55098
0.328,0.826,0.46237,0.52539,0.48438,0.55098
0.336,0.83284,0.45552,0.51953,0.49023,0.5549
0.344,0.83773,0.44868,0.50977,0.49023,0.5549
0.352,0.8436,0.44184,0.50586,0.49023,0.56471
0.36,0.84653,0.43597,0.50586,0.48438,0.57059
0.368,0.85044,0.43109,0.50977,0.49023,0.56078
0.376,0.85337,0.42717,0.51562,0.49023,0.5549
0.384,0.85533,0.42326,0.51562,0.49023,0.56078
0.392,0.85728,0.41838,0.51953,0.48047,0.5549
0.4,0.85826,0.41349,0.51953,0.48438,0.5549
0.408,0.85924,0.4086,0.52539,0.48438,0.55098
0.416,0.85924,0.40371,0.52539,0.48438,0.55098
0.424,0.85924,0.39883,0.5293,0.48047,0.5451
0.432,0.85826,0.39492,0.54492,0.47461,0.53922
0.44,0.85728,0.39003,0.54492,0.47461,0.5451
0.448,0.85533,0.38612,0.55078,0.4707,0.53529
0.456,0.85435,0.38123,0.54492,0.4707,0.5451
0.464,0.85239,0.37732,0.55078,0.4707,0.53529
0.472,0.85044,0.37341,0.54492,0.4707,0.5451
0.48,0.84848,0.36852,0.54492,0.4707,0.53529
0.488,0.84751,0.36266,0.55078,0.47461,0.53922
0.496,0.84555,0.35679,0.54492,0.4707,0.53529
0.504,0.84555,0.34897,0.53906,0.4707,0.53922
0.512,0.84555,0.34311,0.54492,0.47461,0.53529
0.52,0.84555,0.34018,0.5293,0.47461,0.5549
0.528,0.84653,0.34311,0.5293,0.4707,0.5451
0.536,0.84848,0.35386,0.52539,0.47461,0.5549
0.544,0.85044,0.37732,0.52539,0.48047,0.55098
0.552,0.85337,0.41153,0.51562,0.47461,0.5549
0.56,0.8563,0.45748,0.51953,0.48047,0.5549
0.568,0.85924,0.5044,0.51953,0.48047,0.56078
0.576,0.86217,0.55132,0.52539,0.47461,0.55098
0.584,0.86608,0.60704,0.5293,0.47461,0.53529
0.592,0.86901,0.66471,0.56445,0.46484,0.51569
0.6,0.87488,0.7175,0.58008,0.46094,0.5098
0.608,0.88074,0.76344,0.58984,0.45508,0.5
0.616,0.88759,0.80059,0.625,0.43945,0.48039
0.624,0.89541,0.82796,0.66992,0.41992,0.46078
0.632,0.90225,0.84555,0.64453,0.43555,0.47451
0.64,0.90909,0.85435,0.58398,0.44922,0.50588
0.648,0.91593,0.85533,0.53516,0.46484,0.53922
0.656,0.92278,0.84946,0.49414,0.48047,0.57059
0.664,0.92864,0.83969,0.49023,0.48047,0.56471
0.672,0.93353,0.82796,0.49023,0.48438,0.57059
0.68,0.93842,0.81329,0.48438,0.48047,0.57059
0.688,0.94233,0.79668,0.48438,0.48438,0.57451
0.696,0.94624,0.78104,0.49414,0.48438,0.56078
0.704,0.95015,0.76637,0.44531,0.50977,0.58039
0.712,0.95308,0.75269,0.43945,0.51953,0.52941
0.72,0.95601,0.74291,0.89453,0.35938,0.31373
0.728,0.95797,0.73412,1.5,0.095703,0.0078431
0.736,0.95992,0.72825,1.5,-0.09375,-0.16275
0.744,0.9609,0.72239,1.5,0.085938,0.078431
0.752,0.96285,0.71652,0.61914,0.41016,0.51961
0.76,0.96383,0.71065,0.28516,0.54492,0.6451
0.768,0.96579,0.70381,0.26953,0.56055,0.61961
0.776,0.96774,0.69697,0.375,0.5293,0.58039
0.784,0.9697,0.68915,0.40039,0.51562,0.5902
0.792,0.97263,0.67937,0.41016,0.50977,0.58431
0.8,0.97458,0.6696,0.41602,0.50977,0.58039
0.808,0.97752,0.65982,0.42969,0.5,0.58039
0.816,0.98045,0.64907,0.42969,0.5,0.57451
0.824,0.98338,0.6393,0.43555,0.49023,0.58039
0.832,0.98631,0.62952,0.43945,0.49023,0.57059
0.84,0.98925,0.6217,0.43555,0.48438,0.58039
0.848,0.99218,0.61486,0.44922,0.48047,0.56471
0.856,0.99609,0.60997,0.45508,0.48438,0.56078
0.864,0.99902,0.60704,0.46484,0.4707,0.5549
0.872,1,0.60411,0.47461,0.46484,0.55098
0.88,1,0.60313,0.48438,0.46484,0.53922
0.888,1,0.60117,0.49414,0.45508,0.53529
0.896,1,0.6002,0.50586,0.44531,0.52941
0.904,1,0.59824,0.52539,0.43945,0.51569
0.912,1,0.59629,0.55078,0.42578,0.5
0.92,1,0.59335,0.57031,0.41992,0.49412
0.928,1,0.58944,0.58398,0.41016,0.48039
0.936,1,0.58358,0.5957,0.4043,0.48431
0.944,1,0.57771,0.60547,0.4043,0.47451
0.952,1,0.57087,0.60938,0.4043,0.48431
0.96,1,0.56207,0.60547,0.40039,0.47451
0.968,1,0.55425,0.59961,0.4043,0.47451
0.976,1,0.54643,0.5957,0.41016,0.47059
0.984,1,0.53666,0.58398,0.41992,0.48431
0.992,1,0.52688,0.57422,0.41992,0.4902
1,1,0.51711,0.55078,0.42969,0.48431
1.008,1,0.50831,0.53906,0.43555,0.50588
1.016,1,0.49951,0.5293,0.42969,0.5
1.024,1,0.49071,0.51953,0.42969,0.5098
1.032,1,0.48289,0.51562,0.42578,0.5
1.04,1,0.47507,0.51562,0.43555,0.5098
1.048,1,0.46823,0.51953,0.43555,0.5
1.056,1,0.46237,0.51562,0.42969,0.5098
1.064,1,0.4565,0.51953,0.42578,0.5
1.072,1,0.45161,0.52539,0.41992,0.49412
1.08,1,0.44575,0.52539,0.41992,0.48431
1.088,1,0.43891,0.5293,0.41992,0.4902
1.096,0.99316,0.43304,0.53516,0.41992,0.48431
1.104,0.98631,0.42815,0.53906,0.41992,0.48431
1.112,0.97165,0.42326,0.54492,0.41992,0.48039
1.12,0.95699,0.4174,0.55078,0.41992,0.48431
1.128,0.94037,0.41251,0.55078,0.41602,0.47451
1.136,0.92473,0.40762,0.55078,0.41992,0.48039
1.144,0.90909,0.40274,0.55078,0.41016,0.47059
1.152,0.89443,0.39589,0.55078,0.4043,0.48039
1.16,0.87977,0.39003,0.55078,0.41016,0.47451
1.168,0.8651,0.38514,0.55078,0.41016,0.48039
1.176,0.84946,0.38025,0.55078,0.4043,0.47059
1.184,0.8348,0.37341,0.55078,0.41016,0.48039
1.192,0.81916,0.36755,0.54492,0.4043,0.47451
1.2,0.80352,0.36266,0.53516,0.41016,0.48431
1.208,0.78983,0.36461,0.5293,0.41602,0.48431
1.216,0.77615,0.37341,0.52539,0.41602,0.48431
1.224,0.76442,0.39198,0.5293,0.41016,0.4902
1.232,0.75269,0.42131,0.5293,0.41016,0.48431
1.24,0.74096,0.46334,0.5293,0.41016,0.48431
1.248,0.73021,0.51222,0.53906,0.41016,0.47451
1.256,0.72043,0.56794,0.58398,0.40039,0.44902
1.264,0.70968,0.61779,0.61523,0.40039,0.42941
1.272,0.70088,0.66178,0.60547,0.38477,0.42941
1.28,0.6911,0.70772,0.62891,0.36523,0.41569
1.288,0.68328,0.74976,0.66992,0.34961,0.40392
1.296,0.67449,0.78299,0.68555,0.34961,0.3902
1.304,0.66764,0.80841,0.62891,0.37109,0.41961
1.312,0.6608,0.82405,0.58008,0.38477,0.4451
1.32,0.65396,0.83284,0.51953,0.4043,0.48039
1.328,0.64809,0.83284,0.5,0.41602,0.48431
1.336,0.64223,0.82698,0.49414,0.41602,0.5
1.344,0.63539,0.8172,0.48438,0.41602,0.5
1.352,0.62952,0.80352,0.48438,0.41992,0.50588
1.36,0.62366,0.78886,0.49023,0.41992,0.4902
1.368,0.61779,0.77517,0.48047,0.42578,0.5
1.376,0.61193,0.76246,0.43945,0.45508,0.50588
1.384,0.60606,0.75073,0.57422,0.41992,0.42549
1.392,0.6002,0.73998,1.0391,0.23438,0.16863
1.4,0.59335,0.73118,1.5,-0.025391,-0.082353
1.408,0.58749,0.72532,1.5,-0.12891,-0.17255
1.416,0.58065,0.72043,1.1289,0.16016,0.2098
1.424,0.5738,0.7175,0.41602,0.41992,0.53529
1.432,0.56598,0.71359,0.26562,0.50586,0.58039
1.44,0.55816,0.70968,0.3457,0.49023,0.52549
1.448,0.55034,0.70381,0.39062,0.46484,0.5098
1.456,0.54252,0.69599,0.41016,0.45508,0.52549
1.464,0.5347,0.68817,0.41602,0.44922,0.51961
1.472,0.52688,0.6784,0.41602,0.44922,0.52941
1.48,0.52004,0.66764,0.42578,0.44531,0.51961
1.488,0.51222,0.65591,0.42969,0.44531,0.52549
1.496,0.50538,0.64321,0.43555,0.44531,0.51569
1.504,0.49756,0.63148,0.43945,0.44531,0.51961
1.512,0.49071,0.6217,0.45508,0.43945,0.5098
1.52,0.48387,0.61193,0.45508,0.43945,0.5098
1.528,0.47801,0.60411,0.46484,0.42969,0.50588
1.536,0.47214,0.59726,0.46484,0.42578,0.50588
1.544,0.46725,0.5914,0.48047,0.41992,0.4902
1.552,0.46237,0.58651,0.49023,0.41992,0.49412
1.56,0.45748,0.565,0.5,0.41602,0.48039
1.568,0.45357,0.53666,0.51953,0.41602,0.48039
1.576,0.44868,0.52199,0.53516,0.4043,0.46471
1.584,0.44379,0.5132,0.55078,0.4043,0.46078
1.592,0.43988,0.50733,0.57422,0.39062,0.44902
1.6,0.43597,0.50342,0.58984,0.39453,0.44902
1.608,0.43304,0.49951,0.59961,0.38477,0.43922
1.616,0.43011,0.4956,0.60938,0.39062,0.43922
1.624,0.42717,0.49169,0.61523,0.39062,0.43922
1.632,0.42424,0.48583,0.60938,0.39453,0.43922
1.64,0.42131,0.47996,0.60547,0.39453,0.4451
1.648,0.41838,0.47312,0.5957,0.4043,0.4549
1.656,0.41447,0.46432,0.58008,0.41016,0.46078
1.664,0.41153,0.45748,0.56055,0.41602,0.47059
1.672,0.40762,0.45064,0.54492,0.42969,0.48431
1.68,0.40371,0.44282,0.52539,0.43555,0.4902
1.688,0.3998,0.435,0.51562,0.44531,0.5
1.696,0.39589,0.42815,0.50586,0.44531,0.49412
1.704,0.39101,0.42131,0.50586,0.44922,0.50588
1.712,0.38612,0.41447,0.5,0.44531,0.50588
1.72,0.3783,0.4086,0.5,0.44922,0.5098
1.728,0.37146,0.40176,0.50586,0.44531,0.50588
1.736,0.36168,0.39492,0.50977,0.44531,0.5098
1.744,0.35191,0.38905,0.51562,0.44531,0.5
1.752,0.34018,0.38319,0.51562,0.44531,0.5098
1.76,0.32845,0.3783,0.51953,0.43945,0.5
1.768,0.31574,0.37341,0.52539,0.44531,0.5
1.776,0.30303,0.36852,0.53516,0.43555,0.4902
1.784,0.2913,0.36559,0.53516,0.43555,0.49412
1.792,0.27859,0.36168,0.53906,0.42969,0.4902
1.8,0.26784,0.35679,0.53906,0.42969,0.49412
1.808,0.25611,0.35288,0.55078,0.43555,0.48431
1.816,0.24536,0.34897,0.54492,0.43555,0.4902
1.824,0.23363,0.34409,0.53906,0.42969,0.49412
1.832,0.22287,0.3392,0.53906,0.43945,0.5
1.84,0.21212,0.33333,0.53516,0.44531,0.50588
1.848,0.20332,0.32649,0.5293,0.43945,0.49412
1.856,0.19453,0.32063,0.52539,0.43555,0.50588
1.864,0.18671,0.31769,0.51953,0.43555,0.5
1.872,0.17889,0.31769,0.51953,0.43945,0.5098
1.88,0.17204,0.3216,0.51953,0.43555,0.5098
1.888,0.1652,0.33236,0.51562,0.44531,0.51569
1.896,0.16031,0.35191,0.51953,0.43945,0.5098
1.904,0.15445,0.38123,0.51562,0.44531,0.51569
1.912,0.15054,0.41838,0.50977,0.43555,0.5098
1.92,0.14663,0.46139,0.50977,0.44531,0.51569
1.928,0.14467,0.50635,0.51562,0.43945,0.5098
1.936,0.14272,0.55132,0.52539,0.44531,0.50588
1.944,0.14174,0.59238,0.57031,0.42969,0.48039
1.952,0.14076,0.62757,0.5957,0.43555,0.46078
1.96,0.14076,0.65298,0.60547,0.41602,0.44902
1.968,0.14076,0.67058,0.61914,0.39453,0.4451
1.976,0.14174,0.68426,0.65039,0.38086,0.42941
1.984,0.14174,0.69306,0.66992,0.38477,0.41961
1.992,0.14272,0.69501,0.62891,0.4043,0.44902
2,0.1437,0.6911,0.57031,0.42969,0.4902
2.008,0.1437,0.68426,0.50977,0.44922,0.51961
2.016,0.14467,0.67449,0.48438,0.46484,0.53529
2.024,0.14467,0.66471,0.48047,0.46484,0.5451
2.032,0.14467,0.65396,0.47461,0.4707,0.53922
2.04,0.14467,0.64516,0.47461,0.46484,0.55098
2.048,0.14467,0.63636,0.4707,0.46484,0.53922
2.056,0.14467,0.62952,0.48047,0.46484,0.5451
2.064,0.14467,0.62366,0.42969,0.49023,0.53529
2.072,0.1437,0.61975,0.53516,0.49414,0.48039
2.08,0.14272,0.61681,0.92383,0.31445,0.26471
2.088,0.14174,0.61388,1.5,0.064453,-0.0019608
2.096,0.14076,0.61095,1.5,-0.083984,-0.12157
2.104,0.13978,0.60899,1.2598,0.14062,0.18431
2.112,0.13881,0.60606,0.4707,0.43555,0.5451
2.12,0.13783,0.60117,0.25,0.53516,0.61961
2.128,0.13685,0.59531,0.31445,0.52539,0.57059
2.136,0.13587,0.58651,0.38086,0.50586,0.55098
2.144,0.1349,0.57674,0.40039,0.48047,0.5451
2.152,0.13392,0.565,0.4043,0.48438,0.5549
2.16,0.13392,0.55523,0.41016,0.48047,0.5451
2.168,0.13294,0.54643,0.41992,0.47461,0.55098
2.176,0.13294,0.53666,0.42969,0.4707,0.5451
2.184,0.13392,0.52786,0.42969,0.4707,0.5451
2.192,0.13392,0.51906,0.43945,0.4707,0.53529
2.2,0.1349,0.51124,0.43945,0.4707,0.53529
2.208,0.13685,0.5044,0.45508,0.4707,0.52941
2.216,0.13783,0.49951,0.46094,0.46484,0.52549
2.224,0.13978,0.4956,0.47461,0.45508,0.51569
2.232,0.14272,0.49267,0.48047,0.44922,0.51569
2.24,0.14467,0.49071,0.49414,0.44531,0.50588
2.248,0.14761,0.48778,0.5,0.43555,0.5
2.256,0.15054,0.48583,0.51953,0.42578,0.48431
2.264,0.15249,0.48387,0.53516,0.41992,0.48039
2.272,0.15445,0.48192,0.55469,0.41602,0.47059
2.28,0.1564,0.47898,0.57422,0.4043,0.46471
2.288,0.15934,0.47507,0.58984,0.39453,0.46078
2.296,0.16129,0.47116,0.5957,0.39453,0.44902
2.304,0.16325,0.4653,0.60547,0.39062,0.4549
2.312,0.16422,0.45846,0.61523,0.39453,0.44902
2.32,0.16618,0.45064,0.61523,0.40039,0.44902
2.328,0.16813,0.44282,0.60547,0.40039,0.4451
2.336,0.16911,0.435,0.5957,0.41016,0.46078
2.344,0.17107,0.42815,0.58398,0.41016,0.46078
2.352,0.17204,0.42033,0.57031,0.41992,0.47451
2.36,0.17204,0.41544,0.55469,0.42578,0.47451
2.368,0.17302,0.41056,0.53906,0.43555,0.4902
2.376,0.17204,0.40469,0.52539,0.43555,0.49412
2.384,0.17107,0.39785,0.51562,0.43945,0.5098
2.392,0.16911,0.39101,0.50977,0.43945,0.5098
2.4,0.16716,0.38514,0.50977,0.44531,0.5098
2.408,0.16325,0.3783,0.51562,0.43945,0.50588
2.416,0.15934,0.37341,0.51953,0.44531,0.5
2.424,0.1564,0.36852,0.51953,0.44531,0.50588
2.432,0.15249,0.36266,0.52539,0.43945,0.49412
2.44,0.14956,0.35777,0.52539,0.43555,0.5
2.448,0.14565,0.35386,0.52539,0.42969,0.4902
2.456,0.14076,0.34897,0.53516,0.43555,0.5
2.464,0.13587,0.34604,0.54492,0.42969,0.48431
2.472,0.13001,0.34311,0.53906,0.42578,0.4902
2.48,0.12512,0.34018,0.55078,0.41992,0.48431
2.488,0.11926,0.33529,0.54492,0.42578,0.4902
2.496,0.11437,0.33138,0.55078,0.41992,0.48431
2.504,0.11046,0.32649,0.55078,0.41992,0.48431
2.512,0.10557,0.3216,0.55078,0.42578,0.48431
2.52,0.10166,0.31769,0.54492,0.43555,0.48431
2.528,0.097752,0.31183,0.54492,0.43555,0.48431
2.536,0.094819,0.30596,0.53906,0.43555,0.49412
2.544,0.091887,0.30108,0.5293,0.43555,0.4902
2.552,0.089932,0.29619,0.5293,0.43945,0.5
2.56,0.088954,0.29521,0.52539,0.43945,0.5
2.568,0.088954,0.29814,0.51953,0.43945,0.5098
2.576,0.088954,0.30792,0.52539,0.43945,0.49412
2.584,0.089932,0.32649,0.52539,0.44531,0.5
2.592,0.091887,0.35386,0.52539,0.43945,0.5
2.6,0.093842,0.39101,0.52539,0.43945,0.50588
2.608,0.095797,0.43402,0.51953,0.43945,0.5
2.616,0.099707,0.48094,0.51953,0.44531,0.50588
2.624,0.10362,0.52786,0.51953,0.43555,0.5
2.632,0.1085,0.57283,0.51562,0.43555,0.50588
2.64,0.11339,0.61193,0.51953,0.43945,0.4902
2.648,0.1173,0.64516,0.51953,0.42969,0.48431
2.656,0.12219,0.6696,0.52539,0.42969,0.49412
2.664,0.12708,0.68524,0.55078,0.42969,0.48039
2.672,0.13196,0.69306,0.58984,0.42578,0.4549
2.68,0.13587,0.69599,0.60547,0.41992,0.43922
2.688,0.14076,0.69501,0.59961,0.39062,0.4451
2.696,0.14467,0.68915,0.62891,0.38086,0.42549
2.704,0.14858,0.68133,0.66992,0.375,0.40392
2.712,0.15152,0.67155,0.67578,0.375,0.4
2.72,0.15445,0.6608,0.60547,0.39453,0.43922
2.728,0.1564,0.65005,0.54492,0.41602,0.47059
2.736,0.15836,0.64125,0.5,0.43555,0.50588
2.744,0.16031,0.63343,0.49414,0.43555,0.50588
2.752,0.16227,0.62659,0.48438,0.43555,0.5098
2.76,0.16422,0.6217,0.48438,0.43555,0.50588
2.768,0.1652,0.61779,0.49023,0.43555,0.5
2.776,0.16618,0.6129,0.49023,0.42969,0.4902
2.784,0.16618,0.60997,0.44922,0.45508,0.50588
2.792,0.16618,0.60606,0.43555,0.4707,0.46078
2.8,0.16618,0.60215,0.79492,0.34961,0.2902
2.808,0.1652,0.59922,1.3945,0.10547,0.0039216
2.816,0.1652,0.59335,1.5,-0.099609,-0.16275
2.824,0.16618,0.58651,1.5,-0.10352,-0.011765
2.832,0.16618,0.57771,0.64062,0.3457,0.42549
2.84,0.16618,0.56891,0.2793,0.49414,0.56078
2.848,0.16716,0.55914,0.26562,0.51562,0.52549
2.856,0.16813,0.54936,0.38086,0.47461,0.48431
2.864,0.16911,0.54057,0.4043,0.46094,0.49412
2.872,0.17009,0.53275,0.41016,0.45508,0.5
2.88,0.17107,0.5259,0.41992,0.44922,0.50588
2.888,0.17302,0.52004,0.42969,0.44922,0.50588
2.896,0.17498,0.51417,0.42969,0.44531,0.5
2.904,0.17693,0.51026,0.43945,0.44922,0.50588
2.912,0.17986,0.50733,0.44922,0.43945,0.48431
2.92,0.18182,0.50538,0.44922,0.44531,0.48431
2.928,0.18475,0.50244,0.46094,0.43945,0.48431
2.936,0.18671,0.50049,0.46484,0.43945,0.48431
2.944,0.18964,0.49853,0.47461,0.42969,0.47451
2.952,0.19257,0.49658,0.48047,0.42969,0.48039
2.96,0.19453,0.49462,0.49023,0.41992,0.47059
2.968,0.19746,0.48974,0.5,0.42578,0.46471
2.976,0.19941,0.48583,0.51562,0.41992,0.46078
2.984,0.20137,0.48192,0.52539,0.41602,0.46078
2.992,0.20332,0.47605,0.55078,0.39453,0.43922
3,0.2043,0.46823,0.57031,0.39453,0.43922
3.008,0.20626,0.46041,0.58008,0.39453,0.42941
3.016,0.20723,0.45455,0.58984,0.39453,0.43529
3.024,0.20919,0.4477,0.60547,0.38086,0.41569
3.032,0.21017,0.43793,0.60938,0.38477,0.41961
3.04,0.21114,0.42913,0.61523,0.38477,0.41569
3.048,0.21212,0.42326,0.60938,0.38477,0.42549
3.056,0.2131,0.4174,0.59961,0.39062,0.42941
3.064,0.2131,0.41056,0.58984,0.39453,0.42549
3.072,0.2131,0.40469,0.57422,0.4043,0.4451
3.08,0.2131,0.40078,0.55469,0.41602,0.4549
3.088,0.2131,0.39492,0.54492,0.41992,0.46471
3.096,0.2131,0.3871,0.5293,0.42578,0.47059
3.104,0.2131,0.38025,0.51953,0.42969,0.48431
3.112,0.2131,0.37537,0.51562,0.42969,0.48039
3.12,0.2131,0.37048,0.51562,0.43555,0.4902
3.128,0.2131,0.36461,0.51562,0.43555,0.48431
3.136,0.2131,0.35973,0.51562,0.43555,0.49412
3.144,0.21212,0.35582,0.51953,0.42969,0.48431
3.152,0.21114,0.35191,0.51953,0.43555,0.48431
3.16,0.21017,0.34897,0.51953,0.42578,0.48039
3.168,0.20919,0.34604,0.5293,0.43945,0.48431
3.176,0.20723,0.34409,0.53516,0.43555,0.48039
3.184,0.20528,0.34115,0.53516,0.43945,0.48431
3.192,0.20332,0.33529,0.53906,0.43555,0.48039
3.2,0.20137,0.32942,0.53516,0.43945,0.48431
3.208,0.19941,0.32551,0.54492,0.43555,0.47451
3.216,0.19844,0.3216,0.54492,0.43555,0.48039
3.224,0.19648,0.31672,0.55078,0.42969,0.47451
3.232,0.1955,0.31183,0.54492,0.43555,0.48431
3.24,0.1955,0.30792,0.54492,0.43945,0.48039
3.248,0.19453,0.30401,0.53906,0.43945,0.48431
3.256,0.1955,0.29814,0.53516,0.44531,0.48431
3.264,0.19648,0.29423,0.53906,0.43945,0.48431
3.272,0.19844,0.2913,0.52539,0.44531,0.4902
3.28,0.20039,0.29032,0.52539,0.44531,0.49412
3.288,0.20332,0.29619,0.52539,0.44531,0.50588
3.296,0.20626,0.30401,0.52539,0.43945,0.49412
3.304,0.21114,0.31476,0.52539,0.44531,0.50588
3.312,0.21505,0.33724,0.51562,0.44531,0.5
3.32,0.22092,0.38319,0.51562,0.44531,0.5098
3.328,0.22776,0.43109,0.50977,0.44531,0.5
3.336,0.2346,0.46921,0.51562,0.44531,0.5098
3.344,0.24242,0.51417,0.51953,0.44531,0.5
3.352,0.25122,0.565,0.53906,0.44922,0.49412
3.36,0.261,0.60606,0.58008,0.43945,0.46078
3.368,0.27077,0.63441,0.5957,0.43555,0.46078
3.376,0.28055,0.66276,0.59961,0.4043,0.4549
3.384,0.28935,0.68915,0.62891,0.40039,0.43922
3.392,0.29912,0.70772,0.67969,0.38477,0.4098
3.4,0.30694,0.7175,0.68555,0.39453,0.41961
3.408,0.31476,0.72141,0.61523,0.41602,0.44902
3.416,0.32356,0.7175,0.53906,0.43555,0.5
3.424,0.33236,0.71065,0.5,0.44531,0.5098
3.432,0.34018,0.70479,0.48047,0.46094,0.52549
3.44,0.34897,0.69501,0.47461,0.46094,0.53529
3.448,0.35582,0.68328,0.4707,0.4707,0.53529
3.456,0.36364,0.67155,0.47461,0.4707,0.53922
3.464,0.3695,0.66276,0.4707,0.4707,0.53529
3.472,0.37537,0.65689,0.46094,0.4707,0.53922
3.48,0.38025,0.65103,0.41016,0.51562,0.5451
3.488,0.38514,0.64516,0.61914,0.44922,0.42941
3.496,0.39003,0.64125,1.1152,0.25586,0.16863
3.504,0.39394,0.63832,1.5,0.0058594,-0.082353
3.512,0.39883,0.63441,1.5,-0.080078,-0.14706
3.52,0.40469,0.6305,1.0293,0.25977,0.29412
3.528,0.40958,0.62659,0.375,0.49414,0.58431
3.536,0.41544,0.62072,0.24609,0.56445,0.62549
3.544,0.42033,0.61193,0.32422,0.55078,0.57059
3.552,0.42522,0.60313,0.375,0.51953,0.56471
3.56,0.43109,0.59433,0.39453,0.50977,0.56078
3.568,0.43597,0.58553,0.4043,0.50586,0.56471
3.576,0.44184,0.57674,0.41016,0.49414,0.55098
3.584,0.44868,0.56794,0.41016,0.49023,0.56078
3.592,0.45455,0.56012,0.41992,0.49023,0.5549
3.6,0.46139,0.5523,0.42578,0.49023,0.5549
3.608,0.46725,0.54545,0.42969,0.49023,0.5549
3.616,0.4741,0.53959,0.42969,0.49023,0.5549
3.624,0.47996,0.53568,0.43945,0.48438,0.55098
3.632,0.48583,0.53177,0.44922,0.47461,0.5451
3.64,0.49267,0.52981,0.45508,0.4707,0.53529
3.648,0.50049,0.52786,0.46484,0.4707,0.52941
3.656,0.50831,0.5259,0.47461,0.45508,0.51961
3.664,0.51711,0.52395,0.49023,0.44922,0.51569
3.672,0.5259,0.52102,0.50586,0.44531,0.50588
3.68,0.53568,0.51711,0.52539,0.43555,0.5
3.688,0.54448,0.51222,0.53906,0.42578,0.48431
3.696,0.55425,0.50635,0.55469,0.41992,0.48431
3.704,0.56207,0.50049,0.57031,0.41992,0.48039
3.712,0.57087,0.49365,0.58984,0.41602,0.46471
3.72,0.57869,0.48583,0.5957,0.41992,0.47451
3.728,0.58651,0.47703,0.5957,0.41602,0.46471
3.736,0.59433,0.46921,0.5957,0.41602,0.46078
3.744,0.60215,0.46041,0.58398,0.41602,0.4549
3.752,0.60997,0.45357,0.58008,0.41992,0.47451
3.76,0.61779,0.44575,0.57422,0.41992,0.47059
3.768,0.62463,0.43695,0.56055,0.43555,0.48431
3.776,0.6305,0.42815,0.54492,0.43945,0.48431
3.784,0.63636,0.41935,0.52539,0.44531,0.50588
3.792,0.64223,0.41056,0.51562,0.44531,0.50588
3.8,0.64712,0.40274,0.50586,0.44922,0.51569
3.808,0.652,0.39492,0.50586,0.45508,0.5098
3.816,0.65689,0.38807,0.50586,0.44922,0.51961
3.824,0.66178,0.38123,0.50586,0.44922,0.52549
3.832,0.66471,0.37537,0.50586,0.44922,0.51569
3.84,0.66862,0.3695,0.50977,0.44531,0.5098
3.848,0.67058,0.36461,0.51953,0.44531,0.50588
3.856,0.67351,0.3607,0.52539,0.44531,0.5098
3.864,0.67449,0.35582,0.52539,0.44531,0.50588
3.872,0.67546,0.35191,0.5293,0.44531,0.5098
3.88,0.67546,0.34604,0.53516,0.44531,0.5
3.888,0.67546,0.34018,0.5293,0.43945,0.5098
3.896,0.67546,0.33529,0.5293,0.43945,0.50588
3.904,0.67546,0.32942,0.53906,0.44531,0.5098
3.912,0.67546,0.32356,0.54492,0.43945,0.5
3.92,0.67546,0.31867,0.55078,0.44531,0.5
3.928,0.67449,0.31183,0.55078,0.43945,0.5
3.936,0.67449,0.30499,0.55078,0.44531,0.50588
3.944,0.67351,0.29814,0.53516,0.44531,0.5
3.952,0.67351,0.29228,0.5293,0.44531,0.5098
3.96,0.67449,0.28837,0.53516,0.44531,0.5098
3.968,0.67546,0.28641,0.52539,0.44922,0.5098
3.976,0.6784,0.28837,0.51953,0.44531,0.5098
3.984,0.68035,0.29814,0.51562,0.44922,0.51961
3.992,0.68426,0.31769,0.50977,0.44922,0.51569
4,0.68817,0.348,0.51953,0.46094,0.51961
4.008,0.69306,0.39003,0.51562,0.45508,0.51569
4.016,0.69795,0.44086,0.51953,0.46094,0.51569
4.024,0.70381,0.49756,0.55469,0.44531,0.49412
4.032,0.7087,0.55718,0.57422,0.45508,0.48431
4.04,0.71457,0.61584,0.59961,0.44531,0.47451
4.048,0.72043,0.66471,0.64062,0.41016,0.46078
4.056,0.72727,0.70381,0.66992,0.39453,0.4451
4.064,0.73509,0.74194,0.68945,0.39453,0.43529
4.072,0.74291,0.77419,0.68945,0.39453,0.43529
4.08,0.75073,0.79961,0.65039,0.41016,0.4549
4.088,0.75758,0.81623,0.56055,0.44531,0.50588
4.096,0.76442,0.82502,0.50586,0.4707,0.52941
4.104,0.77126,0.82698,0.48438,0.47461,0.53922
4.112,0.77713,0.82307,0.46484,0.4707,0.55098
4.12,0.78299,0.81623,0.46094,0.48047,0.5549
4.128,0.78983,0.80645,0.45508,0.48047,0.5549
4.136,0.7957,0.7957,0.45508,0.47461,0.5549
4.144,0.80156,0.78397,0.44531,0.49023,0.55098
4.152,0.80743,0.77322,0.41016,0.51953,0.56471
4.16,0.81232,0.76246,0.68945,0.41992,0.4
4.168,0.81623,0.75367,1.2539,0.20117,0.12353
4.176,0.82014,0.74585,1.5,-0.048828,-0.12157
4.184,0.82307,0.739,1.5,-0.099609,-0.15686
4.192,0.826,0.73314,0.84375,0.31445,0.3902
4.2,0.82796,0.72923,0.30469,0.52539,0.63529
4.208,0.83089,0.72434,0.24023,0.56445,0.6451
4.216,0.83284,0.7175,0.32031,0.54492,0.59608
4.224,0.8348,0.70968,0.36523,0.51953,0.58039
4.232,0.83773,0.70088,0.38086,0.51562,0.5902
4.24,0.84066,0.69013,0.38477,0.50977,0.58431
4.248,0.84262,0.6784,0.39062,0.50586,0.58431
4.256,0.84457,0.66764,0.39453,0.50586,0.58039
4.264,0.84751,0.65591,0.40039,0.5,0.58039
4.272,0.84946,0.64418,0.41016,0.5,0.58039
4.28,0.85337,0.63343,0.41016,0.49023,0.58039
4.288,0.8563,0.62366,0.42578,0.49023,0.57059
4.296,0.86119,0.61681,0.42969,0.48438,0.56078
4.304,0.86608,0.61095,0.43555,0.49023,0.57059
4.312,0.87292,0.60606,0.44922,0.47461,0.5549
4.32,0.87879,0.60313,0.46094,0.4707,0.55098
4.328,0.88563,0.6002,0.47461,0.46484,0.53529
4.336,0.89345,0.59726,0.49023,0.45508,0.52941
4.344,0.89932,0.59433,0.50586,0.44531,0.51569
4.352,0.90616,0.59042,0.5293,0.44531,0.5098
4.36,0.91202,0.58749,0.55078,0.43945,0.5
4.368,0.91789,0.58358,0.56055,0.43555,0.50588
4.376,0.92473,0.57869,0.57422,0.43555,0.4902
4.384,0.9306,0.5738,0.58398,0.43555,0.49412
4.392,0.93744,0.56696,0.5957,0.42969,0.48431
4.4,0.94428,0.56012,0.5957,0.43555,0.4902
4.408,0.95015,0.55132,0.5957,0.42969,0.48431
4.416,0.95503,0.54154,0.58008,0.43945,0.4902
4.424,0.95992,0.53177,0.57422,0.43945,0.49412
4.432,0.96481,0.52102,0.55469,0.44531,0.5098
4.44,0.96872,0.51026,0.54492,0.45508,0.5098
4.448,0.97263,0.50049,0.52539,0.46484,0.52549
4.456,0.97654,0.49169,0.51562,0.4707,0.53529
4.464,0.98045,0.48289,0.50586,0.4707,0.53922
4.472,0.98338,0.47312,0.50586,0.47461,0.55098
4.48,0.98631,0.46237,0.5,0.4707,0.5451
4.488,0.98729,0.45259,0.5,0.4707,0.5549
4.496,0.98925,0.44282,0.50977,0.4707,0.5451
4.504,0.98925,0.43402,0.50977,0.46484,0.53529
4.512,0.98925,0.42522,0.51562,0.46094,0.53529
4.52,0.98729,0.4174,0.50977,0.46484,0.53922
4.528,0.98534,0.40958,0.51562,0.46094,0.53529
4.536,0.98045,0.40176,0.52539,0.46484,0.53922
4.544,0.97654,0.39492,0.5293,0.46094,0.53529
4.552,0.9697,0.38905,0.53516,0.46094,0.53922
4.56,0.96383,0.38416,0.53906,0.45508,0.53529
4.568,0.95699,0.3783,0.54492,0.45508,0.52941
4.576,0.95015,0.37243,0.54492,0.44922,0.51961
4.584,0.9433,0.36559,0.54492,0.45508,0.52941
4.592,0.93744,0.35973,0.53906,0.44922,0.52549
4.6,0.92864,0.35288,0.53906,0.44922,0.53529
4.608,0.92082,0.34506,0.54492,0.45508,0.52941
4.616,0.91105,0.33627,0.53906,0.45508,0.53529
4.624,0.90225,0.32747,0.5293,0.45508,0.53529
4.632,0.89247,0.32063,0.52539,0.46484,0.53922
4.64,0.8827,0.31769,0.52539,0.45508,0.53529
4.648,0.87195,0.32063,0.51953,0.46094,0.5451
4.656,0.86217,0.3304,0.51953,0.45508,0.53529
4.664,0.85435,0.35093,0.50977,0.45508,0.5451
4.672,0.84555,0.38514,0.50977,0.45508,0.53922
4.68,0.83773,0.43011,0.51953,0.46094,0.53529
4.688,0.82991,0.4868,0.55469,0.44922,0.51961
4.696,0.82209,0.55034,0.57422,0.44922,0.5098
4.704,0.81525,0.61779,0.59961,0.43945,0.4902
4.712,0.80743,0.68524,0.64062,0.4043,0.47451
4.72,0.79961,0.74878,0.66406,0.39453,0.46078
4.728,0.79277,0.80547,0.69922,0.39453,0.43922
4.736,0.78592,0.85337,0.68945,0.40039,0.44902
4.744,0.78006,0.8915,0.62891,0.41602,0.47451
4.752,0.77322,0.91691,0.53516,0.44531,0.52941
4.76,0.76735,0.93157,0.49414,0.46094,0.55098
4.768,0.76149,0.94037,0.47461,0.4707,0.57059
4.776,0.75562,0.94428,0.46094,0.47461,0.56471
4.784,0.74976,0.94233,0.45508,0.48047,0.57451
4.792,0.74291,0.93548,0.45508,0.47461,0.56471
4.8,0.73509,0.92571,0.46094,0.47461,0.57059
4.808,0.72727,0.91398,0.44531,0.48438,0.56471
4.816,0.72043,0.90323,0.41602,0.51562,0.57059
4.824,0.71359,0.89247,0.67969,0.42578,0.4098
4.832,0.70674,0.8827,1.2441,0.20117,0.13333
4.84,0.6999,0.87586,1.5,-0.035156,-0.092157
4.848,0.69306,0.86901,1.5,-0.089844,-0.13137
4.856,0.68524,0.86315,0.78906,0.32422,0.41569
4.864,0.6784,0.85924,0.29102,0.51953,0.63529
4.872,0.6696,0.85533,0.23438,0.55469,0.64118
4.88,0.6608,0.84946,0.33984,0.5293,0.57059
4.888,0.652,0.84262,0.375,0.50977,0.56471
4.896,0.64418,0.83382,0.38477,0.50586,0.57059
4.904,0.63636,0.82209,0.38477,0.5,0.57451
4.912,0.62854,0.80841,0.39062,0.49414,0.56471
4.92,0.62072,0.79374,0.4043,0.49023,0.57059
4.928,0.6129,0.7781,0.41016,0.49023,0.5549
4.936,0.60508,0.76344,0.41016,0.48438,0.56078
4.944,0.59726,0.74878,0.41992,0.48047,0.5549
4.952,0.58944,0.73705,0.42578,0.48438,0.56078
4.96,0.58162,0.72532,0.42969,0.47461,0.5549
4.968,0.5738,0.71457,0.43945,0.4707,0.55098
4.976,0.56696,0.70479,0.45508,0.46484,0.53529
4.984,0.56012,0.69599,0.45508,0.45508,0.53529
4.992,0.55327,0.68915,0.47461,0.44531,0.51569
5,0.54643,0.68231,0.49023,0.44531,0.51569
5.008,0.54057,0.67644,0.5,0.43555,0.5
5.016,0.53568,0.67058,0.52539,0.42969,0.49412
5.024,0.52981,0.66569,0.54492,0.41602,0.48039
5.032,0.52395,0.6608,0.56055,0.41016,0.48039
5.04,0.51808,0.65494,0.57422,0.40039,0.47059
5.048,0.5132,0.64907,0.58984,0.41016,0.46471
5.056,0.50831,0.64321,0.5957,0.4043,0.47059
5.064,0.50342,0.63441,0.5957,0.41016,0.46471
5.072,0.49951,0.62463,0.5957,0.4043,0.47451
5.08,0.49365,0.61388,0.58398,0.41016,0.47059
5.088,0.48876,0.60215,0.57422,0.41992,0.48431
5.096,0.48192,0.58944,0.56055,0.42969,0.4902
5.104,0.47605,0.57576,0.54492,0.43555,0.5
5.112,0.46823,0.56207,0.5293,0.43945,0.50588
5.12,0.46139,0.54839,0.51953,0.44531,0.51961
5.128,0.45259,0.5347,0.50977,0.44922,0.51961
5.136,0.44379,0.52199,0.5,0.44922,0.52941
5.144,0.435,0.50929,0.5,0.44922,0.52549
5.152,0.42717,0.49853,0.5,0.44922,0.53529
5.16,0.41838,0.48876,0.50586,0.44531,0.52941
5.168,0.40958,0.47801,0.50977,0.44531,0.53529
5.176,0.39883,0.46725,0.50977,0.44531,0.52549
5.184,0.3871,0.45748,0.51562,0.44922,0.52941
5.192,0.37439,0.4477,0.52539,0.44531,0.51569
5.2,0.36168,0.43695,0.52539,0.43945,0.51961
5.208,0.34897,0.42717,0.53516,0.43555,0.5098
5.216,0.33724,0.41838,0.53516,0.43555,0.5098
5.224,0.32551,0.4086,0.53906,0.43555,0.5098
5.232,0.31281,0.3998,0.53906,0.44531,0.5098
5.24,0.3001,0.39101,0.53906,0.43555,0.5098
5.248,0.28739,0.38416,0.53906,0.43945,0.51569
5.256,0.2737,0.37732,0.53906,0.43555,0.51569
5.264,0.261,0.36852,0.5293,0.43945,0.51961
5.272,0.24731,0.35973,0.5293,0.43945,0.52549
5.28,0.2346,0.34897,0.5293,0.44531,0.51569
5.288,0.22287,0.3392,0.52539,0.43945,0.51961
5.296,0.21114,0.33138,0.52539,0.44531,0.51569
5.304,0.20137,0.32845,0.51953,0.44531,0.52941
5.312,0.19159,0.33333,0.51562,0.44531,0.52549
5.32,0.18377,0.34995,0.51562,0.44531,0.52941
5.328,0.17693,0.38025,0.50977,0.44531,0.51961
5.336,0.17107,0.42424,0.51562,0.44531,0.52941
5.344,0.1652,0.47214,0.50977,0.44531,0.52549
5.352,0.16031,0.52493,0.50586,0.44531,0.53529
5.36,0.1564,0.59042,0.50977,0.44531,0.52941
5.368,0.15347,0.66373,0.51562,0.44922,0.53529
5.376,0.15054,0.73803,0.54492,0.43945,0.5098
5.384,0.14858,0.80841,0.57422,0.44531,0.49412
5.392,0.14663,0.87195,0.5957,0.42969,0.47451
5.4,0.14565,0.92571,0.62891,0.40039,0.46471
5.408,0.14467,0.96285,0.6543,0.39062,0.44902
5.416,0.1437,0.98143,0.68555,0.39062,0.43529
5.424,0.1437,0.9912,0.68945,0.39062,0.42941
5.432,0.1437,0.99511,0.64453,0.4043,0.46078
5.44,0.14272,0.99804,0.56055,0.43945,0.50588
5.448,0.14272,0.99902,0.49414,0.46484,0.53922
5.456,0.14174,1,0.48047,0.4707,0.55098
5.464,0.14174,1,0.46484,0.4707,0.5549
5.472,0.14076,0.99609,0.46094,0.46484,0.5549
5.48,0.14076,0.98925,0.45508,0.4707,0.56078
5.488,0.13978,0.98045,0.45508,0.4707,0.5549
5.496,0.13881,0.97263,0.44531,0.48047,0.56078
5.504,0.13783,0.96481,0.41602,0.50977,0.56471
5.512,0.13685,0.95797,0.62891,0.43555,0.43529
5.52,0.1349,0.9521,1.1387,0.23438,0.16863
5.528,0.13392,0.94624,1.5,-0.0039062,-0.047059
5.536,0.13294,0.94037,1.5,-0.064453,-0.092157
5.544,0.13196,0.93255,0.875,0.30078,0.38431
5.552,0.13099,0.92278,0.31055,0.51562,0.63529
5.56,0.12903,0.91105,0.24023,0.56445,0.6451
5.568,0.12805,0.89638,0.33008,0.53906,0.59608
5.576,0.1261,0.87977,0.37109,0.51562,0.58039
5.584,0.12512,0.86119,0.38477,0.50977,0.5902
5.592,0.12414,0.84164,0.39453,0.50586,0.58431
5.6,0.12317,0.82209,0.40039,0.50586,0.58431
5.608,0.12317,0.80254,0.4043,0.49414,0.58039
5.616,0.12317,0.78397,0.41016,0.5,0.58039
5.624,0.12219,0.76637,0.41602,0.49023,0.57451
5.632,0.12219,0.75073,0.42969,0.49023,0.57451
5.64,0.12219,0.73607,0.43555,0.49023,0.57059
5.648,0.12219,0.67937,0.43945,0.49023,0.57451
5.656,0.12219,0.60215,0.45508,0.48047,0.5549
5.664,0.12317,0.56012,0.45508,0.48047,0.5549
5.672,0.12317,0.53666,0.4707,0.46484,0.55098
5.68,0.12414,0.52297,0.48047,0.46094,0.5451
5.688,0.12512,0.5132,0.49023,0.45508,0.53529
5.696,0.1261,0.50538,0.5,0.44922,0.53529
5.704,0.12708,0.49853,0.51953,0.44531,0.51961
5.712,0.12903,0.49267,0.54492,0.43555,0.5098
5.72,0.13001,0.48583,0.56055,0.42578,0.50588
5.728,0.13099,0.47801,0.57422,0.42578,0.5
5.736,0.13294,0.47019,0.58398,0.41992,0.50588
5.744,0.13392,0.46237,0.58984,0.41992,0.4902
5.752,0.1349,0.45357,0.5957,0.41992,0.49412
5.76,0.13587,0.44477,0.5957,0.41602,0.48431
5.768,0.13685,0.43402,0.5957,0.41992,0.49412
5.776,0.13783,0.42424,0.58398,0.42969,0.4902
5.784,0.13783,0.41349,0.57422,0.44531,0.5098
5.792,0.13783,0.40274,0.55078,0.44531,0.5098
5.8,0.13783,0.39296,0.53906,0.44922,0.52549
5.808,0.13783,0.38319,0.52539,0.45508,0.52549
5.816,0.13685,0.37341,0.51562,0.46484,0.53922
5.824,0.13587,0.36266,0.51562,0.46094,0.53922
5.832,0.13294,0.35288,0.50586,0.4707,0.55098
5.84,0.13099,0.34409,0.50586,0.4707,0.53922
5.848,0.12805,0.33529,0.50977,0.4707,0.55098
5.856,0.1261,0.32845,0.51953,0.46484,0.53529
5.864,0.12219,0.3216,0.51953,0.46484,0.53922
5.872,0.11926,0.31476,0.52539,0.46484,0.52941
5.88,0.11437,0.30792,0.52539,0.46484,0.53529
5.888,0.10948,0.30108,0.52539,0.46094,0.53529
5.896,0.10362,0.29521,0.52539,0.46484,0.52941
5.904,0.098729,0.28935,0.53906,0.46484,0.53529
5.912,0.092864,0.2825,0.53516,0.46484,0.52549
5.92,0.086999,0.27664,0.53906,0.46094,0.53529
5.928,0.081134,0.26979,0.54492,0.45508,0.52549
5.936,0.075269,0.26393,0.53906,0.46094,0.53529
5.944,0.070381,0.25904,0.53516,0.46484,0.52941
5.952,0.065494,0.25415,0.5293,0.46484,0.53529
5.96,0.061584,0.24829,0.5293,0.46094,0.52941
5.968,0.057674,0.24145,0.5293,0.4707,0.53529
5.976,0.054741,0.2346,0.52539,0.47461,0.53529
5.984,0.052786,0.22874,0.51953,0.47461,0.5451
5.992,0.051808,0.22581,0.51953,0.47461,0.53922
6,0.050831,0.22776,0.51562,0.47461,0.55098
6.008,0.050831,0.23754,0.51562,0.4707,0.5451
6.016,0.050831,0.25611,0.50586,0.47461,0.5549
6.024,0.051808,0.28543,0.50586,0.4707,0.55098
6.032,0.052786,0.32454,0.50586,0.4707,0.5549
6.04,0.054741,0.37243,0.50977,0.4707,0.55098
6.048,0.056696,0.4174,0.50586,0.47461,0.56078
6.056,0.060606,0.46041,0.50586,0.4707,0.5549
6.064,0.064516,0.51026,0.50586,0.47461,0.5549
6.072,0.069404,0.56012,0.50977,0.47461,0.55098
6.08,0.074291,0.60704,0.5293,0.4707,0.5451
6.088,0.080156,0.64712,0.56445,0.46484,0.52549
6.096,0.086022,0.68035,0.58398,0.46484,0.5098
6.104,0.091887,0.70577,0.60547,0.43945,0.5
6.112,0.097752,0.72336,0.64062,0.41602,0.4902
6.12,0.10264,0.73314,0.66406,0.41016,0.47059
6.128,0.10753,0.73705,0.68555,0.4043,0.46078
6.136,0.11241,0.73607,0.66406,0.41602,0.47059
6.144,0.1173,0.73118,0.59961,0.43945,0.5098
6.152,0.12023,0.72434,0.51953,0.4707,0.55098
6.16,0.12414,0.71652,0.48438,0.48438,0.56078
6.168,0.12805,0.70772,0.4707,0.49023,0.58039
6.176,0.13099,0.69892,0.46094,0.49023,0.57451
6.184,0.13392,0.6911,0.45508,0.49023,0.58039
6.192,0.13685,0.68426,0.45508,0.49023,0.57451
6.2,0.13881,0.6784,0.45508,0.49023,0.58039
6.208,0.14076,0.67253,0.41602,0.51953,0.58039
6.216,0.14174,0.66862,0.41016,0.5293,0.52941
6.224,0.1437,0.66373,0.89453,0.34961,0.3
6.232,0.14467,0.65787,1.4883,0.11133,0.052941
6.24,0.14565,0.65005,1.5,-0.048828,-0.082353
6.248,0.14565,0.64125,1.2539,0.17578,0.21373
6.256,0.14663,0.63148,0.48047,0.46484,0.57451
6.264,0.14663,0.61975,0.23047,0.57422,0.66471
6.272,0.14761,0.60704,0.29492,0.58398,0.61569
6.28,0.14858,0.59238,0.35547,0.54492,0.6
6.288,0.14956,0.57771,0.38086,0.52539,0.60588
6.296,0.15152,0.56403,0.38477,0.51953,0.60588
6.304,0.15347,0.55034,0.39062,0.51562,0.6
6.312,0.15543,0.53861,0.39453,0.51562,0.60588
6.32,0.15738,0.52688,0.4043,0.51562,0.6
6.328,0.15934,0.51711,0.41016,0.50977,0.59608
6.336,0.16227,0.50831,0.41016,0.51562,0.6
6.344,0.1652,0.50147,0.41016,0.50977,0.5902
6.352,0.16716,0.49462,0.41992,0.50586,0.6
6.36,0.17009,0.48876,0.42969,0.5,0.58039
6.368,0.17302,0.48192,0.43945,0.49414,0.58039
6.376,0.17595,0.47605,0.45508,0.49023,0.57059
6.384,0.17889,0.47019,0.46094,0.48047,0.56471
6.392,0.18182,0.4653,0.47461,0.47461,0.5549
6.4,0.18377,0.45943,0.48438,0.47461,0.56078
6.408,0.18671,0.45259,0.5,0.4707,0.55098
6.416,0.18866,0.44477,0.51953,0.4707,0.53922
6.424,0.19062,0.43695,0.54492,0.44922,0.51961
6.432,0.19355,0.42815,0.55469,0.44531,0.51961
6.44,0.1955,0.41838,0.57422,0.43945,0.50588
6.448,0.19844,0.40958,0.57422,0.44531,0.5098
6.456,0.20039,0.40078,0.58984,0.43945,0.5
6.464,0.20235,0.39198,0.58984,0.43555,0.5098
6.472,0.20332,0.38123,0.58398,0.43945,0.5098
6.48,0.20528,0.37048,0.57422,0.44531,0.5098
6.488,0.20626,0.35973,0.56445,0.44531,0.51961
6.496,0.20723,0.34995,0.55078,0.45508,0.51569
6.504,0.20723,0.34018,0.5293,0.46484,0.53529
6.512,0.20723,0.3304,0.51953,0.4707,0.5451
6.52,0.20723,0.3216,0.50977,0.47461,0.5549
6.528,0.20723,0.31281,0.5,0.47461,0.56078
6.536,0.20626,0.30401,0.49023,0.48047,0.56471
6.544,0.20626,0.29717,0.48438,0.48047,0.56471
6.552,0.2043,0.2913,0.49023,0.48438,0.57059
6.56,0.20235,0.28446,0.49414,0.48438,0.56078
6.568,0.19941,0.27761,0.49023,0.49023,0.57059
6.576,0.19648,0.26979,0.5,0.48438,0.5549
6.584,0.19355,0.26295,0.5,0.48438,0.56078
6.592,0.19062,0.25611,0.50586,0.48047,0.55098
6.6,0.18768,0.24927,0.50586,0.47461,0.5549
6.608,0.18377,0.24242,0.51562,0.47461,0.55098
6.616,0.18084,0.23656,0.51953,0.48047,0.5549
6.624,0.17791,0.23069,0.52539,0.47461,0.5451
6.632,0.17498,0.22483,0.52539,0.48047,0.5451
6.64,0.17107,0.21896,0.52539,0.48047,0.53922
6.648,0.16911,0.21408,0.51953,0.48438,0.55098
6.656,0.16618,0.21017,0.52539,0.48438,0.55098
6.664,0.16422,0.20528,0.51953,0.49023,0.5549
6.672,0.16227,0.19844,0.51562,0.49023,0.5549
6.68,0.16227,0.19159,0.50977,0.49414,0.5549
6.688,0.16227,0.18475,0.50977,0.49023,0.56078
6.696,0.16325,0.17986,0.50586,0.49023,0.56471
6.704,0.1652,0.17889,0.5,0.49023,0.57059
6.712,0.16911,0.18377,0.5,0.49414,0.56078
6.72,0.174,0.19746,0.5,0.49023,0.57451
6.728,0.18084,0.2219,0.49023,0.49414,0.58039
6.736,0.18768,0.25709,0.49414,0.49414,0.57451
6.744,0.19453,0.29521,0.5,0.49023,0.57059
6.752,0.20137,0.33627,0.5,0.5,0.57451
6.76,0.20919,0.3871,0.5,0.5,0.56471
6.768,0.21603,0.44282,0.53516,0.49414,0.55098
6.776,0.22483,0.49951,0.56445,0.49023,0.53529
6.784,0.23265,0.5523,0.58008,0.48438,0.52549
6.792,0.24242,0.6002,0.61914,0.44531,0.50588
6.8,0.25122,0.64125,0.64453,0.43555,0.5
6.808,0.26002,0.67449,0.67969,0.42969,0.47059
6.816,0.26882,0.69892,0.66406,0.43945,0.48431
6.824,0.27761,0.71457,0.62891,0.44922,0.50588
6.832,0.28543,0.72336,0.53516,0.48438,0.5549
6.84,0.29423,0.7263,0.48438,0.49414,0.58039
6.848,0.30303,0.72336,0.46094,0.51562,0.6
6.856,0.31183,0.71652,0.45508,0.50977,0.60588
6.864,0.32063,0.70772,0.44922,0.51562,0.6
6.872,0.32845,0.69795,0.44922,0.51562,0.60588
6.88,0.33627,0.68719,0.45508,0.51562,0.60588
6.888,0.34409,0.67742,0.43555,0.52539,0.60588
6.896,0.35093,0.66764,0.4043,0.55469,0.6
6.904,0.35679,0.65885,0.6543,0.4707,0.46078
6.912,0.36266,0.65103,1.1992,0.25586,0.18431
6.92,0.36755,0.64321,1.5,0.019531,-0.037255
6.928,0.37341,0.63539,1.5,-0.044922,-0.082353
6.936,0.3783,0.62757,0.83984,0.35938,0.43922
6.944,0.38319,0.61877,0.30078,0.56445,0.67059
6.952,0.38807,0.61095,0.22461,0.60547,0.69608
6.96,0.39296,0.60117,0.31445,0.58008,0.62549
6.968,0.39785,0.58944,0.35547,0.55469,0.62549
6.976,0.40274,0.57771,0.375,0.53906,0.62549
6.984,0.40762,0.565,0.38477,0.53906,0.62549
6.992,0.41251,0.55132,0.39062,0.53906,0.62549
7,0.41838,0.53763,0.39453,0.53516,0.62549
7.008,0.42424,0.52493,0.4043,0.5293,0.61569
7.016,0.43109,0.5132,0.41016,0.53906,0.61961
7.024,0.43793,0.50147,0.4043,0.5293,0.61569
7.032,0.44575,0.49071,0.41602,0.5293,0.61569
7.04,0.45455,0.48094,0.42578,0.52539,0.60588
7.048,0.46432,0.47312,0.42969,0.51953,0.60588
7.056,0.47312,0.46725,0.43945,0.51562,0.6
7.064,0.48192,0.46041,0.44922,0.50586,0.5902
7.072,0.49071,0.45455,0.46484,0.49414,0.58039
7.08,0.49853,0.44966,0.48047,0.49023,0.57451
7.088,0.50635,0.44477,0.49414,0.48047,0.56471
7.096,0.51515,0.43891,0.51562,0.47461,0.56078
7.104,0.52297,0.43304,0.53516,0.4707,0.55098
7.112,0.53275,0.42717,0.55469,0.46484,0.53529
7.12,0.54154,0.42033,0.57422,0.45508,0.52549
7.128,0.54936,0.41251,0.57422,0.46094,0.52549
7.136,0.55718,0.40371,0.58984,0.45508,0.52941
7.144,0.565,0.39687,0.58008,0.46094,0.51961
7.152,0.57283,0.38905,0.58008,0.46094,0.52941
7.16,0.58065,0.37928,0.57422,0.46484,0.52549
7.168,0.58847,0.37048,0.57031,0.4707,0.53529
7.176,0.59726,0.35973,0.56055,0.4707,0.52941
7.184,0.60606,0.34897,0.54492,0.48047,0.5451
7.192,0.61388,0.3392,0.52539,0.48438,0.55098
7.2,0.6217,0.32845,0.50977,0.49023,0.56471
7.208,0.62854,0.31867,0.50977,0.49023,0.56078
7.216,0.63636,0.3089,0.50977,0.49023,0.56471
7.224,0.64125,0.29912,0.50586,0.49023,0.56078
7.232,0.64614,0.29032,0.5,0.49023,0.57059
7.24,0.65005,0.2825,0.50977,0.48438,0.56471
7.248,0.65396,0.27566,0.51562,0.49023,0.56471
7.256,0.65689,0.26882,0.51953,0.48438,0.5549
7.264,0.65885,0.26197,0.51562,0.48047,0.56078
7.272,0.6608,0.25513,0.52539,0.48047,0.5549
7.28,0.66276,0.24927,0.52539,0.48438,0.5549
7.288,0.66373,0.24242,0.52539,0.48047,0.55098
7.296,0.66373,0.23558,0.53516,0.48047,0.5451
7.304,0.66373,0.22972,0.54492,0.47461,0.55098
7.312,0.66373,0.22385,0.55078,0.4707,0.53529
7.32,0.66276,0.21799,0.54492,0.47461,0.53922
7.328,0.66178,0.21212,0.53516,0.4707,0.5451
7.336,0.65982,0.20528,0.53516,0.4707,0.5549
7.344,0.65885,0.20137,0.53516,0.4707,0.5451
7.352,0.65885,0.19746,0.53516,0.47461,0.5549
7.36,0.65885,0.19159,0.52539,0.47461,0.55098
7.368,0.65885,0.18475,0.52539,0.48438,0.5549
7.376,0.65982,0.17791,0.52539,0.49023,0.5549
7.384,0.6608,0.17302,0.51953,0.49023,0.56471
7.392,0.66178,0.17204,0.51562,0.48438,0.5549
7.4,0.66373,0.17889,0.51562,0.48438,0.56471
7.408,0.66471,0.19355,0.50977,0.48438,0.56078
7.416,0.66862,0.21994,0.50586,0.49023,0.57451
7.424,0.67155,0.25611,0.50977,0.49023,0.56078
7.432,0.67742,0.30205,0.51562,0.49023,0.56078
7.44,0.68231,0.34702,0.55469,0.48438,0.53922
7.448,0.68817,0.39296,0.57422,0.49023,0.52941
7.456,0.69306,0.4477,0.59961,0.4707,0.5098
7.464,0.69892,0.5044,0.63477,0.43945,0.50588
7.472,0.70577,0.55816,0.66406,0.42969,0.48039
7.48,0.71261,0.60704,0.69531,0.42578,0.46471
7.488,0.71945,0.64907,0.68555,0.42578,0.46471
7.496,0.72727,0.68231,0.62891,0.44922,0.5
7.504,0.73607,0.70674,0.53906,0.48047,0.55098
7.512,0.74389,0.72239,0.48438,0.49414,0.57451
7.52,0.75269,0.73021,0.47461,0.5,0.58431
7.528,0.76051,0.73118,0.45508,0.50586,0.58039
7.536,0.76931,0.72727,0.45508,0.50977,0.59608
7.544,0.77517,0.71945,0.45508,0.50977,0.58431
7.552,0.78201,0.7087,0.45508,0.5,0.5902
7.56,0.78788,0.69795,0.43555,0.51562,0.58039
7.568,0.79374,0.68524,0.40039,0.53906,0.60588
7.576,0.79765,0.67351,0.67578,0.44922,0.43922
7.584,0.80254,0.66276,1.25,0.23047,0.1549
7.592,0.80645,0.65298,1.5,-0.019531,-0.086275
7.6,0.81036,0.64321,1.5,-0.070312,-0.12745
7.608,0.81329,0.63441,0.83984,0.34961,0.41961
7.616,0.81623,0.62463,0.30469,0.55078,0.66471
7.624,0.81916,0.61584,0.24023,0.59961,0.67647
7.632,0.82111,0.60606,0.32031,0.57422,0.62549
7.64,0.82405,0.59531,0.35938,0.54492,0.61569
7.648,0.826,0.58456,0.375,0.53906,0.61961
7.656,0.82796,0.57283,0.38477,0.53906,0.6098
7.664,0.83089,0.55914,0.38477,0.53516,0.61569
7.672,0.83382,0.54545,0.39062,0.5293,0.6098
7.68,0.83675,0.53177,0.39062,0.53906,0.61569
7.688,0.84066,0.51906,0.41016,0.52539,0.60588
7.696,0.84457,0.51613,0.41016,0.52539,0.6098
7.704,0.84751,0.52004,0.41992,0.52539,0.60588
7.712,0.85142,0.51711,0.42578,0.51953,0.60588
7.72,0.85533,0.5132,0.42969,0.50977,0.5902
7.728,0.85924,0.50831,0.43945,0.50977,0.5902
7.736,0.8651,0.50342,0.44922,0.49414,0.58039
7.744,0.86999,0.49951,0.46484,0.49414,0.57451
7.752,0.87683,0.49658,0.48047,0.49023,0.57059
7.76,0.88368,0.49267,0.49414,0.48438,0.56078
7.768,0.88954,0.48876,0.51562,0.47461,0.5549
7.776,0.89541,0.48485,0.5293,0.4707,0.53922
7.784,0.90127,0.48094,0.55078,0.45508,0.52941
7.792,0.90714,0.47605,0.57031,0.44922,0.51961
7.8,0.913,0.47019,0.57422,0.45508,0.52549
7.808,0.91887,0.46334,0.58398,0.44922,0.5098
7.816,0.92571,0.45552,0.58008,0.44922,0.52549
7.824,0.93255,0.4477,0.57422,0.44531,0.51961
7.832,0.93939,0.43891,0.57422,0.44922,0.52941
7.84,0.94526,0.43206,0.57031,0.45508,0.52549
7.848,0.9521,0.42424,0.55469,0.46484,0.53529
7.856,0.95797,0.41642,0.53906,0.4707,0.53922
7.864,0.96188,0.40762,0.52539,0.47461,0.5549
7.872,0.96676,0.39785,0.51562,0.48047,0.56078
7.88,0.9697,0.38905,0.50586,0.48438,0.56471
7.888,0.97361,0.37928,0.50586,0.49023,0.56471
7.896,0.97556,0.3695,0.5,0.48438,0.57451
7.904,0.97752,0.3607,0.5,0.48047,0.56471
7.912,0.97849,0.35191,0.5,0.48047,0.56471
7.92,0.97947,0.34409,0.50586,0.47461,0.56078
7.928,0.97849,0.33627,0.50977,0.48047,0.56471
7.936,0.97849,0.32942,0.51562,0.47461,0.5549
7.944,0.97654,0.32356,0.51953,0.48047,0.5549
7.952,0.97458,0.31965,0.52539,0.47461,0.5549
7.96,0.97067,0.31378,0.53516,0.47461,0.55098
7.968,0.96774,0.30792,0.53516,0.4707,0.5549
7.976,0.96285,0.30205,0.53906,0.4707,0.5451
7.984,0.95797,0.29619,0.53906,0.46484,0.5549
7.992,0.95308,0.2913,0.54492,0.46484,0.53529
8,0.94819,0.28641,0.54492,0.4707,0.5451
8.008,0.94233,0.28152,0.54492,0.46484,0.53922
8.016,0.93744,0.27566,0.53906,0.4707,0.55098
8.024,0.93353,0.26979,0.53906,0.4707,0.5451
8.032,0.92864,0.26393,0.53516,0.4707,0.5549
8.04,0.92473,0.25904,0.5293,0.46484,0.55098
8.048,0.9218,0.25513,0.52539,0.4707,0.5549
8.056,0.91887,0.25122,0.52539,0.4707,0.5549
8.064,0.91593,0.25024,0.52539,0.4707,0.56078
8.072,0.91398,0.25415,0.52539,0.4707,0.5549
8.08,0.913,0.26686,0.51953,0.48047,0.56078
8.088,0.91105,0.28739,0.52539,0.48438,0.55098
8.096,0.91007,0.31867,0.56055,0.4707,0.53529
8.104,0.91007,0.35973,0.58398,0.4707,0.51569
8.112,0.90909,0.40762,0.60547,0.46094,0.5098
8.12,0.91007,0.46041,0.64062,0.42578,0.4902
8.128,0.91007,0.51515,0.66406,0.41016,0.48039
8.136,0.91105,0.56794,0.69922,0.4043,0.46078
8.144,0.91202,0.61095,0.68945,0.41016,0.46078
8.152,0.913,0.64614,0.65039,0.41992,0.4902
8.16,0.91398,0.68035,0.55469,0.45508,0.53922
8.168,0.91398,0.7087,0.50586,0.47461,0.56471
8.176,0.91398,0.73118,0.48047,0.48047,0.57451
8.184,0.913,0.74585,0.46484,0.49023,0.58431
8.192,0.91202,0.75464,0.45508,0.49023,0.58431
8.2,0.91105,0.7566,0.45508,0.49023,0.59608
8.208,0.90909,0.75367,0.46094,0.49023,0.5902
8.216,0.90616,0.74682,0.44922,0.49414,0.59608
8.224,0.90323,0.73803,0.41602,0.52539,0.58039
8.232,0.89834,0.72727,0.59961,0.46484,0.48431
8.24,0.89443,0.71652,1.1191,0.26562,0.20392
8.248,0.88954,0.70577,1.5,0.0097656,-0.041176
8.256,0.88465,0.69599,1.5,-0.070312,-0.10588
8.264,0.87879,0.68622,0.96484,0.2793,0.35882
8.272,0.8739,0.6784,0.3457,0.50586,0.63529
8.28,0.86706,0.67058,0.24609,0.57031,0.66078
8.288,0.85924,0.66373,0.33008,0.54492,0.6
8.296,0.85142,0.65591,0.38086,0.51953,0.5902
8.304,0.84262,0.64809,0.39453,0.50586,0.59608
8.312,0.83284,0.63832,0.39453,0.50586,0.6
8.32,0.82405,0.62757,0.41016,0.49023,0.5902
8.328,0.81427,0.61584,0.41016,0.49414,0.58431
8.336,0.80547,0.60411,0.41602,0.49023,0.5902
8.344,0.79668,0.5914,0.42578,0.49023,0.58431
8.352,0.78886,0.58065,0.42969,0.49023,0.58039
8.36,0.78201,0.56794,0.43555,0.48438,0.58039
8.368,0.77419,0.55621,0.44531,0.48047,0.57451
8.376,0.76735,0.54545,0.45508,0.4707,0.56078
8.384,0.75953,0.5347,0.46094,0.46484,0.56471
8.392,0.75269,0.5259,0.47461,0.45508,0.5549
8.4,0.74487,0.51711,0.48047,0.44922,0.56078
8.408,0.739,0.51026,0.5,0.44531,0.53922
8.416,0.73314,0.5044,0.50977,0.44531,0.53529
8.424,0.72825,0.49951,0.5293,0.43555,0.51961
8.432,0.72336,0.49462,0.55078,0.42969,0.5098
8.44,0.71848,0.48974,0.57031,0.41992,0.5
8.448,0.71359,0.4868,0.58008,0.41992,0.49412
8.456,0.70772,0.48289,0.5957,0.41602,0.4902
8.464,0.70283,0.47801,0.5957,0.41602,0.49412
8.472,0.69697,0.47214,0.59961,0.4043,0.48431
8.48,0.6911,0.46628,0.60547,0.41602,0.4902
8.488,0.68426,0.45846,0.59961,0.41602,0.4902
8.496,0.6784,0.45064,0.58984,0.42578,0.49412
8.504,0.67155,0.44086,0.57422,0.43555,0.50588
8.512,0.66569,0.43206,0.56055,0.44531,0.5098
8.52,0.65885,0.42229,0.54492,0.44531,0.51961
8.528,0.652,0.41251,0.5293,0.44922,0.52941
8.536,0.64418,0.40274,0.52539,0.45508,0.53529
8.544,0.63539,0.39492,0.51562,0.44922,0.53922
8.552,0.62561,0.3871,0.51562,0.46094,0.5451
8.56,0.61584,0.3783,0.50977,0.45508,0.53922
8.568,0.60606,0.3695,0.51562,0.46484,0.5451
8.576,0.59531,0.35973,0.51953,0.46094,0.53529
8.584,0.58456,0.35093,0.51953,0.45508,0.53529
8.592,0.5738,0.34213,0.52539,0.44922,0.53529
8.6,0.56109,0.33431,0.52539,0.44922,0.53529
8.608,0.54839,0.32649,0.53906,0.44531,0.52549
8.616,0.53275,0.31965,0.54492,0.44922,0.52941
8.624,0.51711,0.31281,0.55078,0.44922,0.51961
8.632,0.50049,0.30596,0.55078,0.45508,0.52941
8.64,0.48289,0.30108,0.55078,0.44531,0.51961
8.648,0.4653,0.29717,0.55078,0.44531,0.52941
8.656,0.44673,0.29228,0.54492,0.44531,0.51961
8.664,0.43109,0.28641,0.54492,0.46094,0.53529
8.672,0.41544,0.28055,0.55078,0.44922,0.52549
8.68,0.40078,0.27468,0.53906,0.46094,0.53529
8.688,0.3871,0.26882,0.53906,0.46094,0.52941
8.696,0.37341,0.26197,0.5293,0.46094,0.53529
8.704,0.3607,0.25611,0.5293,0.45508,0.53529
8.712,0.34897,0.2522,0.5293,0.46094,0.53529
8.72,0.33627,0.2522,0.52539,0.46484,0.53922
8.728,0.32649,0.25904,0.52539,0.46484,0.53529
8.736,0.31672,0.27566,0.52539,0.46094,0.53922
8.744,0.30792,0.29619,0.52539,0.46484,0.53922
8.752,0.3001,0.32356,0.51953,0.4707,0.5451
8.76,0.29326,0.36266,0.52539,0.46484,0.53529
8.768,0.28641,0.41056,0.57031,0.45508,0.51569
8.776,0.28055,0.46432,0.5957,0.44922,0.49412
8.784,0.27566,0.52102,0.61523,0.43945,0.48431
8.792,0.27077,0.57576,0.65039,0.40039,0.47059
8.8,0.26686,0.62659,0.67578,0.39453,0.46078
8.808,0.26295,0.67058,0.70898,0.39062,0.43529
8.816,0.26002,0.70674,0.68945,0.39453,0.4451
8.824,0.25709,0.73607,0.64062,0.41016,0.47451
8.832,0.25513,0.7566,0.54492,0.44922,0.52941
8.84,0.25318,0.76735,0.5,0.4707,0.5451
8.848,0.25122,0.77224,0.48047,0.4707,0.56471
8.856,0.24829,0.77322,0.4707,0.4707,0.56078
8.864,0.24633,0.77028,0.46094,0.48047,0.58039
8.872,0.2434,0.76442,0.46484,0.47461,0.57059
8.88,0.24047,0.75562,0.46094,0.48047,0.58039
8.888,0.23754,0.74585,0.43945,0.48438,0.57451
8.896,0.2346,0.73509,0.41602,0.51562,0.58039
8.904,0.23265,0.72532,0.68555,0.42578,0.41569
8.912,0.22972,0.71554,1.2402,0.20508,0.14314
8.92,0.22678,0.70772,1.5,-0.029297,-0.066667
8.928,0.22287,0.6999,1.5,-0.070312,-0.096078
8.936,0.21896,0.69208,0.75391,0.34961,0.4549
8.944,0.21505,0.68524,0.27539,0.53906,0.6549
8.952,0.21114,0.67742,0.24023,0.57031,0.62941
8.96,0.20723,0.66862,0.34961,0.53906,0.5902
8.968,0.20332,0.65787,0.38477,0.51562,0.58431
8.976,0.19941,0.64614,0.40039,0.50977,0.58431
8.984,0.19648,0.63343,0.4043,0.51562,0.59608
8.992,0.19257,0.61877,0.41016,0.50586,0.58039
9,0.19062,0.60411,0.41016,0.50977,0.58431
9.008,0.18768,0.58847,0.41992,0.5,0.58039
9.016,0.18573,0.57478,0.41992,0.5,0.58039
9.024,0.18377,0.56109,0.42969,0.49414,0.58039
9.032,0.1828,0.54839,0.43555,0.49414,0.58039
9.04,0.18182,0.53763,0.44531,0.49023,0.56471
9.048,0.18084,0.52786,0.45508,0.49023,0.57059
9.056,0.17986,0.51906,0.46094,0.48047,0.5549
9.064,0.17791,0.51124,0.4707,0.48047,0.5549
9.072,0.17693,0.50342,0.48047,0.4707,0.5451
9.08,0.17693,0.4956,0.49023,0.46484,0.53922
9.088,0.17595,0.48876,0.50977,0.44922,0.52549
9.096,0.17595,0.48289,0.52539,0.44531,0.51961
9.104,0.17595,0.47703,0.54492,0.43945,0.50588
9.112,0.17498,0.47019,0.55469,0.43555,0.50588
9.12,0.17498,0.46432,0.57422,0.42969,0.4902
9.128,0.17498,0.45846,0.58984,0.42578,0.4902
9.136,0.174,0.45161,0.5957,0.41992,0.48431
9.144,0.174,0.44575,0.59961,0.41992,0.48431
9.152,0.174,0.43793,0.60547,0.41992,0.48431
9.16,0.174,0.43011,0.5957,0.41992,0.48431
9.168,0.174,0.42033,0.58984,0.43555,0.49412
9.176,0.17302,0.41056,0.57422,0.43945,0.50588
9.184,0.17302,0.3998,0.56055,0.44531,0.5098
9.192,0.17107,0.38905,0.55078,0.44922,0.51569
9.2,0.17009,0.37928,0.53516,0.46484,0.52941
9.208,0.16813,0.36852,0.52539,0.46484,0.52941
9.216,0.16618,0.35875,0.51953,0.4707,0.53922
9.224,0.16422,0.348,0.51562,0.4707,0.53529
9.232,0.16227,0.33822,0.51562,0.4707,0.5451
9.24,0.15836,0.3304,0.52539,0.4707,0.53529
9.248,0.15543,0.32356,0.51953,0.4707,0.53922
9.256,0.15054,0.31574,0.52539,0.4707,0.53529
9.264,0.14663,0.30792,0.52539,0.4707,0.53529
9.272,0.13978,0.3001,0.5293,0.46094,0.52941
9.28,0.13392,0.29326,0.5293,0.46094,0.53529
9.288,0.1261,0.28543,0.53906,0.45508,0.52941
9.296,0.11926,0.27859,0.5293,0.44922,0.53529
9.304,0.11339,0.27175,0.53516,0.44922,0.52941
9.312,0.10655,0.26588,0.53906,0.46094,0.53529
9.32,0.10166,0.26002,0.53906,0.46094,0.52941
9.328,0.096774,0.25415,0.53516,0.46484,0.53529
9.336,0.091887,0.25024,0.54492,0.46094,0.52941
9.344,0.086999,0.24633,0.53516,0.46484,0.53529
9.352,0.082111,0.24145,0.53516,0.4707,0.53529
9.36,0.077224,0.2346,0.5293,0.46484,0.53529
9.368,0.074291,0.22874,0.5293,0.4707,0.53529
9.376,0.070381,0.22287,0.51953,0.4707,0.53529
9.384,0.068426,0.21896,0.51953,0.4707,0.5451
9.392,0.066471,0.21994,0.51562,0.4707,0.53529
9.4,0.066471,0.22874,0.51562,0.46484,0.55098
9.408,0.066471,0.24633,0.51562,0.46094,0.5451
9.416,0.067449,0.2737,0.50977,0.4707,0.5549
9.424,0.069404,0.31281,0.50977,0.4707,0.55098
9.432,0.072336,0.3607,0.51953,0.4707,0.5549
9.44,0.076246,0.40665,0.55078,0.46484,0.51961
9.448,0.080156,0.45357,0.57422,0.4707,0.5098
9.456,0.084066,0.50733,0.5957,0.44922,0.4902
9.464,0.087977,0.56207,0.64062,0.41992,0.48431
9.472,0.091887,0.61486,0.66016,0.4043,0.46471
9.48,0.096774,0.6608,0.69922,0.40039,0.44902
9.488,0.10068,0.69892,0.68945,0.4043,0.44902
9.496,0.10557,0.72825,0.64062,0.42578,0.4902
9.504,0.11046,0.74976,0.55078,0.44922,0.52941
9.512,0.11535,0.76344,0.49414,0.4707,0.5549
9.52,0.12023,0.76931,0.48047,0.48047,0.56078
9.528,0.12414,0.77028,0.46484,0.48438,0.57059
9.536,0.12903,0.76637,0.46484,0.48438,0.58039
9.544,0.13294,0.75855,0.46094,0.48438,0.57451
9.552,0.13587,0.74976,0.46094,0.49023,0.58039
9.56,0.13881,0.73998,0.44531,0.5,0.57451
9.568,0.14174,0.72923,0.41602,0.5293,0.58431
9.576,0.1437,0.71848,0.64453,0.45508,0.4451
9.584,0.14565,0.7087,1.1641,0.24609,0.18824
9.592,0.14663,0.6999,1.5,0.015625,-0.031373
9.6,0.14761,0.6911,1.5,-0.044922,-0.072549
9.608,0.14761,0.68328,0.82422,0.33984,0.42549
9.616,0.14858,0.67546,0.29492,0.54492,0.6549
9.624,0.14858,0.66667,0.23438,0.58398,0.66471
9.632,0.14956,0.65689,0.33594,0.55469,0.6
9.64,0.14956,0.64712,0.375,0.5293,0.5902
9.648,0.14956,0.63636,0.38477,0.51953,0.60588
9.656,0.15054,0.62366,0.39453,0.51562,0.59608
9.664,0.15054,0.60997,0.40039,0.51562,0.6
9.672,0.15152,0.59531,0.41016,0.50977,0.5902
9.68,0.15249,0.58065,0.41602,0.50977,0.59608
9.688,0.15347,0.56598,0.42578,0.49414,0.58431
9.696,0.15543,0.5523,0.42969,0.5,0.5902
9.704,0.15738,0.53959,0.43555,0.49414,0.58039
9.712,0.15934,0.52786,0.43555,0.49023,0.58039
9.72,0.16227,0.51711,0.44922,0.48438,0.57451
9.728,0.1652,0.50733,0.45508,0.48438,0.57059
9.736,0.16813,0.49951,0.4707,0.4707,0.5549
9.744,0.17204,0.49365,0.48047,0.4707,0.5549
9.752,0.17498,0.48876,0.49023,0.46094,0.5451
9.76,0.17889,0.48387,0.50586,0.45508,0.53922
9.768,0.18182,0.47996,0.52539,0.44531,0.53529
9.776,0.18573,0.47507,0.54492,0.44531,0.52549
9.784,0.18768,0.47019,0.57031,0.44531,0.5098
9.792,0.19062,0.46432,0.58008,0.43555,0.50588
9.8,0.19355,0.45748,0.5957,0.42969,0.5098
9.808,0.1955,0.45064,0.5957,0.42578,0.5
9.816,0.19746,0.44282,0.5957,0.42969,0.50588
9.824,0.19941,0.435,0.5957,0.42578,0.49412
9.832,0.20039,0.4262,0.58984,0.43945,0.50588
9.84,0.20235,0.41935,0.58398,0.43555,0.5
9.848,0.20332,0.41153,0.56445,0.44531,0.51569
9.856,0.20528,0.40371,0.55078,0.44922,0.5098
9.864,0.20626,0.39492,0.53906,0.46094,0.52941
9.872,0.20723,0.38612,0.52539,0.46484,0.53529
9.88,0.20723,0.37732,0.52539,0.4707,0.5451
9.888,0.20723,0.36852,0.51562,0.4707,0.5451
9.896,0.20626,0.35973,0.50586,0.47461,0.5549
9.904,0.20528,0.35191,0.50977,0.4707,0.5451
9.912,0.20235,0.34409,0.51562,0.47461,0.55098
9.92,0.19941,0.33627,0.51953,0.4707,0.53529
9.928,0.1955,0.32845,0.51953,0.4707,0.5451
9.936,0.19159,0.32258,0.52539,0.4707,0.53529
9.944,0.18768,0.31769,0.52539,0.4707,0.53529
9.952,0.18377,0.31281,0.5293,0.4707,0.53529
9.96,0.17986,0.30694,0.5293,0.4707,0.53529
9.968,0.17595,0.30108,0.53906,0.46484,0.53529
9.976,0.17107,0.29521,0.53906,0.46484,0.52941
9.984,0.16618,0.29032,0.53906,0.4707,0.52941
9.992,0.16129,0.28446,0.54492,0.4707,0.52549
10,0.1564,0.27957,0.53906,0.4707,0.52941
10.008,0.15249,0.2737,0.5293,0.4707,0.52549
10.016,0.14858,0.26882,0.5293,0.46484,0.53529
10.024,0.14663,0.26295,0.52539,0.46484,0.53529
10.032,0.1437,0.25709,0.52539,0.4707,0.53922
10.04,0.14272,0.2522,0.51953,0.4707,0.53529
10.048,0.14272,0.24927,0.51953,0.47461,0.55098
10.056,0.14272,0.24633,0.51562,0.47461,0.53922
10.064,0.1437,0.24633,0.50977,0.48047,0.55098
10.072,0.14565,0.25122,0.50977,0.48047,0.53922
10.08,0.14761,0.26295,0.50977,0.48438,0.5549
10.088,0.15152,0.28446,0.50977,0.48438,0.55098
10.096,0.15543,0.31476,0.50586,0.49023,0.5549
10.104,0.15934,0.35484,0.5293,0.47461,0.53529
10.112,0.16422,0.40078,0.56445,0.4707,0.52549
10.12,0.16813,0.45064,0.58984,0.48047,0.50588
10.128,0.17302,0.50244,0.61523,0.44922,0.49412
10.136,0.17986,0.54643,0.64453,0.41992,0.48431
10.144,0.18573,0.58456,0.67969,0.41992,0.46471
10.152,0.19355,0.6217,0.68555,0.41992,0.46078
10.16,0.20137,0.65591,0.65039,0.42969,0.48039
10.168,0.20821,0.68328,0.56445,0.46094,0.52941
10.176,0.21603,0.70381,0.49414,0.48438,0.56078
10.184,0.2219,0.71652,0.4707,0.49414,0.57451
10.192,0.22874,0.72336,0.45508,0.49414,0.58039
10.2,0.2346,0.72532,0.44922,0.5,0.5902
10.208,0.24145,0.72239,0.44531,0.50586,0.58431
10.216,0.24731,0.71554,0.43945,0.50977,0.59608
10.224,0.25318,0.70577,0.44531,0.50586,0.58431
10.232,0.25904,0.69599,0.39453,0.53906,0.6
10.24,0.26393,0.68524,0.53516,0.5,0.5098
10.248,0.26979,0.67546,0.99414,0.33008,0.26863
10.256,0.27468,0.66569,1.5,0.089844,0.017647
10.264,0.28055,0.65591,1.5,-0.029297,-0.060784
10.272,0.28543,0.64614,1.1152,0.25,0.29412
10.28,0.29032,0.63734,0.40039,0.50977,0.62941
10.288,0.29619,0.62854,0.2207,0.5957,0.67647
10.296,0.30108,0.61975,0.29102,0.59961,0.63529
10.304,0.30596,0.60997,0.35547,0.55469,0.6098
10.312,0.31085,0.6002,0.37109,0.53906,0.61961
10.32,0.31574,0.58847,0.38086,0.53516,0.61569
10.328,0.32063,0.57576,0.38477,0.53516,0.61961
10.336,0.32551,0.56305,0.38477,0.5293,0.6098
10.344,0.3304,0.55132,0.39453,0.52539,0.60588
10.352,0.33529,0.53861,0.41016,0.5293,0.6098
10.36,0.34115,0.5259,0.41016,0.52539,0.60588
10.368,0.348,0.51417,0.41016,0.52539,0.6098
10.376,0.35484,0.50244,0.41992,0.51953,0.60588
10.384,0.36168,0.49169,0.42969,0.50977,0.59608
10.392,0.3695,0.48192,0.43945,0.50977,0.5902
10.4,0.37732,0.47312,0.45508,0.50586,0.58039
10.408,0.38612,0.4653,0.46484,0.5,0.57451
10.416,0.39492,0.45846,0.47461,0.49023,0.57059
10.424,0.40371,0.45161,0.49023,0.48438,0.5549
10.432,0.41251,0.44575,0.50977,0.47461,0.55098
10.44,0.42033,0.44086,0.52539,0.4707,0.53529
10.448,0.42913,0.43695,0.54492,0.46484,0.53922
10.456,0.43695,0.43109,0.56445,0.46094,0.51961
10.464,0.44575,0.42522,0.57422,0.46484,0.52549
10.472,0.45357,0.41935,0.58398,0.44922,0.5098
10.48,0.46237,0.41251,0.58398,0.45508,0.51569
10.488,0.47019,0.40469,0.58984,0.44922,0.5098
10.496,0.47801,0.39589,0.58398,0.45508,0.51569
10.504,0.48485,0.3871,0.58398,0.44922,0.5098
10.512,0.49169,0.37732,0.57031,0.46094,0.51961
10.52,0.49853,0.36755,0.55078,0.46484,0.53529
10.528,0.50538,0.35777,0.53906,0.4707,0.5451
10.536,0.51222,0.34995,0.52539,0.47461,0.55098
10.544,0.51906,0.34311,0.51562,0.48047,0.5549
10.552,0.52493,0.33529,0.50977,0.47461,0.55098
10.56,0.52981,0.32649,0.51562,0.48047,0.5549
10.568,0.5347,0.31769,0.50977,0.47461,0.55098
10.576,0.53959,0.30987,0.50586,0.48047,0.5549
10.584,0.54252,0.30205,0.50977,0.48438,0.55098
10.592,0.54643,0.29423,0.51953,0.4707,0.5451
10.6,0.54936,0.28641,0.51953,0.47461,0.55098
10.608,0.55132,0.27859,0.52539,0.4707,0.53529
10.616,0.5523,0.27175,0.52539,0.4707,0.53922
10.624,0.55425,0.26393,0.5293,0.4707,0.53529
10.632,0.55425,0.25709,0.53516,0.4707,0.53529
10.64,0.55425,0.2522,0.53516,0.4707,0.53529
10.648,0.55425,0.24829,0.53906,0.4707,0.53529
10.656,0.55425,0.2434,0.54492,0.4707,0.52549
10.664,0.55425,0.23851,0.53906,0.46484,0.53529
10.672,0.55425,0.23265,0.54492,0.46094,0.52941
10.68,0.55523,0.22776,0.53906,0.46484,0.53529
10.688,0.55523,0.2219,0.53906,0.46094,0.53529
10.696,0.55621,0.21603,0.53516,0.46484,0.53922
10.704,0.55718,0.21017,0.5293,0.46484,0.53922
10.712,0.55914,0.2043,0.52539,0.4707,0.55098
10.72,0.56207,0.19941,0.52539,0.4707,0.5451
10.728,0.56598,0.19746,0.51953,0.47461,0.55098
10.736,0.56989,0.20039,0.51953,0.4707,0.5451
10.744,0.57478,0.20723,0.51562,0.4707,0.55098
10.752,0.57869,0.22092,0.51953,0.4707,0.5451
10.76,0.5826,0.2434,0.52539,0.4707,0.53922
10.768,0.58749,0.2737,0.55469,0.46094,0.52941
10.776,0.59433,0.31085,0.58008,0.46484,0.5098
10.784,0.6002,0.35288,0.59961,0.44922,0.49412
10.792,0.60899,0.39785,0.63477,0.41602,0.48431
10.8,0.61681,0.44282,0.66406,0.4043,0.47059
10.808,0.62463,0.48583,0.69922,0.40039,0.4451
10.816,0.63245,0.52395,0.68945,0.41016,0.4549
10.824,0.64027,0.55621,0.64453,0.42578,0.48039
10.832,0.64809,0.58065,0.54492,0.46094,0.53529
10.84,0.65591,0.59726,0.49023,0.47461,0.56471
10.848,0.66373,0.61095,0.46484,0.49023,0.58039
10.856,0.67155,0.61975,0.45508,0.48438,0.58039
10.864,0.67937,0.62366,0.45508,0.49023,0.58039
10.872,0.68719,0.62268,0.45508,0.49023,0.58039
10.88,0.69501,0.61779,0.45508,0.49023,0.58039
10.888,0.70186,0.61095,0.44531,0.49414,0.58039
10.896,0.70968,0.60117,0.4043,0.53516,0.5902
10.904,0.71457,0.5914,0.61914,0.45508,0.4549
10.912,0.72043,0.58162,1.1641,0.24609,0.17843
10.92,0.72434,0.57185,1.5,-0.0039062,-0.076471
10.928,0.72923,0.56207,1.5,-0.080078,-0.13725
10.936,0.73314,0.55425,0.93555,0.30078,0.36471
10.944,0.73705,0.54741,0.32031,0.52539,0.65098
10.952,0.73998,0.54057,0.23047,0.58398,0.67647
10.96,0.74389,0.53372,0.31445,0.56445,0.61961
10.968,0.7478,0.5259,0.35938,0.53516,0.60588
10.976,0.75073,0.51808,0.375,0.52539,0.60588
10.984,0.75367,0.51026,0.38086,0.5293,0.6098
10.992,0.7566,0.50049,0.38477,0.51562,0.6
11,0.76051,0.49071,0.39453,0.51562,0.60588
11.008,0.76442,0.47996,0.4043,0.51562,0.5902
11.016,0.76833,0.47019,0.40039,0.50977,0.60588
11.024,0.77322,0.45943,0.41016,0.50977,0.59608
11.032,0.7781,0.45064,0.41602,0.50977,0.6
11.04,0.78397,0.44379,0.42578,0.50586,0.58431
11.048,0.78983,0.43597,0.43555,0.49414,0.58039
11.056,0.7957,0.42913,0.44922,0.48438,0.57059
11.064,0.80156,0.42424,0.45508,0.48438,0.57451
11.072,0.80743,0.41935,0.4707,0.48047,0.56078
11.08,0.81232,0.41642,0.48047,0.47461,0.5549
11.088,0.81818,0.41349,0.5,0.4707,0.53922
11.096,0.82502,0.41056,0.51562,0.46484,0.5451
11.104,0.83187,0.40762,0.5293,0.45508,0.52941
11.112,0.84066,0.40371,0.54492,0.45508,0.52941
11.12,0.84848,0.40078,0.56445,0.44531,0.5098
11.128,0.8563,0.39589,0.57422,0.44531,0.51569
11.136,0.86413,0.39198,0.58398,0.43945,0.50588
11.144,0.87097,0.38905,0.58008,0.44531,0.5098
11.152,0.87781,0.38416,0.58398,0.44922,0.5098
11.16,0.88465,0.3783,0.57422,0.44922,0.51569
11.168,0.8915,0.37243,0.56445,0.46094,0.51961
11.176,0.89834,0.36559,0.55469,0.4707,0.51569
11.184,0.90616,0.35875,0.54492,0.4707,0.53529
11.192,0.91202,0.35093,0.52539,0.4707,0.53529
11.2,0.91887,0.34311,0.51953,0.4707,0.5451
11.208,0.92473,0.33529,0.50586,0.47461,0.55098
11.216,0.92962,0.32747,0.50586,0.47461,0.5549
11.224,0.93451,0.31965,0.50586,0.4707,0.55098
11.232,0.93842,0.31281,0.5,0.48047,0.5549
11.24,0.94135,0.30792,0.50586,0.47461,0.55098
11.248,0.94428,0.30205,0.5,0.4707,0.5549
11.256,0.94526,0.29717,0.50977,0.4707,0.53922
11.264,0.94624,0.2913,0.50977,0.4707,0.55098
11.272,0.94624,0.28543,0.52539,0.4707,0.53529
11.28,0.94624,0.28055,0.5293,0.4707,0.53922
11.288,0.94526,0.27566,0.53516,0.4707,0.53529
11.296,0.94526,0.26979,0.53906,0.4707,0.53922
11.304,0.9433,0.26588,0.53906,0.4707,0.53529
11.312,0.94135,0.261,0.53906,0.4707,0.53529
11.32,0.93939,0.25709,0.54492,0.46094,0.52549
11.328,0.93744,0.25318,0.53906,0.46094,0.53529
11.336,0.93548,0.25024,0.53906,0.45508,0.52549
11.344,0.93255,0.24829,0.53516,0.46094,0.53529
11.352,0.93157,0.24438,0.53906,0.46094,0.52549
11.36,0.92962,0.24047,0.5293,0.46484,0.53529
11.368,0.92864,0.23656,0.52539,0.46484,0.53922
11.376,0.92766,0.23167,0.51953,0.4707,0.5451
11.384,0.92669,0.22776,0.52539,0.4707,0.55098
11.392,0.92669,0.22678,0.51953,0.4707,0.53529
11.4,0.92669,0.23069,0.51562,0.4707,0.55098
11.408,0.92669,0.23949,0.50977,0.4707,0.53922
11.416,0.92864,0.25709,0.5293,0.4707,0.52941
11.424,0.93157,0.2825,0.56445,0.46484,0.5098
11.432,0.93548,0.30987,0.58398,0.4707,0.5
11.44,0.94037,0.34018,0.60547,0.43945,0.48431
11.448,0.94428,0.3783,0.64453,0.41602,0.47451
11.456,0.94819,0.41935,0.68555,0.41016,0.44902
11.464,0.95308,0.46139,0.69922,0.41016,0.4451
11.472,0.95699,0.50147,0.67578,0.4043,0.4549
11.48,0.96285,0.53763,0.58984,0.43945,0.5098
11.488,0.96872,0.56794,0.51562,0.46484,0.53922
11.496,0.97556,0.59238,0.48047,0.48047,0.56471
11.504,0.9824,0.60997,0.46094,0.48438,0.57451
11.512,0.98827,0.62268,0.45508,0.49023,0.58039
11.52,0.99511,0.62854,0.45508,0.48438,0.57451
11.528,0.99804,0.6305,0.44922,0.49023,0.58431
11.536,1,0.62854,0.44922,0.48438,0.58039
11.544,1,0.62366,0.4043,0.51953,0.58431
11.552,1,0.61681,0.40039,0.53516,0.53922
11.56,1,0.60899,0.85547,0.375,0.33529
11.568,1,0.6002,1.5,0.10547,0.029412
11.576,1,0.59238,1.5,-0.089844,-0.14118
11.584,1,0.58456,1.459,0.099609,0.11373
11.592,1,0.57674,0.55469,0.43555,0.55098
11.6,1,0.57087,0.24023,0.56055,0.67647
11.608,1,0.56403,0.27539,0.57422,0.64118
11.616,1,0.55816,0.33984,0.53906,0.6098
11.624,1,0.55132,0.36523,0.51562,0.60588
11.632,1,0.54545,0.37109,0.51562,0.61569
11.64,1,0.53861,0.38477,0.51562,0.60588
11.648,1,0.53177,0.38477,0.50586,0.6098
11.656,1,0.52297,0.39453,0.5,0.6
11.664,1,0.51417,0.4043,0.50586,0.60588
11.672,1,0.5044,0.41016,0.5,0.59608
11.68,1,0.4956,0.41602,0.49023,0.6
11.688,1,0.48583,0.41992,0.49023,0.58431
11.696,1,0.47801,0.42969,0.48438,0.5902
11.704,1,0.47019,0.43945,0.48047,0.58039
11.712,1,0.46334,0.44922,0.48047,0.58039
11.72,1,0.45846,0.46094,0.4707,0.56078
11.728,1,0.45357,0.47461,0.46484,0.56078
11.736,1,0.45064,0.49023,0.45508,0.55098
11.744,1,0.4477,0.50586,0.44922,0.5451
11.752,1,0.44575,0.52539,0.43945,0.52941
11.76,1,0.44282,0.54492,0.42969,0.52549
11.768,1,0.44086,0.56445,0.41992,0.5098
11.776,1,0.43793,0.57422,0.41992,0.5098
11.784,1,0.435,0.58398,0.41016,0.50588
11.792,1,0.44184,0.58398,0.41016,0.50588
11.8,1,0.45259,0.58984,0.41602,0.5
11.808,1,0.45552,0.5957,0.41016,0.5
11.816,1,0.45455,0.58398,0.41992,0.50588
11.824,1,0.45064,0.57422,0.42578,0.5098
11.832,1,0.44673,0.56055,0.43555,0.51961
11.84,1,0.44184,0.55078,0.43945,0.51961
11.848,1,0.43597,0.5293,0.44531,0.53529
11.856,1,0.43011,0.52539,0.44922,0.53922
11.864,1,0.42326,0.51953,0.45508,0.55098
11.872,1,0.41642,0.50977,0.44922,0.53922
11.88,1,0.41056,0.50586,0.46484,0.5549
11.888,1,0.40371,0.51562,0.44922,0.5451
11.896,1,0.39785,0.51953,0.45508,0.55098
11.904,1,0.39198,0.52539,0.44531,0.53529
11.912,1,0.38612,0.52539,0.44922,0.53922
11.92,1,0.38025,0.5293,0.44531,0.53529
11.928,0.99707,0.37537,0.5293,0.44531,0.53529
11.936,0.99316,0.37146,0.53516,0.44531,0.51569
11.944,0.97947,0.36852,0.53906,0.44531,0.51961
11.952,0.96481,0.36461,0.53906,0.42969,0.51569
11.96,0.94721,0.3607,0.54492,0.43555,0.5098
11.968,0.92962,0.35777,0.54492,0.43555,0.51569
11.976,0.91007,0.35386,0.53906,0.43555,0.5098
11.984,0.89052,0.35093,0.54492,0.42969,0.51961
11.992,0.86999,0.348,0.53906,0.43555,0.5098
12,0.85044,0.34409,0.53906,0.43945,0.52549
12.008,0.82991,0.34018,0.53906,0.42969,0.51961
12.016,0.81036,0.33627,0.53516,0.43945,0.52941
12.024,0.79277,0.33138,0.5293,0.43555,0.52549
12.032,0.77517,0.32942,0.52539,0.43945,0.53529
12.04,0.75953,0.32845,0.52539,0.43555,0.53529
12.048,0.74487,0.32942,0.51953,0.44531,0.53529
12.056,0.73021,0.33529,0.52539,0.44531,0.53529
12.064,0.71652,0.348,0.51953,0.45508,0.53529
12.072,0.70283,0.36755,0.52539,0.45508,0.52549
12.08,0.69013,0.39394,0.55078,0.44531,0.51569
12.088,0.6784,0.4262,0.58008,0.44531,0.49412
12.096,0.66764,0.46334,0.5957,0.43945,0.48431
12.104,0.65885,0.50342,0.62891,0.41016,0.46471
12.112,0.64907,0.54252,0.66406,0.39062,0.46078
12.12,0.64125,0.57967,0.69531,0.38086,0.43529
12.128,0.63245,0.6129,0.70508,0.38477,0.43922
12.136,0.62463,0.63832,0.66992,0.39062,0.44902
12.144,0.61681,0.65689,0.58398,0.42578,0.5
12.152,0.60997,0.67253,0.51562,0.44531,0.53529
12.16,0.60313,0.68524,0.48047,0.46094,0.5549
12.168,0.59629,0.69306,0.46484,0.46484,0.56471
12.176,0.58944,0.69599,0.46484,0.4707,0.57059
12.184,0.5826,0.69501,0.45508,0.4707,0.56078
12.192,0.57576,0.6911,0.45508,0.4707,0.56471
12.2,0.56989,0.68622,0.45508,0.4707,0.57059
12.208,0.56305,0.67937,0.4043,0.50977,0.57451
12.216,0.55621,0.67155,0.55078,0.4707,0.48431
12.224,0.54839,0.66471,1.0195,0.29102,0.23333
12.232,0.54057,0.65885,1.5,0.044922,-0.015686
12.24,0.53275,0.65298,1.5,-0.064453,-0.096078
12.248,0.5259,0.64809,1.0801,0.23047,0.29412
12.256,0.51808,0.64418,0.39062,0.48438,0.60588
12.264,0.51124,0.6393,0.24023,0.56445,0.65098
12.272,0.50342,0.63441,0.32422,0.54492,0.5902
12.28,0.4956,0.62952,0.375,0.52539,0.58431
12.288,0.48778,0.62366,0.39062,0.5,0.58431
12.296,0.47898,0.61584,0.39062,0.50586,0.59608
12.304,0.47116,0.60802,0.39453,0.5,0.58431
12.312,0.46334,0.59922,0.4043,0.49414,0.5902
12.32,0.45552,0.58944,0.41016,0.49023,0.58039
12.328,0.4477,0.57967,0.41016,0.49023,0.58431
12.336,0.44086,0.57087,0.42578,0.48438,0.57451
12.344,0.43402,0.56305,0.42969,0.49023,0.58039
12.352,0.42815,0.55523,0.43555,0.48047,0.57059
12.36,0.42229,0.54741,0.44531,0.48438,0.57059
12.368,0.41642,0.53959,0.45508,0.47461,0.5549
12.376,0.41153,0.53372,0.46484,0.4707,0.5549
12.384,0.40567,0.52786,0.48047,0.45508,0.55098
12.392,0.40078,0.52297,0.49023,0.44922,0.53529
12.4,0.39492,0.51906,0.50586,0.44531,0.52549
12.408,0.39003,0.51613,0.52539,0.44531,0.51569
12.416,0.38514,0.51222,0.54492,0.43555,0.50588
12.424,0.38123,0.50929,0.56055,0.42969,0.5
12.432,0.37634,0.50635,0.57422,0.42578,0.4902
12.44,0.37146,0.50342,0.58984,0.42578,0.48431
12.448,0.36755,0.49951,0.5957,0.41992,0.48431
12.456,0.36266,0.4956,0.59961,0.41992,0.48039
12.464,0.35777,0.49071,0.60547,0.41992,0.48431
12.472,0.35191,0.48583,0.59961,0.41992,0.47451
12.48,0.34604,0.47898,0.58984,0.42578,0.48431
12.488,0.34018,0.47312,0.58008,0.42969,0.48431
12.496,0.33431,0.46628,0.57031,0.43945,0.49412
12.504,0.32845,0.45846,0.55078,0.44531,0.5
12.512,0.32356,0.45161,0.53516,0.44922,0.51961
12.52,0.31769,0.44379,0.5293,0.45508,0.51569
12.528,0.31183,0.43695,0.52539,0.46484,0.52549
12.536,0.30401,0.43109,0.51953,0.46094,0.52549
12.544,0.29717,0.42522,0.52539,0.46484,0.52941
12.552,0.28837,0.41935,0.52539,0.45508,0.51961
12.56,0.28055,0.41349,0.52539,0.46094,0.52549
12.568,0.27175,0.4086,0.52539,0.44922,0.51569
12.576,0.26393,0.40274,0.52539,0.45508,0.51961
12.584,0.25415,0.39785,0.53516,0.44922,0.5098
12.592,0.24536,0.39296,0.53906,0.44922,0.5098
12.6,0.2346,0.38807,0.54492,0.44922,0.5098
12.608,0.22385,0.38319,0.55078,0.44531,0.50588
12.616,0.21212,0.3783,0.55078,0.44922,0.5098
12.624,0.19941,0.37439,0.55078,0.44922,0.50588
12.632,0.18768,0.37146,0.55078,0.45508,0.51569
12.64,0.17498,0.36852,0.55078,0.44922,0.5098
12.648,0.16325,0.36559,0.55078,0.45508,0.5098
12.656,0.15152,0.36168,0.54492,0.44922,0.5098
12.664,0.14174,0.35777,0.53906,0.46094,0.51569
12.672,0.13196,0.35288,0.53906,0.46094,0.51569
12.68,0.12414,0.348,0.53516,0.46484,0.52549
12.688,0.11632,0.34311,0.5293,0.46094,0.51961
12.696,0.10948,0.3392,0.52539,0.4707,0.53529
12.704,0.10264,0.33822,0.52539,0.4707,0.53529
12.712,0.097752,0.34213,0.52539,0.4707,0.53529
12.72,0.092864,0.35191,0.51953,0.46484,0.53529
12.728,0.088954,0.36657,0.50977,0.4707,0.5451
12.736,0.086022,0.38612,0.51562,0.4707,0.53529
12.744,0.084066,0.41349,0.51562,0.4707,0.53529
12.752,0.082111,0.4477,0.52539,0.46484,0.52941
12.76,0.082111,0.4868,0.55078,0.45508,0.51961
12.768,0.083089,0.52786,0.58008,0.44922,0.5
12.776,0.084066,0.56891,0.5957,0.44531,0.48431
12.784,0.086022,0.60704,0.64062,0.41016,0.47059
12.792,0.089932,0.64027,0.66406,0.39453,0.46078
12.8,0.092864,0.66862,0.69531,0.39453,0.43922
12.808,0.096774,0.69013,0.68945,0.39453,0.43529
12.816,0.10068,0.70674,0.64062,0.41602,0.47451
12.824,0.10362,0.71652,0.55078,0.44922,0.52549
12.832,0.10753,0.72141,0.5,0.4707,0.55098
12.84,0.11046,0.72239,0.48047,0.4707,0.5549
12.848,0.11339,0.71945,0.4707,0.48438,0.56471
12.856,0.11632,0.71554,0.46484,0.48438,0.56078
12.864,0.11828,0.7087,0.46094,0.49023,0.57451
12.872,0.12023,0.70186,0.46484,0.48438,0.56471
12.88,0.12219,0.69501,0.44531,0.5,0.57059
12.888,0.12317,0.68719,0.41992,0.5293,0.56078
12.896,0.12414,0.68133,0.68555,0.43945,0.41569
12.904,0.12512,0.67546,1.2344,0.21484,0.13922
12.912,0.1261,0.6696,1.5,-0.0039062,-0.05098
12.92,0.1261,0.66471,1.5,-0.054688,-0.082353
12.928,0.12708,0.65982,0.75,0.36523,0.4549
12.936,0.12708,0.65494,0.28516,0.53906,0.64118
12.944,0.12708,0.64907,0.24023,0.57422,0.6451
12.952,0.12708,0.64223,0.3457,0.54492,0.58039
12.96,0.12805,0.63539,0.38086,0.51953,0.5902
12.968,0.12805,0.62659,0.39062,0.51562,0.5902
12.976,0.12805,0.61681,0.39453,0.50977,0.59608
12.984,0.12805,0.60704,0.4043,0.50586,0.58431
12.992,0.12805,0.59726,0.41016,0.5,0.58039
13,0.12903,0.58651,0.41016,0.50586,0.5902
13.008,0.13001,0.57674,0.41992,0.49414,0.58039
13.016,0.13196,0.56794,0.42969,0.50586,0.58039
13.024,0.13294,0.56012,0.43555,0.49414,0.57451
13.032,0.1349,0.5523,0.43945,0.48438,0.58039
13.04,0.13783,0.54643,0.45508,0.48438,0.56078
13.048,0.13978,0.54057,0.46484,0.47461,0.5549
13.056,0.14174,0.53568,0.47461,0.4707,0.55098
13.064,0.1437,0.53079,0.48047,0.4707,0.5549
13.072,0.14565,0.52688,0.5,0.46094,0.53529
13.08,0.14761,0.52297,0.51562,0.44922,0.53529
13.088,0.14956,0.51906,0.5293,0.44531,0.51569
13.096,0.15249,0.51515,0.55078,0.43945,0.5098
13.104,0.15543,0.51124,0.57031,0.42969,0.5
13.112,0.15836,0.50635,0.58398,0.42578,0.49412
13.12,0.16129,0.50147,0.5957,0.41992,0.48431
13.128,0.16422,0.49658,0.5957,0.41992,0.48431
13.136,0.16716,0.49169,0.60547,0.41992,0.48039
13.144,0.16911,0.4868,0.60547,0.42578,0.48431
13.152,0.17107,0.47996,0.59961,0.42578,0.48431
13.16,0.17204,0.47312,0.58984,0.43555,0.4902
13.168,0.17302,0.46628,0.58008,0.43555,0.49412
13.176,0.174,0.45943,0.56055,0.44531,0.5098
13.184,0.174,0.45259,0.54492,0.45508,0.51569
13.192,0.174,0.44477,0.5293,0.45508,0.52549
13.2,0.17498,0.43793,0.52539,0.46484,0.52941
13.208,0.174,0.43109,0.51562,0.4707,0.53529
13.216,0.17302,0.42424,0.51953,0.4707,0.53922
13.224,0.17204,0.41838,0.51953,0.4707,0.53529
13.232,0.17009,0.41251,0.51953,0.46484,0.53922
13.24,0.16716,0.4086,0.51953,0.46094,0.53529
13.248,0.1652,0.40371,0.51953,0.45508,0.53529
13.256,0.16129,0.39785,0.52539,0.45508,0.52941
13.264,0.15738,0.39296,0.52539,0.46094,0.53529
13.272,0.15249,0.38807,0.5293,0.44922,0.52549
13.28,0.14761,0.38221,0.53516,0.45508,0.52941
13.288,0.14174,0.3783,0.53516,0.44531,0.52549
13.296,0.13685,0.37341,0.53516,0.44531,0.52941
13.304,0.13196,0.3695,0.53906,0.44531,0.51961
13.312,0.12708,0.36559,0.53516,0.45508,0.53529
13.32,0.12317,0.36168,0.53516,0.44922,0.52549
13.328,0.11926,0.35875,0.53516,0.46094,0.52941
13.336,0.11535,0.35679,0.5293,0.45508,0.52941
13.344,0.11241,0.35288,0.52539,0.46094,0.53529
13.352,0.11046,0.34897,0.52539,0.46094,0.53529
13.36,0.1085,0.34409,0.52539,0.4707,0.53922
13.368,0.10655,0.34018,0.51953,0.46094,0.53529
13.376,0.10557,0.33724,0.51562,0.46484,0.53922
13.384,0.10557,0.33627,0.51562,0.4707,0.5451
13.392,0.10557,0.34115,0.50586,0.46484,0.53922
13.4,0.10655,0.35191,0.50977,0.4707,0.5451
13.408,0.10753,0.37048,0.51562,0.4707,0.53529
13.416,0.11046,0.39687,0.50977,0.4707,0.5451
13.424,0.11339,0.43011,0.51562,0.4707,0.53922
13.432,0.11828,0.46334,0.55078,0.45508,0.52549
13.44,0.12317,0.49658,0.57422,0.45508,0.50588
13.448,0.12903,0.5347,0.5957,0.44531,0.49412
13.456,0.1349,0.57478,0.64062,0.41016,0.48039
13.464,0.13978,0.6129,0.66406,0.40039,0.46471
13.472,0.14565,0.64809,0.69531,0.40039,0.43922
13.48,0.15054,0.67742,0.67969,0.4043,0.4549
13.488,0.1564,0.70088,0.625,0.42578,0.48039
13.496,0.16129,0.7175,0.53906,0.46094,0.53529
13.504,0.16618,0.72825,0.49414,0.4707,0.5549
13.512,0.17107,0.73412,0.4707,0.48438,0.57059
13.52,0.17693,0.73509,0.46484,0.48438,0.57059
13.528,0.18084,0.73216,0.46094,0.49023,0.58039
13.536,0.18475,0.72727,0.46094,0.49023,0.57059
13.544,0.18866,0.72043,0.46484,0.49023,0.57451
13.552,0.19159,0.71163,0.43945,0.50586,0.56471
13.56,0.19355,0.70381,0.41016,0.53516,0.57451
13.568,0.19648,0.69501,0.70508,0.43555,0.4
13.576,0.19746,0.68719,1.2793,0.20508,0.13333
13.584,0.19844,0.67937,1.5,-0.0039062,-0.060784
13.592,0.19941,0.67253,1.5,-0.039062,-0.076471
13.6,0.20039,0.66569,0.68945,0.39062,0.4902
13.608,0.20039,0.65982,0.26562,0.55469,0.66078
13.616,0.20039,0.65298,0.23047,0.58398,0.62941
13.624,0.20039,0.64516,0.33984,0.55469,0.6
13.632,0.20039,0.63734,0.38086,0.5293,0.59608
13.64,0.20137,0.62952,0.39062,0.52539,0.5902
13.648,0.20137,0.61975,0.39062,0.51562,0.60588
13.656,0.20235,0.60997,0.40039,0.51562,0.59608
13.664,0.20235,0.59922,0.41016,0.51953,0.5902
13.672,0.20332,0.58944,0.41016,0.50977,0.58431
13.68,0.20332,0.57869,0.41602,0.50977,0.58431
13.688,0.2043,0.56891,0.42578,0.50586,0.58039
13.696,0.20626,0.55914,0.42969,0.51562,0.58431
13.704,0.20723,0.55034,0.43555,0.50586,0.58039
13.712,0.20919,0.5435,0.44531,0.50586,0.58039
13.72,0.21114,0.53666,0.45508,0.49414,0.56078
13.728,0.21408,0.53079,0.46484,0.49414,0.56078
13.736,0.21701,0.5259,0.47461,0.48438,0.55098
13.744,0.21994,0.52199,0.49023,0.48047,0.55098
13.752,0.22287,0.51711,0.50586,0.46484,0.53529
13.76,0.22581,0.5132,0.52539,0.46484,0.53529
13.768,0.22776,0.50831,0.53906,0.44922,0.51569
13.776,0.23069,0.50342,0.55469,0.44922,0.5098
13.784,0.23363,0.49853,0.57422,0.43945,0.50588
13.792,0.23656,0.49267,0.58008,0.43945,0.5
13.8,0.23851,0.4868,0.58984,0.43555,0.50588
13.808,0.24145,0.47996,0.58984,0.43555,0.5
13.816,0.2434,0.47214,0.58984,0.43555,0.50588
13.824,0.24536,0.4653,0.5957,0.43945,0.49412
13.832,0.24731,0.45846,0.58008,0.44531,0.50588
13.84,0.24829,0.43891,0.57031,0.44922,0.5
13.848,0.24927,0.41153,0.55078,0.46484,0.51569
13.856,0.24927,0.39296,0.5293,0.46484,0.52549
13.864,0.24927,0.3783,0.52539,0.4707,0.53529
13.872,0.24927,0.36559,0.51562,0.47461,0.53529
13.88,0.24731,0.35484,0.50977,0.47461,0.5451
13.888,0.24633,0.34409,0.50586,0.47461,0.53529
13.896,0.24242,0.33431,0.5,0.47461,0.55098
13.904,0.23949,0.32454,0.51562,0.4707,0.53529
13.912,0.23558,0.31574,0.51562,0.4707,0.53922
13.92,0.23167,0.30694,0.51562,0.4707,0.53529
13.928,0.22581,0.3001,0.51562,0.4707,0.53922
13.936,0.22092,0.29423,0.52539,0.46484,0.52941
13.944,0.21603,0.28837,0.52539,0.4707,0.53529
13.952,0.21114,0.28152,0.5293,0.46484,0.52549
13.96,0.20626,0.27566,0.53516,0.4707,0.52941
13.968,0.20137,0.26882,0.53516,0.4707,0.52941
13.976,0.19746,0.26295,0.53516,0.4707,0.52941
13.984,0.19257,0.25709,0.5293,0.46484,0.52941
13.992,0.18866,0.25122,0.52539,0.4707,0.53529
14,0.18475,0.24536,0.52539,0.46484,0.53529
14.008,0.18182,0.23851,0.51953,0.46484,0.53529
14.016,0.17889,0.23265,0.51953,0.4707,0.53922
14.024,0.17693,0.22581,0.51562,0.4707,0.5451
14.032,0.17595,0.21994,0.51562,0.4707,0.55098
14.04,0.17595,0.21603,0.50586,0.4707,0.5451
14.048,0.17595,0.21212,0.5,0.4707,0.5549
14.056,0.17693,0.21017,0.5,0.4707,0.5451
14.064,0.17889,0.2131,0.5,0.47461,0.5549
14.072,0.18182,0.22287,0.5,0.47461,0.5549
14.08,0.18573,0.24145,0.5,0.47461,0.56078
14.088,0.19062,0.26686,0.5,0.47461,0.5549
14.096,0.1955,0.30108,0.50586,0.48047,0.55098
14.104,0.20039,0.34018,0.54492,0.4707,0.52549
14.112,0.20626,0.38319,0.56445,0.4707,0.51569
14.12,0.21212,0.42717,0.58398,0.45508,0.50588
14.128,0.21896,0.46334,0.61914,0.41992,0.5
14.136,0.22581,0.49462,0.65039,0.41992,0.48039
14.144,0.23265,0.52493,0.67578,0.41992,0.47059
14.152,0.23949,0.55132,0.66406,0.41602,0.47059
14.16,0.24731,0.57185,0.60547,0.43945,0.50588
14.168,0.25415,0.58651,0.52539,0.4707,0.55098
14.176,0.261,0.59433,0.48047,0.49023,0.58039
14.184,0.26784,0.59726,0.45508,0.49023,0.58431
14.192,0.2737,0.59531,0.44922,0.49414,0.6
14.2,0.28055,0.58944,0.44531,0.49414,0.6
14.208,0.28739,0.58162,0.44922,0.50586,0.59608
14.216,0.29423,0.57185,0.44531,0.49414,0.60588
14.224,0.30108,0.56207,0.41016,0.51953,0.59608
14.232,0.30694,0.5523,0.38477,0.53906,0.6098
14.24,0.31281,0.54448,0.73047,0.42578,0.4098
14.248,0.31867,0.53568,1.3438,0.17969,0.12353
14.256,0.32454,0.52786,1.5,-0.029297,-0.066667
14.264,0.32942,0.52004,1.5,-0.039062,0.078431
14.272,0.33529,0.51222,0.65039,0.41016,0.52549
14.28,0.3392,0.50538,0.25,0.57031,0.6902
14.288,0.34409,0.49756,0.2207,0.58398,0.66471
14.296,0.34897,0.49071,0.32422,0.56055,0.62549
14.304,0.35386,0.48192,0.35938,0.53516,0.61961
14.312,0.35973,0.47312,0.37109,0.5293,0.62549
14.32,0.36461,0.46334,0.38086,0.51953,0.62549
14.328,0.37048,0.45357,0.38477,0.51953,0.62549
14.336,0.37537,0.44477,0.39453,0.51953,0.61569
14.344,0.38123,0.43597,0.40039,0.52539,0.61961
14.352,0.38612,0.4262,0.41016,0.51953,0.6098
14.36,0.39296,0.41642,0.41016,0.51953,0.61961
14.368,0.3998,0.40762,0.42578,0.51562,0.60588
14.376,0.40762,0.40078,0.42969,0.50977,0.60588
14.384,0.41544,0.39394,0.43555,0.50977,0.59608
14.392,0.42424,0.38807,0.43945,0.50586,0.6
14.4,0.43304,0.38416,0.45508,0.49414,0.58039
14.408,0.44282,0.38025,0.4707,0.49023,0.58039
14.416,0.45259,0.37634,0.48438,0.48438,0.57059
14.424,0.46139,0.37341,0.49414,0.47461,0.57059
14.432,0.47019,0.37146,0.50977,0.46484,0.5549
14.44,0.47898,0.36852,0.52539,0.46094,0.55098
14.448,0.48778,0.36559,0.54492,0.45508,0.53529
14.456,0.49658,0.36168,0.56445,0.44922,0.52941
14.464,0.50538,0.35679,0.57031,0.44531,0.53529
14.472,0.51515,0.35191,0.57422,0.44531,0.52549
14.48,0.52493,0.34604,0.58008,0.44922,0.53529
14.488,0.53372,0.3392,0.58008,0.44922,0.52941
14.496,0.54252,0.33236,0.57422,0.46094,0.53529
14.504,0.54936,0.32551,0.57031,0.45508,0.53529
14.512,0.55718,0.31867,0.55469,0.4707,0.55098
14.52,0.565,0.31183,0.54492,0.4707,0.55098
14.528,0.5738,0.30694,0.52539,0.48047,0.56471
14.536,0.58162,0.30205,0.51953,0.48047,0.56078
14.544,0.58944,0.29619,0.50586,0.49023,0.57451
14.552,0.59629,0.28935,0.50977,0.48438,0.56471
14.56,0.60313,0.2825,0.5,0.49023,0.57451
14.568,0.60802,0.27664,0.50586,0.48438,0.58039
14.576,0.61388,0.27077,0.50977,0.48438,0.57451
14.584,0.61779,0.26491,0.5,0.49023,0.58039
14.592,0.6217,0.26002,0.50977,0.48438,0.57059
14.6,0.62463,0.25513,0.51562,0.48438,0.57451
14.608,0.62757,0.25024,0.51562,0.49023,0.56471
14.616,0.62854,0.24633,0.51953,0.48047,0.57059
14.624,0.6305,0.2434,0.51953,0.48438,0.56078
14.632,0.6305,0.24145,0.52539,0.48047,0.57059
14.64,0.63148,0.23851,0.52539,0.48438,0.5549
14.648,0.63148,0.2346,0.52539,0.48438,0.56471
14.656,0.63148,0.23069,0.5293,0.48438,0.5549
14.664,0.63148,0.22678,0.53516,0.49023,0.5549
14.672,0.63148,0.22385,0.53516,0.48438,0.5549
14.68,0.63245,0.21994,0.52539,0.49023,0.56078
14.688,0.63343,0.21603,0.52539,0.48438,0.5549
14.696,0.63441,0.21212,0.52539,0.49414,0.56471
14.704,0.63636,0.20821,0.52539,0.49414,0.56078
14.712,0.64027,0.2043,0.52539,0.49023,0.56471
14.72,0.64321,0.20137,0.51953,0.48438,0.56078
14.728,0.64809,0.20137,0.51562,0.49023,0.57059
14.736,0.65298,0.20528,0.50586,0.49023,0.57059
14.744,0.65787,0.21505,0.5,0.49414,0.57451
14.752,0.66276,0.23069,0.52539,0.49023,0.5549
14.76,0.66862,0.25415,0.55469,0.48438,0.53922
14.768,0.67449,0.28446,0.57422,0.47461,0.51961
14.776,0.68231,0.32063,0.59961,0.46484,0.51569
14.784,0.69013,0.35973,0.64453,0.42578,0.5
14.792,0.6999,0.39883,0.67969,0.42578,0.48039
14.8,0.70968,0.435,0.69922,0.41992,0.46471
14.808,0.7175,0.46823,0.67578,0.42578,0.48431
14.816,0.7263,0.49658,0.58984,0.44922,0.52941
14.824,0.73412,0.51711,0.50977,0.48438,0.57451
14.832,0.74194,0.53079,0.48047,0.49414,0.58431
14.84,0.75073,0.54057,0.46094,0.50586,0.6
14.848,0.75855,0.54741,0.45508,0.50977,0.60588
14.856,0.76735,0.54936,0.44922,0.50586,0.60588
14.864,0.77615,0.54741,0.44531,0.50977,0.6098
14.872,0.78495,0.54252,0.45508,0.51562,0.6
14.88,0.79374,0.5347,0.4043,0.53516,0.61569
14.888,0.80156,0.52688,0.40039,0.55078,0.56471
14.896,0.80938,0.51808,0.85547,0.38477,0.34902
14.904,0.81525,0.50929,1.5,0.125,0.052941
14.912,0.82209,0.50049,1.5,-0.058594,-0.10588
14.92,0.82698,0.49365,1.4297,0.13086,0.13922
14.928,0.83187,0.4868,0.56055,0.44922,0.57059
14.936,0.83675,0.48192,0.24609,0.58008,0.68627
14.944,0.84164,0.47605,0.23438,0.59961,0.6549
14.952,0.84653,0.47116,0.3457,0.56055,0.62549
14.96,0.85044,0.46628,0.36523,0.54492,0.62941
14.968,0.85435,0.46139,0.38477,0.53906,0.62549
14.976,0.85826,0.45552,0.38086,0.53906,0.62941
14.984,0.86119,0.44966,0.38477,0.53516,0.62549
14.992,0.8651,0.44282,0.39453,0.5293,0.61961
15,0.86901,0.435,0.4043,0.53516,0.62549
15.008,0.8739,0.42717,0.41016,0.5293,0.61569
15.016,0.87879,0.42033,0.41016,0.52539,0.62549
15.024,0.88465,0.41447,0.41992,0.51953,0.61569
15.032,0.89052,0.40958,0.43555,0.51562,0.60588
15.04,0.89638,0.40469,0.43945,0.51562,0.60588
15.048,0.90323,0.40078,0.45508,0.50586,0.6
15.056,0.91007,0.39687,0.46094,0.49414,0.5902
15.064,0.91593,0.39394,0.47461,0.49023,0.58039
15.072,0.92278,0.39101,0.49023,0.49023,0.57451
15.08,0.92962,0.38905,0.50586,0.48047,0.56471
15.088,0.93548,0.38807,0.52539,0.4707,0.5549
15.096,0.94233,0.3871,0.54492,0.4707,0.55098
15.104,0.95015,0.38514,0.56055,0.46484,0.53922
15.112,0.95699,0.38416,0.57422,0.46094,0.53922
15.12,0.96383,0.38221,0.58398,0.44922,0.53529
15.128,0.97067,0.38025,0.58984,0.45508,0.53529
15.136,0.97752,0.3783,0.58984,0.44922,0.52549
15.144,0.98436,0.37439,0.58398,0.46484,0.53529
15.152,0.9912,0.37048,0.58008,0.46484,0.53529
15.16,0.99609,0.36559,0.57422,0.4707,0.53922
15.168,1,0.3607,0.56055,0.47461,0.53922
15.176,1,0.35582,0.54492,0.48047,0.5549
15.184,1,0.34995,0.53516,0.48438,0.5549
15.192,1,0.34409,0.52539,0.48047,0.56471
15.2,1,0.33822,0.51562,0.49023,0.57059
15.208,1,0.33138,0.50977,0.49023,0.58039
15.216,1,0.32551,0.51953,0.49023,0.57059
15.224,1,0.32063,0.51562,0.49023,0.57451
15.232,1,0.31672,0.51953,0.48438,0.57059
15.24,1,0.31183,0.52539,0.48438,0.56471
15.248,1,0.30694,0.52539,0.48047,0.56078
15.256,1,0.30205,0.52539,0.47461,0.5549
15.264,1,0.29814,0.52539,0.48047,0.56078
15.272,1,0.29326,0.53516,0.47461,0.55098
15.28,1,0.28837,0.53906,0.48047,0.5549
15.288,1,0.28446,0.55078,0.4707,0.5451
15.296,1,0.28055,0.55078,0.4707,0.55098
15.304,1,0.27761,0.55078,0.4707,0.53922
15.312,1,0.2737,0.55078,0.4707,0.5451
15.32,1,0.27077,0.55078,0.4707,0.5451
15.328,1,0.26784,0.55078,0.47461,0.55098
15.336,1,0.26686,0.55078,0.48047,0.55098
15.344,1,0.26393,0.54492,0.49023,0.5549
15.352,1,0.26002,0.54492,0.48438,0.5549
15.36,1,0.25611,0.53906,0.49023,0.5549
15.368,1,0.2522,0.53906,0.49023,0.5549
15.376,1,0.24927,0.53516,0.49023,0.56078
15.384,1,0.24927,0.53906,0.49023,0.5549
15.392,1,0.25415,0.55078,0.48438,0.5451
15.4,1,0.26491,0.58984,0.48047,0.51569
15.408,1,0.28348,0.60938,0.47461,0.5098
15.416,1,0.3089,0.62891,0.46094,0.49412
15.424,1,0.33529,0.66992,0.43555,0.48431
15.432,1,0.36266,0.70898,0.41992,0.4549
15.44,1,0.39589,0.71484,0.41992,0.44902
15.448,1,0.43109,0.68555,0.42969,0.47059
15.456,1,0.46432,0.5957,0.46484,0.51961
15.464,1,0.49365,0.52539,0.49023,0.5549
15.472,1,0.51906,0.49414,0.49023,0.57451
15.48,1,0.53763,0.47461,0.49023,0.5902
15.488,1,0.55132,0.4707,0.49414,0.58039
15.496,1,0.55914,0.46484,0.49414,0.58431
15.504,1,0.56207,0.4707,0.49414,0.58039
15.512,1,0.56012,0.46484,0.50586,0.58431
15.52,1,0.55621,0.41992,0.52539,0.5902
15.528,1,0.55034,0.41602,0.53906,0.55098
15.536,1,0.5435,0.88477,0.37109,0.32941
15.544,1,0.53568,1.5,0.11133,0.033333
15.552,1,0.52688,1.5,-0.074219,-0.12157
15.56,1,0.51906,1.4043,0.13086,0.1549
15.568,1,0.51222,0.5293,0.44531,0.56471
15.576,1,0.50538,0.25,0.57422,0.68039
15.584,1,0.49951,0.29492,0.58398,0.63529
15.592,1,0.49462,0.35938,0.55078,0.6098
15.6,1,0.49071,0.38477,0.52539,0.61569
15.608,1,0.48583,0.39062,0.52539,0.6098
15.616,1,0.48192,0.40039,0.51562,0.61961
15.624,1,0.47703,0.4043,0.51953,0.6098
15.632,1,0.47214,0.41016,0.50977,0.60588
15.64,1,0.46628,0.41992,0.50977,0.59608
15.648,1,0.45943,0.42578,0.50586,0.6
15.656,1,0.45259,0.42969,0.5,0.58431
15.664,1,0.44477,0.43555,0.50586,0.5902
15.672,1,0.43793,0.44531,0.49023,0.58039
15.68,1,0.43109,0.44922,0.48438,0.57059
15.688,1,0.42424,0.46484,0.48047,0.56078
15.696,1,0.41838,0.47461,0.4707,0.5549
15.704,1,0.41447,0.48438,0.46484,0.5451
15.712,1,0.41056,0.5,0.46094,0.53529
15.72,1,0.40762,0.52539,0.44531,0.52549
15.728,1,0.40567,0.53516,0.44531,0.51961
15.736,1,0.40469,0.55078,0.42969,0.5098
15.744,1,0.40274,0.56445,0.42578,0.5098
15.752,0.99609,0.40176,0.58008,0.41992,0.5
15.76,0.99218,0.40078,0.58984,0.41992,0.50588
15.768,0.98631,0.39883,0.5957,0.41992,0.5
15.776,0.98045,0.39687,0.5957,0.42969,0.5098
15.784,0.97361,0.39492,0.5957,0.42578,0.50588
15.792,0.96774,0.39198,0.58398,0.43945,0.5098
15.8,0.9609,0.38905,0.57422,0.44531,0.51961
15.808,0.95308,0.38514,0.56445,0.45508,0.53529
15.816,0.94428,0.38025,0.55078,0.46094,0.53529
15.824,0.93646,0.37537,0.53516,0.46484,0.55098
15.832,0.92571,0.37146,0.52539,0.4707,0.5549
15.84,0.91496,0.36755,0.51953,0.4707,0.5549
15.848,0.90323,0.36168,0.51562,0.4707,0.56471
15.856,0.89052,0.35679,0.51953,0.4707,0.5549
15.864,0.87879,0.35093,0.51562,0.4707,0.56471
15.872,0.86608,0.34604,0.52539,0.47461,0.5549
15.88,0.85337,0.34018,0.51953,0.4707,0.5549
15.888,0.84164,0.35582,0.52539,0.4707,0.55098
15.896,0.82698,0.38123,0.5293,0.46484,0.5549
15.904,0.81232,0.39198,0.53906,0.46094,0.5451
15.912,0.7957,0.39492,0.53906,0.46484,0.55098
15.92,0.78006,0.39394,0.55078,0.46484,0.5451
15.928,0.76442,0.39198,0.54492,0.4707,0.5451
15.936,0.74878,0.39003,0.54492,0.46484,0.53529
15.944,0.73314,0.38612,0.54492,0.46484,0.53922
15.952,0.7175,0.38319,0.55078,0.46094,0.53529
15.96,0.70186,0.38025,0.54492,0.46484,0.53922
15.968,0.68622,0.37634,0.54492,0.46094,0.53529
15.976,0.6696,0.37341,0.53906,0.46484,0.55098
15.984,0.65298,0.36852,0.53906,0.46484,0.5451
15.992,0.63734,0.36364,0.5293,0.4707,0.55098
16,0.6217,0.35875,0.53516,0.46094,0.5451
16.008,0.60704,0.35386,0.52539,0.4707,0.5549
16.016,0.59238,0.35191,0.52539,0.46484,0.55098
16.024,0.57967,0.35386,0.51953,0.46484,0.5549
16.032,0.56696,0.3607,0.52539,0.4707,0.56078
16.04,0.55621,0.37439,0.53516,0.4707,0.5451
16.048,0.54448,0.39687,0.57422,0.45508,0.51961
16.056,0.5347,0.42815,0.5957,0.45508,0.5
16.064,0.5259,0.46628,0.61914,0.43555,0.4902
16.072,0.51711,0.50733,0.6543,0.39453,0.48039
16.08,0.50831,0.55034,0.68555,0.39453,0.46471
16.088,0.50147,0.5914,0.69922,0.39062,0.44902
16.096,0.4956,0.62854,0.67969,0.39453,0.46078
16.104,0.48974,0.65885,0.60938,0.42578,0.5
16.112,0.48485,0.68328,0.52539,0.45508,0.55098
16.12,0.47996,0.6999,0.49023,0.4707,0.56471
16.128,0.47507,0.70968,0.47461,0.47461,0.58039
16.136,0.47019,0.71359,0.46094,0.48047,0.58039
16.144,0.46628,0.71359,0.45508,0.48047,0.58431
16.152,0.46139,0.70968,0.46094,0.47461,0.58039
16.16,0.45552,0.70283,0.45508,0.48047,0.58431
16.168,0.45064,0.69404,0.42578,0.5,0.58039
16.176,0.44477,0.68426,0.41016,0.52539,0.5549
16.184,0.43988,0.67449,0.80469,0.38477,0.35882
16.192,0.435,0.66569,1.3945,0.15039,0.094118
16.2,0.43011,0.65689,1.5,-0.054688,-0.082353
16.208,0.42522,0.65005,1.4531,0.095703,0.12353
16.216,0.41935,0.64418,0.58008,0.41602,0.5451
16.224,0.41349,0.64027,0.24023,0.56055,0.67647
16.232,0.40665,0.63636,0.2793,0.57422,0.62941
16.24,0.3998,0.63148,0.35547,0.53906,0.6
16.248,0.39394,0.62757,0.38477,0.51562,0.60588
16.256,0.38807,0.62268,0.39453,0.51562,0.6
16.264,0.38319,0.61681,0.39453,0.50977,0.60588
16.272,0.37732,0.60997,0.4043,0.50586,0.59608
16.28,0.37146,0.60215,0.41016,0.50977,0.6
16.288,0.36559,0.59238,0.41992,0.49414,0.58039
16.296,0.35973,0.5826,0.42578,0.49414,0.58431
16.304,0.35288,0.57283,0.42969,0.49023,0.58039
16.312,0.348,0.56305,0.43555,0.49414,0.57451
16.32,0.34213,0.55425,0.44531,0.48438,0.56471
16.328,0.33724,0.54643,0.45508,0.48047,0.57059
16.336,0.33236,0.53959,0.46484,0.4707,0.5549
16.344,0.32942,0.53372,0.47461,0.4707,0.55098
16.352,0.32551,0.52884,0.49023,0.46094,0.53529
16.36,0.32258,0.52493,0.5,0.45508,0.53922
16.368,0.31965,0.52199,0.51953,0.44531,0.51961
16.376,0.31672,0.51906,0.53516,0.43945,0.51569
16.384,0.31476,0.51613,0.55469,0.42578,0.5
16.392,0.31281,0.51417,0.57031,0.41992,0.5
16.4,0.31085,0.51222,0.58008,0.41992,0.48431
16.408,0.3089,0.51026,0.58984,0.41992,0.48431
16.416,0.30694,0.50733,0.59961,0.41992,0.48431
16.424,0.30499,0.5044,0.60547,0.41992,0.48431
16.432,0.30303,0.50049,0.59961,0.41992,0.48431
16.44,0.3001,0.49658,0.58984,0.41992,0.4902
16.448,0.29814,0.49169,0.57422,0.41992,0.49412
16.456,0.29619,0.4868,0.57031,0.42969,0.4902
16.464,0.29326,0.47996,0.55469,0.43555,0.50588
16.472,0.28935,0.4741,0.53906,0.43945,0.5098
16.48,0.28543,0.46725,0.5293,0.44531,0.51961
16.488,0.27957,0.45943,0.51953,0.44531,0.52549
16.496,0.27468,0.45259,0.51562,0.44922,0.52941
16.504,0.26979,0.44477,0.51953,0.44922,0.52549
16.512,0.26393,0.43793,0.51562,0.44922,0.53529
16.52,0.25904,0.43206,0.52539,0.44531,0.52549
16.528,0.25318,0.42717,0.52539,0.44922,0.52941
16.536,0.24536,0.42229,0.5293,0.44531,0.51961
16.544,0.23851,0.41642,0.5293,0.44531,0.52549
16.552,0.22874,0.41251,0.54492,0.43945,0.5098
16.56,0.21994,0.40762,0.54492,0.43945,0.5098
16.568,0.21114,0.40371,0.55078,0.43555,0.50588
16.576,0.20235,0.3998,0.55078,0.43945,0.5098
16.584,0.19453,0.39492,0.55078,0.43555,0.5098
16.592,0.18671,0.39101,0.54492,0.43945,0.5098
16.6,0.17791,0.38612,0.55078,0.43945,0.50588
16.608,0.16911,0.38123,0.55078,0.44531,0.5098
16.616,0.16129,0.37732,0.54492,0.43945,0.5098
16.624,0.15249,0.37341,0.53906,0.44531,0.5098
16.632,0.14565,0.37048,0.53906,0.44531,0.5098
16.64,0.13783,0.36559,0.5293,0.44531,0.51569
16.648,0.13196,0.35973,0.5293,0.44531,0.51961
16.656,0.1261,0.35582,0.52539,0.44531,0.52549
16.664,0.12219,0.35288,0.52539,0.44531,0.52941
16.672,0.11828,0.35484,0.51953,0.44531,0.52549
16.68,0.11535,0.36266,0.51562,0.44922,0.53529
16.688,0.11339,0.37928,0.51953,0.44531,0.52549
16.696,0.11144,0.40371,0.51562,0.45508,0.53529
16.704,0.11046,0.435,0.53516,0.44531,0.5098
16.712,0.11046,0.47312,0.57031,0.44531,0.49412
16.72,0.10948,0.51026,0.58984,0.43945,0.48039
16.728,0.11046,0.54448,0.61523,0.42578,0.47059
16.736,0.11144,0.58162,0.6543,0.39062,0.44902
16.744,0.11241,0.61779,0.68555,0.38477,0.43529
16.752,0.11437,0.64809,0.69922,0.38086,0.41961
16.76,0.1173,0.67253,0.67969,0.39453,0.43922
16.768,0.12023,0.6911,0.5957,0.42578,0.48431
16.776,0.12317,0.70283,0.51953,0.45508,0.52941
16.784,0.12708,0.70772,0.48438,0.46484,0.53529
16.792,0.13001,0.7087,0.4707,0.4707,0.55098
16.8,0.13294,0.70479,0.46094,0.4707,0.5549
16.808,0.13587,0.69892,0.45508,0.4707,0.55098
16.816,0.13881,0.69013,0.45508,0.4707,0.5549
16.824,0.14076,0.68133,0.46094,0.4707,0.5549
16.832,0.14272,0.67253,0.41992,0.5,0.5549
16.84,0.1437,0.66373,0.41016,0.51562,0.51961
16.848,0.14565,0.65591,0.83398,0.35547,0.3098
16.856,0.14565,0.64907,1.4492,0.11133,0.039216
16.864,0.14663,0.64418,1.5,-0.064453,-0.10196
16.872,0.14761,0.64027,1.3398,0.13086,0.14314
16.88,0.14761,0.63734,0.5,0.44531,0.55098
16.888,0.14761,0.63343,0.23438,0.56445,0.64118
16.896,0.14761,0.62952,0.29492,0.57031,0.59608
16.904,0.14761,0.62463,0.35938,0.5293,0.56471
16.912,0.14761,0.61779,0.38477,0.50977,0.58039
16.92,0.14858,0.61095,0.39453,0.50586,0.57451
16.928,0.14858,0.60313,0.39453,0.5,0.58039
16.936,0.14956,0.59433,0.40039,0.49414,0.57059
16.944,0.14956,0.58456,0.4043,0.49414,0.57451
16.952,0.15054,0.57478,0.41016,0.49023,0.56471
16.96,0.15152,0.56403,0.41602,0.49023,0.57059
16.968,0.15249,0.55425,0.42969,0.48438,0.5549
16.976,0.15347,0.54545,0.43555,0.48438,0.5549
16.984,0.15543,0.53666,0.44922,0.48047,0.55098
16.992,0.15738,0.52981,0.44922,0.48047,0.5549
17,0.15934,0.52493,0.46094,0.4707,0.53922
17.008,0.16129,0.52004,0.4707,0.46484,0.53529
17.016,0.16325,0.51711,0.48438,0.44922,0.51961
17.024,0.16618,0.51417,0.5,0.44531,0.51961
17.032,0.16911,0.51222,0.51562,0.43945,0.5098
17.04,0.17107,0.51026,0.52539,0.43555,0.50588
17.048,0.174,0.50929,0.55078,0.41992,0.4902
17.056,0.17693,0.50733,0.56445,0.41992,0.48431
17.064,0.17986,0.50635,0.58008,0.41602,0.47451
17.072,0.1828,0.50342,0.58984,0.41016,0.47059
17.08,0.18475,0.49951,0.5957,0.41602,0.47451
17.088,0.18768,0.4956,0.5957,0.4043,0.47059
17.096,0.18964,0.49071,0.58984,0.41602,0.48039
17.104,0.19159,0.48485,0.58398,0.41992,0.47451
17.112,0.19257,0.47801,0.57422,0.42578,0.48431
17.12,0.19355,0.47312,0.57031,0.42969,0.48039
17.128,0.19453,0.46725,0.55078,0.43945,0.4902
17.136,0.19453,0.46139,0.53906,0.44531,0.49412
17.144,0.19453,0.45552,0.52539,0.44922,0.5098
17.152,0.1955,0.44966,0.51953,0.44922,0.5098
17.16,0.19453,0.44282,0.51562,0.45508,0.51961
17.168,0.19453,0.43695,0.52539,0.45508,0.5098
17.176,0.19257,0.43109,0.51953,0.46094,0.51961
17.184,0.19062,0.42522,0.52539,0.45508,0.5098
17.192,0.18768,0.41935,0.52539,0.45508,0.51569
17.2,0.18573,0.41447,0.52539,0.45508,0.5098
17.208,0.18182,0.40958,0.52539,0.45508,0.5098
17.216,0.17889,0.40469,0.53516,0.44531,0.5
17.224,0.17498,0.40176,0.53906,0.44531,0.50588
17.232,0.17107,0.3998,0.54492,0.44531,0.4902
17.24,0.16618,0.39589,0.54492,0.43945,0.5
17.248,0.16129,0.39198,0.54492,0.43945,0.49412
17.256,0.15543,0.38807,0.53906,0.43945,0.5
17.264,0.15054,0.38416,0.53906,0.43945,0.50588
17.272,0.14565,0.38123,0.53906,0.44531,0.5
17.28,0.14076,0.37732,0.53906,0.44531,0.5098
17.288,0.13685,0.37341,0.53516,0.44531,0.5
17.296,0.13294,0.36852,0.5293,0.44531,0.5098
17.304,0.13001,0.36364,0.52539,0.44531,0.5098
17.312,0.12708,0.35875,0.52539,0.44531,0.51569
17.32,0.12512,0.35679,0.51953,0.44531,0.5098
17.328,0.12414,0.35582,0.51562,0.44531,0.51961
17.336,0.12414,0.35777,0.51953,0.44531,0.51569
17.344,0.12512,0.36364,0.50977,0.44922,0.52549
17.352,0.12708,0.37732,0.51562,0.44922,0.51569
17.36,0.12903,0.3998,0.50586,0.45508,0.53529
17.368,0.13196,0.42913,0.5,0.44922,0.52549
17.376,0.1349,0.46628,0.50977,0.45508,0.52941
17.384,0.13783,0.50831,0.53906,0.44531,0.5098
17.392,0.14174,0.55034,0.57031,0.44531,0.4902
17.4,0.14663,0.59238,0.5957,0.42969,0.47059
17.408,0.15152,0.62854,0.61914,0.4043,0.46078
17.416,0.15738,0.65982,0.6543,0.375,0.4451
17.424,0.16325,0.68231,0.68555,0.38086,0.43529
17.432,0.16813,0.69599,0.69531,0.38086,0.41961
17.44,0.174,0.70674,0.66406,0.39062,0.44902
17.448,0.17986,0.71163,0.58398,0.42578,0.4902
17.456,0.18475,0.71261,0.50977,0.44531,0.52941
17.464,0.18964,0.7087,0.48438,0.45508,0.5451
17.472,0.19355,0.70186,0.4707,0.46094,0.53922
17.48,0.19746,0.69404,0.46484,0.46484,0.5549
17.488,0.20039,0.68426,0.46094,0.46484,0.55098
17.496,0.20235,0.67546,0.46484,0.4707,0.5549
17.504,0.20528,0.66667,0.45508,0.4707,0.55098
17.512,0.20626,0.65885,0.41016,0.50586,0.56078
17.52,0.20723,0.652,0.55078,0.46094,0.47451
17.528,0.20821,0.64712,1.0039,0.28516,0.23333
17.536,0.20821,0.64223,1.5,0.041016,-0.011765
17.544,0.20821,0.6393,1.5,-0.058594,-0.082353
17.552,0.20821,0.63539,1.0586,0.23047,0.2902
17.56,0.20821,0.63245,0.38477,0.48047,0.60588
17.568,0.20821,0.62757,0.23047,0.56055,0.64118
17.576,0.20723,0.6217,0.31445,0.54492,0.58431
17.584,0.20626,0.61486,0.37109,0.50977,0.56471
17.592,0.20626,0.60606,0.39062,0.50586,0.58039
17.6,0.20626,0.59629,0.39453,0.49414,0.57059
17.608,0.20528,0.58553,0.41016,0.49414,0.57451
17.616,0.20528,0.57576,0.41016,0.49023,0.56471
17.624,0.20528,0.56696,0.41602,0.49023,0.56078
17.632,0.20626,0.56012,0.42578,0.48438,0.5549
17.64,0.20626,0.55327,0.42578,0.48438,0.56078
17.648,0.20626,0.54643,0.43555,0.47461,0.5549
17.656,0.20821,0.54057,0.43945,0.47461,0.55098
17.664,0.20919,0.53666,0.44922,0.4707,0.5549
17.672,0.21212,0.53372,0.45508,0.4707,0.5451
17.68,0.21408,0.53177,0.46094,0.46094,0.53529
17.688,0.21701,0.52981,0.47461,0.45508,0.52549
17.696,0.21896,0.52884,0.49023,0.44531,0.51569
17.704,0.2219,0.52688,0.5,0.44531,0.5098
17.712,0.22385,0.52493,0.51953,0.43945,0.50588
17.72,0.22678,0.52297,0.53516,0.42969,0.4902
17.728,0.22874,0.52102,0.55078,0.41992,0.49412
17.736,0.23167,0.51808,0.57031,0.41992,0.48039
17.744,0.23363,0.51417,0.57422,0.41602,0.48431
17.752,0.23656,0.50929,0.58398,0.41016,0.47059
17.76,0.23851,0.50342,0.58984,0.41602,0.47451
17.768,0.24047,0.49756,0.5957,0.41016,0.47059
17.776,0.2434,0.49071,0.58984,0.41992,0.48039
17.784,0.24438,0.48485,0.58008,0.41992,0.47059
17.792,0.24536,0.47801,0.57031,0.41992,0.48431
17.8,0.24536,0.47116,0.55078,0.42969,0.48431
17.808,0.24633,0.46432,0.54492,0.43945,0.5
17.816,0.24536,0.45748,0.5293,0.44531,0.5
17.824,0.24438,0.45259,0.51953,0.44531,0.5098
17.832,0.24242,0.44868,0.51562,0.44922,0.5098
17.84,0.24145,0.44282,0.50586,0.46094,0.51961
17.848,0.23949,0.43793,0.50586,0.46484,0.52549
17.856,0.23754,0.43304,0.50586,0.46484,0.52549
17.864,0.23558,0.42815,0.51562,0.46094,0.51569
17.872,0.23363,0.42424,0.51953,0.46094,0.51569
17.88,0.22972,0.41935,0.52539,0.44531,0.50588
17.888,0.22581,0.41544,0.52539,0.44531,0.5
17.896,0.21994,0.41153,0.52539,0.44531,0.49412
17.904,0.21505,0.40762,0.53516,0.43945,0.48431
17.912,0.20919,0.40371,0.53906,0.44531,0.4902
17.92,0.20332,0.40078,0.54492,0.43945,0.48431
17.928,0.19746,0.39883,0.53906,0.44531,0.49412
17.936,0.19159,0.37341,0.53906,0.43945,0.4902
17.944,0.18768,0.33724,0.53516,0.44531,0.49412
17.952,0.1828,0.31672,0.53516,0.43945,0.4902
17.96,0.17889,0.30401,0.53516,0.44531,0.50588
17.968,0.17498,0.29521,0.5293,0.44531,0.5
17.976,0.17302,0.28739,0.52539,0.44922,0.5098
17.984,0.17009,0.27957,0.52539,0.44531,0.50588
17.992,0.16911,0.27175,0.52539,0.44531,0.5098
18,0.16716,0.26784,0.51562,0.44531,0.5098
18.008,0.16716,0.26686,0.50977,0.45508,0.51569
18.016,0.16716,0.27077,0.50977,0.44531,0.51569
18.024,0.16716,0.28152,0.50586,0.45508,0.52549
18.032,0.16813,0.30303,0.50977,0.44922,0.51569
18.04,0.17107,0.33529,0.5,0.45508,0.51961
18.048,0.174,0.3783,0.50586,0.45508,0.51569
18.056,0.17889,0.43011,0.51953,0.46094,0.5098
18.064,0.18377,0.4868,0.56055,0.44922,0.4902
18.072,0.19062,0.54545,0.58398,0.45508,0.47451
18.08,0.19648,0.60215,0.60938,0.42578,0.46471
18.088,0.2043,0.65396,0.63477,0.40039,0.46078
18.096,0.21212,0.69795,0.66992,0.39453,0.43529
18.104,0.21896,0.73314,0.68945,0.39453,0.42549
18.112,0.22678,0.75953,0.66406,0.4043,0.43922
18.12,0.23265,0.77517,0.58398,0.43555,0.48039
18.128,0.23949,0.78201,0.50977,0.45508,0.52941
18.136,0.24633,0.78495,0.47461,0.4707,0.53922
18.144,0.25318,0.78201,0.45508,0.48047,0.5549
18.152,0.26002,0.77615,0.45508,0.48047,0.5549
18.16,0.26686,0.76637,0.45508,0.48438,0.56078
18.168,0.27273,0.75562,0.45508,0.48438,0.5549
18.176,0.27859,0.74389,0.44922,0.48438,0.56471
18.184,0.28348,0.73216,0.40039,0.51953,0.56471
18.192,0.28837,0.72239,0.49023,0.52539,0.5098
18.2,0.29326,0.71359,0.92383,0.33594,0.26863
18.208,0.29814,0.70577,1.5,0.089844,0.0078431
18.216,0.30303,0.6999,1.5,-0.058594,-0.11765
18.224,0.30792,0.69404,1.2402,0.18555,0.2098
18.232,0.31281,0.68817,0.46484,0.46484,0.57059
18.24,0.31769,0.68231,0.23047,0.57422,0.65098
18.248,0.32258,0.67644,0.2793,0.58398,0.6098
18.256,0.32747,0.66862,0.3457,0.54492,0.59608
18.264,0.33236,0.65885,0.37109,0.52539,0.5902
18.272,0.33627,0.64809,0.375,0.52539,0.59608
18.28,0.34115,0.63539,0.38477,0.51953,0.6
18.288,0.34604,0.6217,0.39062,0.51562,0.58431
18.296,0.35288,0.60899,0.40039,0.51562,0.5902
18.304,0.35973,0.59531,0.4043,0.51562,0.58039
18.312,0.36657,0.58358,0.40039,0.50977,0.5902
18.32,0.37439,0.5738,0.41016,0.50586,0.58039
18.328,0.38123,0.56598,0.41016,0.50977,0.58431
18.336,0.38807,0.55914,0.42578,0.49414,0.58039
18.344,0.39492,0.5523,0.42969,0.49023,0.57451
18.352,0.40176,0.54741,0.44922,0.48438,0.56078
18.36,0.40958,0.54252,0.46094,0.48438,0.5549
18.368,0.4174,0.53959,0.47461,0.48047,0.5451
18.376,0.4262,0.53666,0.48047,0.47461,0.5451
18.384,0.435,0.53372,0.5,0.46094,0.52941
18.392,0.44379,0.53177,0.51953,0.46094,0.52549
18.4,0.45357,0.52884,0.54492,0.44531,0.5098
18.408,0.46334,0.52493,0.55469,0.44531,0.5098
18.416,0.47312,0.52102,0.57031,0.44531,0.5
18.424,0.48192,0.51711,0.57422,0.44531,0.5
18.432,0.49071,0.51124,0.58398,0.43945,0.4902
18.44,0.49853,0.5044,0.58398,0.44531,0.5
18.448,0.50635,0.49658,0.58398,0.44531,0.4902
18.456,0.51417,0.48778,0.57422,0.44922,0.5
18.464,0.52199,0.47898,0.57422,0.45508,0.50588
18.472,0.52981,0.47019,0.55078,0.46484,0.5098
18.48,0.53861,0.46041,0.55078,0.4707,0.51961
18.488,0.54545,0.45064,0.52539,0.4707,0.53529
18.496,0.55327,0.44086,0.51953,0.48047,0.53529
18.504,0.56012,0.43206,0.50977,0.48047,0.5451
18.512,0.56598,0.42326,0.50977,0.48438,0.55098
18.52,0.57185,0.41544,0.50977,0.49023,0.5451
18.528,0.57771,0.4086,0.51562,0.48438,0.5549
18.536,0.58162,0.40176,0.51953,0.48047,0.53922
18.544,0.58651,0.39492,0.51562,0.47461,0.55098
18.552,0.58944,0.38807,0.52539,0.4707,0.53529
18.56,0.59238,0.38123,0.51953,0.47461,0.5451
18.568,0.59335,0.37537,0.52539,0.4707,0.53529
18.576,0.59531,0.36852,0.52539,0.47461,0.5451
18.584,0.59531,0.36266,0.5293,0.4707,0.53529
18.592,0.59629,0.35679,0.54492,0.4707,0.53922
18.6,0.59726,0.35093,0.55078,0.4707,0.52941
18.608,0.59726,0.34409,0.53906,0.4707,0.53529
18.616,0.59824,0.3392,0.54492,0.46094,0.52941
18.624,0.59922,0.33431,0.53906,0.46484,0.53529
18.632,0.6002,0.32942,0.54492,0.46094,0.52941
18.64,0.60117,0.32356,0.53516,0.46484,0.53529
18.648,0.60215,0.31672,0.53906,0.4707,0.52941
18.656,0.60411,0.30987,0.53906,0.4707,0.53529
18.664,0.60508,0.30303,0.53516,0.4707,0.53529
18.672,0.60704,0.29619,0.51953,0.47461,0.53922
18.68,0.60997,0.29228,0.51953,0.48047,0.55098
18.688,0.6129,0.29228,0.52539,0.4707,0.53922
18.696,0.61779,0.3001,0.51953,0.47461,0.55098
18.704,0.6217,0.31769,0.51953,0.47461,0.55098
18.712,0.62854,0.348,0.51953,0.48047,0.5549
18.72,0.63441,0.38319,0.51953,0.48047,0.55098
18.728,0.64125,0.42424,0.54492,0.4707,0.52941
18.736,0.64907,0.47801,0.57422,0.4707,0.5098
18.744,0.65591,0.53959,0.5957,0.46094,0.5
18.752,0.66373,0.60411,0.625,0.43945,0.48431
18.76,0.67058,0.66667,0.66016,0.41992,0.47451
18.768,0.6784,0.72336,0.69531,0.41016,0.4451
18.776,0.68622,0.77224,0.69922,0.41602,0.4451
18.784,0.69501,0.81232,0.66992,0.41602,0.46471
18.792,0.70479,0.84164,0.58008,0.44922,0.51961
18.8,0.71457,0.86217,0.50977,0.4707,0.5451
18.808,0.72239,0.87292,0.48438,0.48438,0.56471
18.816,0.73118,0.87586,0.4707,0.49023,0.57059
18.824,0.739,0.87292,0.45508,0.49414,0.58039
18.832,0.74585,0.86608,0.45508,0.49414,0.57451
18.84,0.75367,0.85533,0.46094,0.5,0.58039
18.848,0.76051,0.8436,0.45508,0.49414,0.58039
18.856,0.76735,0.83089,0.4043,0.53906,0.5902
18.864,0.77419,0.8172,0.57031,0.48438,0.4902
18.872,0.78006,0.80547,1.0742,0.29492,0.22353
18.88,0.7869,0.79472,1.5,0.03125,-0.05098
18.888,0.79277,0.78495,1.5,-0.064453,-0.12745
18.896,0.79765,0.77713,1.0938,0.24609,0.29412
18.904,0.80254,0.77028,0.40039,0.5,0.61961
18.912,0.80743,0.76344,0.23438,0.58398,0.67059
18.92,0.81134,0.75562,0.31055,0.56445,0.61961
18.928,0.81525,0.7478,0.36523,0.53906,0.6
18.936,0.82014,0.739,0.38477,0.5293,0.59608
18.944,0.82502,0.72727,0.39062,0.51562,0.6
18.952,0.83089,0.71554,0.40039,0.51562,0.59608
18.96,0.83675,0.70186,0.4043,0.51562,0.6
18.968,0.84164,0.68719,0.41016,0.51562,0.5902
18.976,0.84653,0.67351,0.4043,0.51562,0.59608
18.984,0.85239,0.65982,0.41992,0.50977,0.58431
18.992,0.85728,0.64712,0.42578,0.51562,0.5902
19,0.86315,0.63539,0.43555,0.5,0.57451
19.008,0.86901,0.62561,0.44531,0.49414,0.57451
19.016,0.87488,0.61779,0.44922,0.49023,0.56471
19.024,0.88172,0.61193,0.46094,0.49023,0.56471
19.032,0.88954,0.60704,0.4707,0.47461,0.55098
19.04,0.89834,0.60313,0.48438,0.4707,0.5451
19.048,0.90714,0.6002,0.50586,0.46094,0.52941
19.056,0.91593,0.59824,0.52539,0.45508,0.52941
19.064,0.92375,0.59531,0.53516,0.44531,0.51569
19.072,0.93255,0.59335,0.55078,0.44531,0.51569
19.08,0.93939,0.58944,0.57422,0.43555,0.5
19.088,0.94624,0.58456,0.58008,0.43555,0.49412
19.096,0.95308,0.57771,0.5957,0.42969,0.4902
19.104,0.9609,0.57087,0.5957,0.43555,0.48431
19.112,0.96774,0.56207,0.5957,0.43555,0.49412
19.12,0.97556,0.55425,0.58398,0.43945,0.4902
19.128,0.9824,0.54545,0.57422,0.43945,0.50588
19.136,0.98925,0.53568,0.57031,0.44531,0.5098
19.144,0.99413,0.52493,0.55078,0.45508,0.51961
19.152,1,0.5132,0.53906,0.46094,0.52549
19.16,1,0.50049,0.5293,0.46484,0.53529
19.168,1,0.48876,0.51953,0.46094,0.53529
19.176,1,0.47801,0.50977,0.4707,0.55098
19.184,1,0.46725,0.50586,0.4707,0.5451
19.192,1,0.4565,0.50977,0.4707,0.5549
19.2,1,0.44673,0.51562,0.4707,0.5451
19.208,1,0.43793,0.51562,0.4707,0.55098
19.216,1,0.43011,0.51953,0.4707,0.53529
19.224,1,0.42326,0.52539,0.46484,0.53529
19.232,1,0.41544,0.52539,0.46094,0.52941
19.24,1,0.40665,0.5293,0.46094,0.52941
19.248,1,0.39883,0.53906,0.46094,0.51961
19.256,1,0.39101,0.53906,0.46094,0.52549
19.264,1,0.38416,0.54492,0.44922,0.51961
19.272,1,0.37634,0.54492,0.44922,0.52549
19.28,1,0.3695,0.55078,0.44531,0.51961
19.288,1,0.36266,0.54492,0.44531,0.52549
19.296,1,0.35582,0.55078,0.44531,0.52941
19.304,1,0.348,0.54492,0.44531,0.52549
19.312,1,0.34115,0.55078,0.44922,0.52549
19.32,1,0.33529,0.54492,0.44922,0.52549
19.328,1,0.3304,0.54492,0.45508,0.53529
19.336,1,0.32356,0.53906,0.44922,0.52941
19.344,1,0.31672,0.53516,0.46094,0.53529
19.352,1,0.31085,0.52539,0.46094,0.53529
19.36,1,0.30987,0.52539,0.46094,0.53922
19.368,1,0.31672,0.53516,0.46094,0.52941
19.376,1,0.33431,0.56055,0.44922,0.51569
19.384,1,0.36461,0.58398,0.45508,0.5
19.392,1,0.4086,0.60547,0.44922,0.48431
19.4,1,0.4653,0.63477,0.41992,0.47451
19.408,1,0.53177,0.66406,0.4043,0.46471
19.416,1,0.59335,0.69922,0.39453,0.43922
19.424,1,0.65103,0.69531,0.39453,0.43922
19.432,1,0.71457,0.66406,0.4043,0.4549
19.44,1,0.77713,0.56055,0.44531,0.51569
19.448,1,0.83382,0.50586,0.46484,0.5451
19.456,1,0.88074,0.48047,0.47461,0.56078
19.464,1,0.91887,0.46484,0.48047,0.56471
19.472,1,0.94526,0.46094,0.48047,0.57059
19.48,1,0.96188,0.46484,0.47461,0.57451
19.488,1,0.9697,0.46094,0.48047,0.56471
19.496,1,0.96872,0.46484,0.47461,0.57059
19.504,1,0.96285,0.4043,0.51562,0.58039
19.512,1,0.9521,0.55078,0.47461,0.4902
19.52,1,0.93939,1.0254,0.29492,0.23922
19.528,1,0.92571,1.5,0.03125,-0.031373
19.536,1,0.91202,1.5,-0.083984,-0.12157
19.544,1,0.89932,1.1191,0.21094,0.26863
19.552,1,0.88759,0.4043,0.47461,0.60588
19.56,1,0.87683,0.23438,0.56055,0.66078
19.568,1,0.86804,0.30469,0.55078,0.6098
19.576,1,0.85826,0.35938,0.52539,0.59608
19.584,1,0.84946,0.38477,0.50977,0.5902
19.592,1,0.84066,0.38477,0.50586,0.6
19.6,1,0.83089,0.39453,0.49414,0.58431
19.608,1,0.81916,0.40039,0.5,0.59608
19.616,1,0.80645,0.41016,0.49023,0.58039
19.624,1,0.79277,0.41016,0.49023,0.58431
19.632,1,0.77713,0.42578,0.48438,0.57451
19.64,1,0.76051,0.42969,0.49023,0.57451
19.648,1,0.74291,0.43555,0.48047,0.56471
19.656,1,0.7263,0.43555,0.47461,0.57451
19.664,1,0.71065,0.44922,0.4707,0.56078
19.672,0.99609,0.69599,0.46094,0.4707,0.5549
19.68,0.99316,0.68328,0.47461,0.46094,0.5451
19.688,0.98729,0.67253,0.49023,0.44922,0.53922
19.696,0.98143,0.66373,0.50586,0.44531,0.52941
19.704,0.97556,0.65689,0.52539,0.43945,0.52549
19.712,0.97067,0.65103,0.53906,0.42578,0.5098
19.72,0.96579,0.64614,0.55078,0.41992,0.50588
19.728,0.95992,0.64223,0.57031,0.41602,0.4902
19.736,0.95406,0.63832,0.58008,0.41016,0.48431
19.744,0.94819,0.63343,0.5957,0.41992,0.4902
19.752,0.94233,0.62757,0.5957,0.41016,0.48039
19.76,0.93548,0.62072,0.58984,0.41016,0.48431
19.768,0.92962,0.6129,0.58008,0.41602,0.48431
19.776,0.92278,0.60313,0.58008,0.41992,0.4902
19.784,0.91593,0.59238,0.57031,0.41992,0.4902
19.792,0.91007,0.58065,0.55469,0.43555,0.50588
19.8,0.90127,0.56891,0.54492,0.43555,0.5098
19.808,0.89345,0.55621,0.52539,0.44531,0.52549
19.816,0.88368,0.54448,0.51953,0.43945,0.52549
19.824,0.87488,0.53372,0.50977,0.44531,0.53529
19.832,0.86315,0.52199,0.50977,0.44531,0.53529
19.84,0.85142,0.50831,0.50586,0.44531,0.5451
19.848,0.83871,0.49462,0.50977,0.44531,0.53529
19.856,0.826,0.48094,0.50977,0.44531,0.53529
19.864,0.81232,0.46725,0.52539,0.44531,0.52941
19.872,0.79961,0.45455,0.52539,0.44531,0.52941
19.88,0.78592,0.44184,0.52539,0.44531,0.52549
19.888,0.77224,0.43011,0.52539,0.44531,0.52941
19.896,0.7566,0.41935,0.53516,0.44531,0.51961
19.904,0.74096,0.4086,0.53906,0.43945,0.51569
19.912,0.72336,0.40078,0.53516,0.44531,0.52549
19.92,0.70674,0.39492,0.54492,0.43945,0.5098
19.928,0.69013,0.3871,0.54492,0.44531,0.51569
19.936,0.67449,0.3783,0.54492,0.43945,0.5098
19.944,0.65787,0.3695,0.54492,0.44531,0.51569
19.952,0.64223,0.3607,0.54492,0.44531,0.5098
19.96,0.62659,0.35093,0.53906,0.44922,0.51961
19.968,0.60997,0.34115,0.5293,0.44531,0.51569
19.976,0.59433,0.32942,0.5293,0.44922,0.52549
19.984,0.57771,0.31183,0.53516,0.44531,0.51961
19.992,0.56305,0.29326,0.52539,0.44922,0.52941
20,0.54741,0.2825,0.52539,0.44922,0.52941
20.008,0.53372,0.28055,0.51953,0.45508,0.53529
20.016,0.52004,0.28446,0.51562,0.44922,0.52941
20.024,0.50831,0.29619,0.51953,0.45508,0.52941
20.032,0.49756,0.31672,0.54492,0.44531,0.5098
20.04,0.48778,0.34702,0.57031,0.44531,0.5
20.048,0.47898,0.38514,0.58984,0.43945,0.48039
20.056,0.47019,0.43109,0.625,0.41992,0.47059
20.064,0.46139,0.48094,0.66016,0.39062,0.4451
20.072,0.45455,0.53079,0.68945,0.39453,0.43529
20.08,0.44673,0.57771,0.69531,0.38477,0.42941
20.088,0.44086,0.61975,0.66016,0.39453,0.44902
20.096,0.435,0.65494,0.57422,0.42578,0.4902
20.104,0.43011,0.68231,0.50586,0.44922,0.52941
20.112,0.42522,0.70088,0.48047,0.46094,0.5451
20.12,0.42033,0.71065,0.46094,0.4707,0.5549
20.128,0.41544,0.71652,0.46094,0.4707,0.56471
20.136,0.41056,0.71848,0.45508,0.4707,0.56078
20.144,0.40567,0.71554,0.45508,0.4707,0.56471
20.152,0.3998,0.70968,0.44922,0.46484,0.5549
20.16,0.39492,0.70186,0.4043,0.5,0.57059
20.168,0.38807,0.69208,0.51562,0.50586,0.49412
20.176,0.38221,0.68231,0.94922,0.31055,0.26471
20.184,0.37634,0.67253,1.5,0.054688,-0.0058823
20.192,0.37048,0.66373,1.5,-0.074219,-0.096078
20.2,0.36461,0.65689,1.1543,0.18555,0.2451
20.208,0.35875,0.65005,0.40039,0.4707,0.6
20.216,0.35288,0.64418,0.23047,0.55469,0.6451
20.224,0.34702,0.63734,0.30469,0.53906,0.59608
20.232,0.34018,0.63148,0.36523,0.50977,0.57451
20.24,0.33431,0.62366,0.38477,0.5,0.58039
20.248,0.32845,0.61584,0.38477,0.49414,0.58039
20.256,0.32258,0.60606,0.39062,0.49414,0.58039
20.264,0.31769,0.59433,0.40039,0.49023,0.57451
20.272,0.31281,0.58162,0.4043,0.49023,0.58039
20.28,0.30792,0.56696,0.41016,0.48438,0.57059
20.288,0.30303,0.5523,0.41602,0.49023,0.57451
20.296,0.29814,0.53763,0.42969,0.47461,0.57059
20.304,0.29326,0.52395,0.42969,0.47461,0.56471
20.312,0.28935,0.51222,0.43945,0.4707,0.5549
20.32,0.28543,0.50147,0.44922,0.4707,0.55098
20.328,0.2825,0.49071,0.46094,0.46484,0.53922
20.336,0.27957,0.48192,0.47461,0.46094,0.53529
20.344,0.27664,0.47312,0.48047,0.44531,0.52941
20.352,0.2737,0.4653,0.49414,0.43945,0.51961
20.36,0.27175,0.45846,0.51562,0.42578,0.5098
20.368,0.26882,0.45259,0.53516,0.41992,0.5
20.376,0.26588,0.44673,0.55078,0.41992,0.4902
20.384,0.26295,0.44184,0.57031,0.41016,0.48431
20.392,0.261,0.43695,0.57422,0.41602,0.48431
20.4,0.25806,0.43109,0.58008,0.4043,0.47451
20.408,0.25611,0.42522,0.58398,0.4043,0.48431
20.416,0.25415,0.42033,0.58984,0.40039,0.47451
20.424,0.2522,0.41447,0.5957,0.41602,0.48039
20.432,0.25122,0.40762,0.58008,0.41602,0.47451
20.44,0.24927,0.39883,0.57031,0.41992,0.48431
20.448,0.24633,0.39003,0.55469,0.42578,0.4902
20.456,0.2434,0.38025,0.53906,0.43555,0.50588
20.464,0.24145,0.37048,0.5293,0.43555,0.5
20.472,0.23754,0.3607,0.51953,0.43945,0.51569
20.48,0.23363,0.35093,0.51562,0.43945,0.51961
20.488,0.22972,0.34115,0.50977,0.44531,0.51569
20.496,0.22483,0.33236,0.50586,0.44531,0.51961
20.504,0.21994,0.32356,0.50586,0.44531,0.51569
20.512,0.21603,0.31574,0.50977,0.44531,0.51961
20.52,0.21017,0.30987,0.50977,0.43945,0.5098
20.528,0.20528,0.30205,0.51562,0.44531,0.51569
20.536,0.19844,0.29521,0.52539,0.43555,0.50588
20.544,0.19159,0.28739,0.52539,0.43555,0.5098
20.552,0.18377,0.27957,0.5293,0.43555,0.5
20.56,0.17498,0.27273,0.5293,0.43555,0.50588
20.568,0.16813,0.26588,0.53516,0.43555,0.49412
20.576,0.16031,0.25904,0.53906,0.43555,0.50588
20.584,0.15347,0.2522,0.53906,0.43555,0.5
20.592,0.14663,0.24633,0.53906,0.43945,0.50588
20.6,0.13881,0.24047,0.53516,0.43555,0.5
20.608,0.13099,0.2346,0.53516,0.44531,0.5098
20.616,0.12414,0.22972,0.5293,0.43945,0.50588
20.624,0.11632,0.22581,0.53516,0.44531,0.5098
20.632,0.11046,0.22092,0.5293,0.44531,0.5098
20.64,0.10459,0.21505,0.5293,0.44531,0.51569
20.648,0.099707,0.20821,0.52539,0.44531,0.51569
20.656,0.095797,0.2043,0.51953,0.44922,0.52549
20.664,0.092864,0.2043,0.51562,0.44531,0.51961
20.672,0.089932,0.21017,0.50977,0.44922,0.52941
20.68,0.088954,0.22385,0.51953,0.44922,0.51961
20.688,0.086999,0.24731,0.50977,0.44922,0.52941
20.696,0.086999,0.28055,0.50977,0.44531,0.52941
20.704,0.087977,0.3216,0.50977,0.44531,0.53529
20.712,0.088954,0.36168,0.51562,0.44922,0.51961
20.72,0.089932,0.40078,0.53906,0.44531,0.5098
20.728,0.091887,0.44477,0.57031,0.43945,0.49412
20.736,0.093842,0.48876,0.58984,0.43555,0.48039
20.744,0.096774,0.52884,0.625,0.4043,0.46471
20.752,0.099707,0.56305,0.6543,0.39062,0.4549
20.76,0.10264,0.59042,0.68555,0.38477,0.43529
20.768,0.10557,0.60997,0.69531,0.38477,0.42549
20.776,0.1085,0.62268,0.66406,0.40039,0.4451
20.784,0.11241,0.62854,0.58008,0.42969,0.4902
20.792,0.11535,0.62854,0.51562,0.45508,0.52941
20.8,0.11828,0.62463,0.49023,0.46484,0.53529
20.808,0.12121,0.61779,0.4707,0.4707,0.55098
20.816,0.12317,0.60997,0.46484,0.4707,0.55098
20.824,0.12512,0.60117,0.46094,0.47461,0.5549
20.832,0.12708,0.59238,0.46094,0.4707,0.55098
20.84,0.12903,0.5826,0.45508,0.47461,0.5549
20.848,0.13001,0.57478,0.41016,0.50977,0.5549
20.856,0.13099,0.56794,0.56445,0.4707,0.47059
20.864,0.13196,0.56305,1.0039,0.28516,0.22353
20.872,0.13196,0.55816,1.5,0.044922,-0.011765
20.88,0.13294,0.55327,1.5,-0.048828,-0.082353
20.888,0.13294,0.54839,1.0449,0.24609,0.3
20.896,0.13392,0.54252,0.37109,0.49414,0.6
20.904,0.13392,0.53568,0.24023,0.56445,0.63529
20.912,0.13392,0.52786,0.32422,0.54492,0.58431
20.92,0.1349,0.52004,0.37109,0.51562,0.56471
20.928,0.1349,0.50929,0.39062,0.50586,0.58039
20.936,0.13587,0.49756,0.39453,0.50586,0.57451
20.944,0.13685,0.48485,0.40039,0.49023,0.58039
20.952,0.13978,0.47214,0.4043,0.49023,0.57451
20.96,0.14174,0.46041,0.41016,0.49414,0.58039
20.968,0.14467,0.44966,0.41992,0.49023,0.57059
20.976,0.14761,0.43891,0.42969,0.49023,0.56471
20.984,0.15054,0.42913,0.43555,0.48438,0.5549
20.992,0.15249,0.42131,0.44531,0.48438,0.5549
21,0.15543,0.41447,0.45508,0.48047,0.55098
21.008,0.15738,0.40958,0.45508,0.47461,0.5549
21.016,0.16031,0.40469,0.47461,0.4707,0.53922
21.024,0.16325,0.40176,0.48047,0.46094,0.53922
21.032,0.1652,0.39785,0.49023,0.44922,0.52941
21.04,0.16813,0.39492,0.50586,0.44922,0.52941
21.048,0.17107,0.39198,0.52539,0.43945,0.5098
21.056,0.17302,0.38807,0.53906,0.43555,0.5098
21.064,0.17498,0.38416,0.56055,0.42578,0.4902
21.072,0.17693,0.37928,0.57422,0.42578,0.48431
21.08,0.17889,0.37341,0.58984,0.41602,0.48039
21.088,0.18084,0.36657,0.5957,0.41602,0.48431
21.096,0.18182,0.35875,0.59961,0.41016,0.47451
21.104,0.18377,0.35093,0.59961,0.41602,0.48039
21.112,0.18475,0.34409,0.60547,0.41602,0.47451
21.12,0.18573,0.33822,0.5957,0.41992,0.48039
21.128,0.18573,0.33236,0.58008,0.42578,0.48431
21.136,0.18671,0.32454,0.56445,0.43555,0.49412
21.144,0.18671,0.31672,0.55078,0.44531,0.50588
21.152,0.18671,0.3089,0.53516,0.44531,0.5098
21.16,0.18573,0.30108,0.5293,0.44922,0.51569
21.168,0.18573,0.29326,0.52539,0.45508,0.51961
21.176,0.18377,0.28543,0.51953,0.44922,0.52549
21.184,0.18182,0.27859,0.51953,0.44922,0.51961
21.192,0.17986,0.27175,0.51953,0.45508,0.52549
21.2,0.17693,0.26491,0.52539,0.44922,0.51569
21.208,0.174,0.25806,0.51953,0.44531,0.51961
21.216,0.17107,0.25415,0.52539,0.44531,0.5098
21.224,0.16813,0.25024,0.52539,0.44531,0.51569
21.232,0.1652,0.24633,0.53906,0.44531,0.5098
21.24,0.16129,0.24145,0.53516,0.44531,0.5098
21.248,0.15738,0.23656,0.54492,0.43945,0.5
21.256,0.15249,0.23167,0.55078,0.44531,0.5098
21.264,0.14858,0.22678,0.54492,0.43945,0.50588
21.272,0.1437,0.22287,0.54492,0.43945,0.5098
21.28,0.13978,0.21799,0.53906,0.44531,0.50588
21.288,0.13587,0.2131,0.53906,0.44531,0.5098
21.296,0.13196,0.20821,0.53906,0.44531,0.5098
21.304,0.12903,0.20332,0.5293,0.44531,0.5098
21.312,0.1261,0.20039,0.5293,0.44531,0.51569
21.32,0.12317,0.19746,0.52539,0.44531,0.5098
21.328,0.12121,0.19355,0.52539,0.44531,0.52549
21.336,0.12121,0.18866,0.52539,0.45508,0.51961
21.344,0.12121,0.18573,0.51953,0.46094,0.52941
21.352,0.12219,0.18768,0.51562,0.46094,0.52549
21.36,0.12414,0.19453,0.51562,0.46484,0.53529
21.368,0.1261,0.20919,0.50977,0.46094,0.53529
21.376,0.12805,0.23265,0.50586,0.4707,0.53922
21.384,0.13099,0.26491,0.50977,0.4707,0.53529
21.392,0.13392,0.30596,0.50586,0.4707,0.5451
21.4,0.13783,0.35191,0.50977,0.46484,0.53529
21.408,0.14174,0.40078,0.55078,0.45508,0.51569
21.416,0.14663,0.44379,0.57422,0.44922,0.4902
