Time [s], RESP, PLETH, II, V, AVR
0,1,0.7869,0.21484,0.94118,0.69922
0.008,1,0.80352,0.19531,0.95098,0.70898
0.016,1,0.81427,0.16992,0.95098,0.72461
0.024,1,0.82405,0.17578,0.95686,0.7207
0.032,1,0.83089,0.19531,0.96667,0.70508
0.04,1,0.8348,0.19531,0.96667,0.69922
0.048,1,0.83578,0.2207,0.96667,0.68555
0.056,1,0.83382,0.2207,0.96667,0.68945
0.064,1,0.82893,0.22461,0.96078,0.68555
0.072,1,0.82307,0.24023,0.95686,0.67969
0.08,1,0.81427,0.23438,0.94706,0.68555
0.088,1,0.8045,0.24023,0.94706,0.66992
0.096,0.99804,0.79277,0.23047,0.93725,0.68555
0.104,0.99609,0.78104,0.24023,0.93137,0.68945
0.112,0.97067,0.76833,0.25586,0.93725,0.67969
0.12,0.94526,0.75464,0.25,0.92549,0.67578
0.128,0.91496,0.73998,0.29102,0.92157,0.65039
0.136,0.88563,0.72532,0.30078,0.91569,0.6543
0.144,0.84946,0.71065,0.33984,0.92157,0.61523
0.152,0.81427,0.69795,0.34961,0.90588,0.625
0.16,0.77419,0.68622,0.3457,0.89608,0.62891
0.168,0.73509,0.67546,0.37109,0.8902,0.61523
0.176,0.69697,0.66764,0.39453,0.87647,0.59961
0.184,0.65982,0.65982,0.41602,0.87059,0.58984
0.192,0.6217,0.65396,0.42578,0.86667,0.58984
0.2,0.58456,0.64907,0.41992,0.85686,0.59961
0.208,0.53959,0.64418,0.42578,0.87059,0.58984
0.216,0.4956,0.64027,0.375,0.87059,0.61914
0.224,0.44575,0.63539,0.3457,0.88039,0.64062
0.232,0.39589,0.6305,0.31445,0.89608,0.66016
0.24,0.348,0.62561,0.29102,0.90588,0.67578
0.248,0.3001,0.6217,0.2793,0.92157,0.68555
0.256,0.25318,0.61681,0.27539,0.92157,0.66406
0.264,0.20723,0.6129,0.28516,0.93137,0.67969
0.272,0.15347,0.60997,0.26953,0.92549,0.67969
0.28,0.099707,0.60606,0.25977,0.92157,0.68555
0.288,0.049853,0.60215,0.29102,0.93137,0.66406
0.296,0,0.59824,0.30078,0.94118,0.66016
0.304,0,0.59531,0.30469,0.94118,0.65039
0.312,0,0.5914,0.31055,0.93725,0.6543
0.32,0,0.58651,0.31055,0.94118,0.6543
0.328,0,0.58065,0.32031,0.94118,0.64062
0.336,0,0.57478,0.33008,0.94118,0.64062
0.344,0,0.56891,0.39453,0.97059,0.60547
0.352,0,0.56305,0.43555,1.0059,0.57422
0.36,0,0.55718,0.49023,1.0118,0.54492
0.368,0,0.55132,0.47461,0.98627,0.55469
0.376,0,0.54448,0.44531,0.93725,0.57031
0.384,0,0.53861,0.41992,0.89608,0.58008
0.392,0,0.53177,0.4043,0.88627,0.57422
0.4,0,0.52493,0.41602,0.90588,0.5957
0.408,0,0.51906,0.35938,0.91176,0.61914
0.416,0,0.5132,0.33984,0.91569,0.63477
0.424,0,0.50733,0.33594,0.91176,0.64062
0.432,0,0.50049,0.32031,0.91569,0.65039
0.44,0,0.49365,0.33594,0.91569,0.63477
0.448,0,0.48778,0.32422,0.91569,0.64062
0.456,0,0.48387,0.31055,0.91176,0.66016
0.464,0,0.48192,0.33008,0.91569,0.64453
0.472,0,0.48485,0.33594,0.92157,0.64062
0.48,0,0.49267,0.33984,0.92157,0.62891
0.488,0,0.50733,0.30078,0.92549,0.66016
0.496,0,0.52884,0.19531,0.98235,0.7207
0.504,0,0.5523,0.15039,0.99608,0.73438
0.512,0,0.57869,0.51562,0.7902,0.49023
0.52,0,0.61193,1.0488,0.34902,0.17969
0.528,0,0.65005,1.3887,0.13922,0.050781
0.536,0,0.69013,0.76953,0.27451,0.4707
0.544,0,0.72923,0.25,0.55098,0.75391
0.552,0,0.76637,0.23438,0.76078,0.72461
0.56,0,0.79961,0.26562,0.85686,0.70508
0.568,0,0.82796,0.24023,0.93137,0.69922
0.576,0,0.85239,0.2207,0.96667,0.68945
0.584,0,0.87097,0.19531,0.97647,0.70898
0.592,0,0.88563,0.19531,0.97647,0.70508
0.6,0,0.89541,0.18555,0.97647,0.71484
0.608,0,0.90127,0.17578,0.98627,0.7207
0.616,0,0.9042,0.18945,0.98235,0.70898
0.624,0,0.9042,0.19531,0.97647,0.70898
0.632,0,0.9042,0.20117,0.98235,0.70898
0.64,0,0.90127,0.20508,0.97647,0.70898
0.648,0,0.89638,0.19531,0.98235,0.70898
0.656,0,0.88954,0.21094,0.96667,0.70898
0.664,0,0.87977,0.23438,0.97059,0.68555
0.672,0,0.86901,0.21484,0.97647,0.69531
0.68,0,0.85533,0.22461,0.96667,0.69922
0.688,0,0.83969,0.22461,0.96667,0.68945
0.696,0,0.82209,0.24023,0.96667,0.69531
0.704,0,0.8045,0.26562,0.96667,0.66992
0.712,0,0.78592,0.28516,0.96667,0.66016
0.72,0,0.76637,0.31445,0.96667,0.64062
0.728,0,0.74585,0.3457,0.96667,0.61914
0.736,0,0.72434,0.35547,0.96078,0.61914
0.744,0,0.70479,0.37109,0.95098,0.625
0.752,0,0.68622,0.41016,0.95686,0.59961
0.76,0,0.66862,0.43555,0.95098,0.58398
0.768,0,0.65396,0.46094,0.95686,0.57031
0.776,0,0.64125,0.44531,0.94118,0.58984
0.784,0,0.6305,0.43555,0.93725,0.59961
0.792,0,0.6217,0.42578,0.94118,0.60547
0.8,0,0.61486,0.375,0.94118,0.625
0.808,0,0.60899,0.34961,0.94118,0.64062
0.816,0,0.60508,0.31055,0.93725,0.66016
0.824,0,0.6002,0.30469,0.94118,0.66406
0.832,0,0.59629,0.29492,0.93725,0.66406
0.84,0,0.5914,0.30078,0.94118,0.66016
0.848,0,0.58651,0.28516,0.93725,0.67578
0.856,0,0.57967,0.31055,0.94118,0.6543
0.864,0,0.57185,0.31445,0.93137,0.65039
0.872,0,0.56305,0.32422,0.93137,0.6543
0.88,0,0.55327,0.32031,0.94118,0.64453
0.888,0,0.54154,0.33594,0.94118,0.64062
0.896,0,0.52981,0.33594,0.94706,0.65039
0.904,0,0.51906,0.33984,0.94706,0.64062
0.912,0,0.50929,0.38086,0.95686,0.61523
0.92,0,0.49756,0.44531,0.99216,0.58008
0.928,0,0.48583,0.47461,1.0118,0.56445
0.936,0,0.4741,0.52539,1.0059,0.5293
0.944,0,0.46334,0.50586,0.98235,0.53906
0.952,0,0.45161,0.44531,0.94118,0.57422
0.96,0,0.43988,0.42578,0.90588,0.58398
0.968,0,0.42913,0.41992,0.88039,0.57422
0.976,0,0.41838,0.42969,0.90196,0.57031
0.984,0,0.4086,0.35938,0.91569,0.62891
0.992,0,0.39883,0.3457,0.92549,0.63477
1,0,0.38905,0.32422,0.93725,0.62891
1.008,0,0.38221,0.31055,0.92157,0.6543
1.016,0,0.37634,0.32031,0.91569,0.66016
1.024,0,0.37048,0.33594,0.91176,0.64453
1.032,0,0.36755,0.32031,0.92157,0.6543
1.04,0,0.3695,0.33984,0.92157,0.64062
1.048,0,0.37732,0.33984,0.93137,0.63477
1.056,0,0.39296,0.33008,0.92549,0.64453
1.064,0,0.4174,0.26953,0.94706,0.67969
1.072,0,0.44868,0.16992,0.98627,0.73047
1.08,0,0.4868,0.16016,0.99608,0.66406
1.088,0,0.52884,0.61523,0.67059,0.43555
1.096,0,0.5738,1.1387,0.24902,0.14062
1.104,0,0.6129,1.3145,0.088235,0.064453
1.112,0,0.64809,0.53516,0.32353,0.60547
1.12,0,0.68524,0.18945,0.6,0.79492
1.128,0,0.72043,0.25,0.78039,0.73438
1.136,0,0.75171,0.26562,0.88039,0.70898
1.144,0,0.7781,0.19531,0.94706,0.72461
1.152,0,0.79961,0.16992,0.96667,0.73438
1.16,0,0.8172,0.14453,0.98235,0.74414
1.168,0,0.82991,0.14453,0.98235,0.74023
1.176,0,0.83969,0.13086,0.99216,0.75
1.184,0,0.84653,0.16602,0.99216,0.7207
1.192,0,0.85044,0.16016,0.98627,0.73047
1.2,0,0.85142,0.13477,0.98235,0.75391
1.208,0,0.85044,0.14453,0.97059,0.74414
1.216,0,0.84653,0.16016,0.97647,0.73047
1.224,0,0.84164,0.16992,0.97059,0.73047
1.232,0,0.83578,0.16602,0.96667,0.73438
1.24,0,0.82698,0.18555,0.97059,0.70898
1.248,0,0.81623,0.20117,0.96667,0.70508
1.256,0,0.80352,0.18555,0.96667,0.7207
1.264,0,0.78983,0.21094,0.96078,0.69922
1.272,0,0.77322,0.2207,0.97059,0.69531
1.28,0,0.75562,0.21094,0.96667,0.70898
1.288,0,0.73803,0.25977,0.97059,0.68555
1.296,0,0.71945,0.26562,0.96667,0.68555
1.304,0,0.70186,0.29492,0.96667,0.66406
1.312,0,0.68719,0.32422,0.97647,0.6543
1.32,0,0.67058,0.34961,0.97059,0.64062
1.328,0,0.65591,0.37109,0.97647,0.62891
1.336,0,0.64125,0.38086,0.98235,0.63477
1.344,0,0.62952,0.38477,0.95686,0.625
1.352,0,0.61975,0.4043,0.94706,0.61523
1.36,0,0.61193,0.41016,0.94118,0.61914
1.368,0,0.60704,0.375,0.93137,0.64062
1.376,0,0.60508,0.32422,0.93725,0.66406
1.384,0,0.60508,0.29102,0.92157,0.68555
1.392,0,0.60606,0.25586,0.92157,0.70898
1.4,0,0.60802,0.25977,0.91569,0.69922
1.408,0,0.60899,0.25977,0.92157,0.69531
1.416,0,0.60997,0.24609,0.91569,0.70898
1.424,0,0.58162,0.24023,0.92157,0.70508
1.432,0,0.53861,0.29492,0.93137,0.66406
1.44,0,0.51515,0.30078,0.93137,0.66016
1.448,0,0.49853,0.30469,0.92157,0.66406
1.456,0,0.4868,0.28516,0.92549,0.67969
1.464,0,0.47507,0.30078,0.93725,0.66406
1.472,0,0.46432,0.31055,0.93725,0.66016
1.48,0,0.45357,0.32422,0.93725,0.66406
1.488,0,0.44282,0.33984,0.93725,0.64453
1.496,0,0.43304,0.41016,0.96667,0.59961
1.504,0,0.42424,0.46094,1.002,0.56445
1.512,0,0.4174,0.5,1.0118,0.53906
1.52,0,0.41153,0.51562,0.99216,0.53516
1.528,0,0.40567,0.47461,0.95686,0.56445
1.536,0,0.40078,0.43555,0.92157,0.58398
1.544,0,0.39589,0.41016,0.8902,0.58984
1.552,0,0.39198,0.42969,0.88627,0.58008
1.56,0,0.38807,0.38086,0.90196,0.61914
1.568,0,0.38319,0.34961,0.91176,0.63477
1.576,0,0.37928,0.33594,0.91176,0.64453
1.584,0,0.37537,0.33594,0.90588,0.64062
1.592,0,0.37243,0.33008,0.90196,0.65039
1.6,0,0.37146,0.33594,0.90196,0.64453
1.608,0,0.37341,0.33594,0.90588,0.64062
1.616,0,0.37928,0.33984,0.90588,0.64062
1.624,0,0.39003,0.3457,0.91176,0.64062
1.632,0,0.41544,0.35547,0.91569,0.63477
1.64,0,0.44282,0.31445,0.92157,0.6543
1.648,0,0.46628,0.21484,0.95098,0.71484
1.656,0,0.49658,0.16602,0.97647,0.73438
1.664,0,0.52981,0.4707,0.78627,0.5293
1.672,0,0.565,0.96484,0.35882,0.23047
1.68,0,0.59824,1.3086,0.10392,0.10547
1.688,0,0.62952,0.75,0.23333,0.48438
1.696,0,0.65591,0.25,0.52941,0.76562
1.704,0,0.67449,0.26953,0.7451,0.73047
1.712,0,0.68817,0.26562,0.85686,0.70508
1.72,0,0.70088,0.2207,0.93725,0.70898
1.728,0,0.71163,0.19531,0.95686,0.72461
1.736,0,0.72043,0.18555,0.97647,0.71484
1.744,0,0.7263,0.16992,0.98235,0.70898
1.752,0,0.73118,0.15039,0.96667,0.74414
1.76,0,0.73412,0.16992,0.97059,0.72461
1.768,0,0.73509,0.19531,0.97647,0.70898
1.776,0,0.73412,0.18555,0.98235,0.71484
1.784,0,0.73216,0.18945,0.98627,0.71484
1.792,0,0.72727,0.17969,0.98235,0.72461
1.8,0,0.72141,0.20508,0.98235,0.70898
1.808,0,0.71359,0.21484,0.98235,0.70508
1.816,0,0.70479,0.19531,0.97647,0.7207
1.824,0,0.69404,0.2207,0.98627,0.70508
1.832,0,0.68231,0.24609,0.98235,0.68555
1.84,0,0.6696,0.23047,0.99216,0.69922
1.848,0,0.65494,0.24023,0.99216,0.69922
1.856,0,0.63832,0.25586,0.99216,0.68555
1.864,0,0.6217,0.28516,0.99216,0.66992
1.872,0,0.60313,0.30469,0.99216,0.6543
1.88,0,0.58553,0.29102,0.99216,0.67578
1.888,0,0.56794,0.33984,0.99216,0.64062
1.896,0,0.55132,0.36523,0.99216,0.62891
1.904,0,0.53763,0.38086,0.98627,0.61914
1.912,0,0.5259,0.39453,0.99216,0.61523
1.92,0,0.51417,0.4043,0.98235,0.60938
1.928,0,0.50342,0.40039,0.97647,0.625
1.936,0,0.49365,0.38086,0.96667,0.64062
1.944,0,0.48485,0.375,0.97059,0.64062
1.952,0,0.47605,0.35547,0.96667,0.64062
1.96,0,0.46725,0.33594,0.96078,0.6543
1.968,0,0.45943,0.27539,0.96667,0.67969
1.976,0,0.45161,0.24609,0.95686,0.70508
1.984,0,0.44379,0.26562,0.95098,0.68945
1.992,0,0.43597,0.26953,0.96078,0.68555
2,0,0.42913,0.28516,0.94706,0.68555
2.008,0,0.42326,0.29102,0.94118,0.67578
2.016,0,0.4174,0.30078,0.94118,0.66406
2.024,0,0.41056,0.2793,0.94706,0.67969
2.032,0.001955,0.40274,0.32031,0.94118,0.64453
2.04,0.0039101,0.39589,0.30078,0.95686,0.66406
2.048,0.039101,0.38807,0.32031,0.96078,0.65039
2.056,0.074291,0.38221,0.33008,0.96667,0.64062
2.064,0.11339,0.37537,0.33594,0.97059,0.64062
2.072,0.15347,0.3695,0.33008,0.96667,0.64453
2.08,0.1955,0.36266,0.37109,0.98235,0.61914
2.088,0.23754,0.35679,0.41602,1.0059,0.5957
2.096,0.27664,0.35191,0.45508,1.0314,0.57031
2.104,0.31574,0.348,0.44922,1.0216,0.56445
2.112,0.35288,0.34409,0.51562,1.0059,0.5293
2.12,0.39003,0.34018,0.49414,0.97059,0.52539
2.128,0.42913,0.33627,0.43555,0.92549,0.57031
2.136,0.46823,0.33236,0.43945,0.88627,0.56445
2.144,0.50929,0.32649,0.42578,0.89608,0.57031
2.152,0.55034,0.32063,0.375,0.90196,0.61523
2.16,0.58651,0.31378,0.32422,0.91569,0.65039
2.168,0.62366,0.30694,0.31445,0.92157,0.65039
2.176,0.65689,0.30108,0.30469,0.91569,0.66016
2.184,0.6911,0.29814,0.30078,0.90588,0.66406
2.192,0.72532,0.3001,0.32031,0.90196,0.65039
2.2,0.75953,0.30499,0.33008,0.91569,0.64062
2.208,0.79472,0.31574,0.29492,0.91176,0.66406
2.216,0.82991,0.33236,0.29102,0.92157,0.66406
2.224,0.8651,0.35582,0.30078,0.92549,0.66016
2.232,0.90029,0.38416,0.30078,0.92157,0.66016
2.24,0.93451,0.41544,0.2207,0.95686,0.69922
2.248,0.9697,0.44966,0.11133,0.99216,0.76562
2.256,0.98534,0.48387,0.28516,0.93725,0.65039
2.264,1,0.51711,0.70898,0.61961,0.38477
2.272,1,0.54643,1.2441,0.30392,0.099609
2.28,1,0.57283,1.2949,0.3,0.29492
2.288,1,0.59531,0.42969,0.56078,0.69531
2.296,1,0.6129,0.21484,0.7,0.7793
2.304,1,0.62561,0.29492,0.83137,0.69531
2.312,1,0.63441,0.32422,0.90588,0.66406
2.32,1,0.64125,0.29102,0.94706,0.67969
2.328,1,0.64614,0.25,0.96667,0.68555
2.336,1,0.64907,0.24023,0.97059,0.68945
2.344,1,0.64907,0.21484,0.96667,0.70898
2.352,1,0.64809,0.22461,0.96667,0.69531
2.36,1,0.64614,0.24609,0.97647,0.67969
2.368,1,0.64223,0.24609,0.96667,0.68945
2.376,1,0.63734,0.26562,0.96078,0.67969
2.384,1,0.63148,0.23438,0.96667,0.69531
2.392,1,0.62463,0.26953,0.96667,0.66992
2.4,1,0.61779,0.2793,0.96078,0.66406
2.408,1,0.60997,0.26953,0.96078,0.66406
2.416,1,0.6002,0.26562,0.95686,0.67578
2.424,1,0.58847,0.29492,0.95098,0.6543
2.432,1,0.57576,0.32031,0.94118,0.64062
2.44,1,0.56207,0.30078,0.95098,0.6543
2.448,1,0.54643,0.31055,0.94118,0.64453
2.456,1,0.53079,0.35547,0.92549,0.63477
2.464,1,0.51515,0.34961,0.92157,0.63477
2.472,1,0.49951,0.35938,0.91569,0.61914
2.48,1,0.48387,0.36523,0.90588,0.61914
2.488,1,0.46921,0.4043,0.90196,0.59961
2.496,1,0.45552,0.42578,0.90588,0.58984
2.504,1,0.44379,0.43555,0.8902,0.58984
2.512,1,0.43304,0.42578,0.88627,0.59961
2.52,1,0.42229,0.42969,0.89608,0.58984
2.528,1,0.41251,0.40039,0.88039,0.61914
2.536,1,0.40176,0.41016,0.88627,0.61523
2.544,1,0.39296,0.36523,0.90588,0.64453
2.552,1,0.38319,0.33594,0.91569,0.66406
2.56,1,0.37439,0.30469,0.92549,0.67969
2.568,1,0.36559,0.26953,0.93137,0.68945
2.576,1,0.35777,0.26562,0.94118,0.68945
2.584,1,0.34995,0.26562,0.93137,0.70508
2.592,1,0.34213,0.26953,0.92549,0.68945
2.6,1,0.33627,0.25,0.94118,0.70508
2.608,1,0.3304,0.25977,0.94118,0.68945
2.616,1,0.32454,0.25586,0.94118,0.70508
2.624,1,0.31769,0.2793,0.94706,0.67969
2.632,1,0.30987,0.29102,0.94706,0.67969
2.64,1,0.30108,0.26562,0.95098,0.68945
2.648,1,0.29228,0.31445,0.94706,0.65039
2.656,1,0.28152,0.28516,0.95098,0.67578
2.664,1,0.27273,0.33008,0.95686,0.65039
2.672,1,0.26588,0.3457,0.97059,0.64453
2.68,1,0.26002,0.39062,1.0157,0.61523
2.688,1,0.25318,0.42578,1.002,0.58984
2.696,1,0.24731,0.47461,0.99216,0.56445
2.704,1,0.2434,0.46484,0.96078,0.57031
2.712,1,0.24047,0.44922,0.91569,0.56445
2.72,1,0.23754,0.41016,0.88039,0.58984
2.728,1,0.23363,0.41602,0.87059,0.59961
2.736,1,0.23069,0.36523,0.90196,0.62891
2.744,1,0.22776,0.3457,0.90196,0.64062
2.752,1,0.22483,0.30078,0.92157,0.66406
2.76,1,0.22287,0.28516,0.90196,0.67578
2.768,1,0.22092,0.30469,0.91176,0.66992
2.776,1,0.21994,0.28516,0.90588,0.68555
2.784,1,0.21994,0.29492,0.92157,0.66406
2.792,1,0.22287,0.28516,0.90588,0.66992
2.8,1,0.22874,0.30469,0.90196,0.68555
2.808,1,0.23754,0.27539,0.91569,0.68555
2.816,1,0.25122,0.29492,0.91176,0.66406
2.824,1,0.26979,0.22461,0.93725,0.70508
2.832,1,0.29326,0.10547,0.98627,0.77539
2.84,1,0.32063,0.18555,0.99216,0.7793
2.848,1,0.35191,0.52539,0.7902,0.50977
2.856,1,0.38416,1.1152,0.4098,0.16602
2.864,1,0.41642,1.2949,0.31961,0.095703
2.872,1,0.4477,0.65039,0.50588,0.57031
2.88,1,0.47605,0.26953,0.67647,0.75977
2.888,1,0.50049,0.20508,0.8,0.7793
2.896,1,0.52102,0.30078,0.87647,0.68555
2.904,1,0.53568,0.24609,0.93725,0.69922
2.912,1,0.54643,0.25977,0.94706,0.68555
2.92,1,0.55327,0.24023,0.94118,0.69531
2.928,1,0.55816,0.2207,0.95686,0.70898
2.936,1,0.56012,0.23047,0.95098,0.70508
2.944,1,0.56012,0.21484,0.95686,0.70898
2.952,1,0.55816,0.24609,0.95098,0.68945
2.96,1,0.55327,0.23438,0.96078,0.69922
2.968,1,0.54839,0.28516,0.96078,0.66992
2.976,1,0.54057,0.26562,0.94706,0.67969
2.984,1,0.53275,0.26953,0.94118,0.68555
2.992,1,0.52297,0.26562,0.94118,0.67578
3,1,0.5132,0.29492,0.94118,0.66406
3.008,1,0.50342,0.28516,0.93137,0.67578
3.016,1,0.49169,0.31055,0.92157,0.66406
3.024,1,0.47898,0.30469,0.93137,0.66016
3.032,1,0.46432,0.33984,0.91569,0.63477
3.04,1,0.45064,0.35547,0.91176,0.62891
3.048,1,0.43597,0.3457,0.91176,0.64062
3.056,1,0.42229,0.37109,0.89608,0.62891
3.064,1,0.40958,0.41992,0.88039,0.59961
3.072,1,0.39785,0.43555,0.87647,0.58984
3.08,1,0.3871,0.41016,0.87059,0.60547
3.088,1,0.3783,0.44922,0.85686,0.58398
3.096,1,0.37048,0.45508,0.8451,0.58984
3.104,1,0.36461,0.4707,0.83137,0.57422
3.112,1,0.36168,0.43945,0.83529,0.59961
3.12,1,0.35777,0.44531,0.85098,0.60547
3.128,1,0.35484,0.41016,0.86667,0.61914
3.136,1,0.35288,0.39453,0.88039,0.63477
3.144,1,0.35093,0.34961,0.90196,0.65039
3.152,1,0.34897,0.33594,0.90588,0.66406
3.16,1,0.34702,0.30469,0.92157,0.67969
3.168,1,0.34604,0.2793,0.92157,0.69531
3.176,1,0.34409,0.28516,0.92549,0.68555
3.184,1,0.34213,0.28516,0.94118,0.67578
3.192,1,0.34018,0.31445,0.93725,0.66406
3.2,1,0.33822,0.28516,0.93137,0.68555
3.208,1,0.33724,0.27539,0.94118,0.68555
3.216,1,0.33529,0.28516,0.93137,0.68945
3.224,1,0.33138,0.30469,0.93725,0.66406
3.232,1,0.32747,0.32031,0.94118,0.66016
3.24,1,0.32258,0.34961,0.95098,0.63477
3.248,1,0.31769,0.40039,0.97059,0.59961
3.256,1,0.31183,0.41016,0.99216,0.5957
3.264,1,0.30694,0.4707,0.99608,0.57031
3.272,1,0.30205,0.48047,0.97647,0.56055
3.28,1,0.29717,0.44922,0.92549,0.57422
3.288,1,0.29228,0.41992,0.88627,0.58984
3.296,1,0.28837,0.41016,0.87059,0.58984
3.304,1,0.28641,0.40039,0.89608,0.60938
3.312,1,0.2825,0.35938,0.90196,0.62891
3.32,1,0.27859,0.33594,0.91176,0.64062
3.328,1,0.27566,0.33008,0.90588,0.64453
3.336,1,0.27175,0.30469,0.8902,0.66992
3.344,1,0.26784,0.31055,0.88627,0.66406
3.352,1,0.26393,0.28516,0.89608,0.67578
3.36,1,0.261,0.29492,0.89608,0.66406
3.368,1,0.25904,0.30469,0.89608,0.66406
3.376,1,0.25709,0.31055,0.89608,0.6543
3.384,1,0.25806,0.29492,0.90196,0.65039
3.392,1,0.26197,0.26953,0.91569,0.67969
3.4,1,0.26882,0.15039,0.96667,0.74414
3.408,1,0.27957,0.099609,0.98235,0.77539
3.416,1,0.29521,0.44531,0.82549,0.55078
3.424,1,0.31672,0.94531,0.42941,0.25
3.432,1,0.34311,1.3535,0.21373,0.080078
3.44,1,0.37341,0.84961,0.3451,0.43555
3.448,1,0.40567,0.3457,0.57451,0.71484
3.456,1,0.43891,0.21484,0.75098,0.76562
3.464,1,0.47116,0.26953,0.85098,0.70508
3.472,1,0.50635,0.24609,0.91176,0.69922
3.48,1,0.53959,0.21484,0.94118,0.71484
3.488,1,0.56598,0.20508,0.95098,0.71484
3.496,1,0.58358,0.21484,0.94706,0.70508
3.504,1,0.59629,0.21094,0.95686,0.70898
3.512,1,0.60704,0.23047,0.96078,0.68555
3.52,1,0.61388,0.21484,0.95686,0.69922
3.528,1,0.61877,0.2207,0.94706,0.70898
3.536,1,0.62072,0.24023,0.94706,0.68555
3.544,1,0.62072,0.24609,0.95098,0.68555
3.552,1,0.61877,0.24023,0.94118,0.68555
3.56,1,0.61486,0.25586,0.95098,0.67578
3.568,1,0.60899,0.25,0.92549,0.68555
3.576,1,0.60117,0.26562,0.92549,0.67578
3.584,1,0.59042,0.25586,0.92549,0.67969
3.592,1,0.57967,0.26953,0.92157,0.66992
3.6,1,0.56794,0.28516,0.92157,0.66406
3.608,1,0.55621,0.32031,0.92157,0.64062
3.616,1,0.54252,0.33008,0.91569,0.64062
3.624,1,0.52884,0.35547,0.91569,0.625
3.632,1,0.51417,0.35938,0.90588,0.62891
3.64,1,0.49951,0.38477,0.89608,0.61523
3.648,0.9912,0.48583,0.4043,0.88039,0.60547
3.656,0.98143,0.4741,0.43555,0.87059,0.58398
3.664,0.95503,0.46237,0.44531,0.86667,0.58398
3.672,0.92864,0.45259,0.41992,0.8451,0.59961
3.68,0.90029,0.44282,0.43555,0.8451,0.58984
3.688,0.87195,0.43597,0.41992,0.85686,0.5957
3.696,0.84555,0.43206,0.39453,0.86078,0.61914
3.704,0.81818,0.42815,0.37109,0.87059,0.64062
3.712,0.79179,0.42522,0.33984,0.8902,0.6543
3.72,0.7654,0.42229,0.30078,0.89608,0.67969
3.728,0.73412,0.41935,0.28516,0.90196,0.68555
3.736,0.70186,0.4174,0.27539,0.89608,0.68555
3.744,0.66569,0.41447,0.28516,0.89608,0.67969
3.752,0.62952,0.41251,0.2793,0.91176,0.67969
3.76,0.59238,0.40958,0.29492,0.91176,0.66406
3.768,0.55523,0.40665,0.27539,0.91176,0.68555
3.776,0.51711,0.40371,0.30078,0.91569,0.66406
3.784,0.47898,0.40078,0.32422,0.91176,0.64062
3.792,0.43304,0.39785,0.30469,0.91176,0.66406
3.8,0.38612,0.39492,0.30078,0.92157,0.66992
3.808,0.33236,0.39296,0.33984,0.93137,0.63477
3.816,0.27859,0.39003,0.375,0.94706,0.61523
3.824,0.21799,0.38612,0.41602,0.97647,0.5957
3.832,0.15738,0.38319,0.48438,0.98627,0.55469
3.84,0.092864,0.37928,0.47461,0.96667,0.56055
3.848,0.028348,0.37634,0.45508,0.90588,0.57422
3.856,0.013685,0.37243,0.41992,0.87647,0.58984
3.864,0,0.36852,0.42578,0.86667,0.58008
3.872,0,0.36461,0.38477,0.88039,0.61523
3.88,0,0.35973,0.35938,0.8902,0.63477
3.888,0,0.35582,0.33594,0.8902,0.64453
3.896,0,0.35191,0.33008,0.8902,0.63477
3.904,0,0.34897,0.33594,0.8902,0.63477
3.912,0,0.34506,0.31055,0.88627,0.6543
3.92,0,0.34018,0.32031,0.8902,0.66406
3.928,0,0.33529,0.32031,0.8902,0.65039
3.936,0,0.33236,0.33984,0.8902,0.63477
3.944,0,0.3304,0.32422,0.88627,0.64453
3.952,0,0.33138,0.32031,0.89608,0.65039
3.96,0,0.33822,0.2793,0.90588,0.66992
3.968,0,0.34995,0.18945,0.94118,0.72461
3.976,0,0.36852,0.14453,0.96667,0.75
3.984,0,0.39296,0.49414,0.8,0.51562
3.992,0,0.42229,0.97461,0.38431,0.23438
4,0,0.45161,1.375,0.13333,0.060547
4.008,0,0.47898,0.84961,0.2451,0.42578
4.016,0,0.51124,0.2793,0.49412,0.74414
4.024,0,0.5435,0.23438,0.72157,0.75391
4.032,0,0.5738,0.28516,0.82549,0.69531
4.04,0,0.60215,0.26562,0.90588,0.68555
4.048,0,0.62561,0.21094,0.94118,0.70898
4.056,0,0.64614,0.19531,0.94706,0.7207
4.064,0,0.66178,0.18945,0.95098,0.71484
4.072,0,0.67351,0.19531,0.95098,0.71484
4.08,0,0.68231,0.17969,0.94706,0.73047
4.088,0,0.68817,0.19531,0.94118,0.7207
4.096,0,0.6911,0.19531,0.94118,0.72461
4.104,0,0.6911,0.20117,0.94118,0.70898
4.112,0,0.6911,0.19531,0.94118,0.70898
4.12,0,0.68915,0.21094,0.94706,0.69922
4.128,0,0.68719,0.2207,0.94118,0.68945
4.136,0,0.68328,0.21484,0.94118,0.70508
4.144,0,0.67742,0.2207,0.94118,0.69531
4.152,0,0.67058,0.22461,0.93725,0.69922
4.16,0,0.66178,0.24023,0.93725,0.68945
4.168,0,0.65103,0.25,0.94118,0.67969
4.176,0,0.6393,0.27539,0.93725,0.68555
4.184,0,0.62561,0.30469,0.94118,0.65039
4.192,0,0.61193,0.31445,0.93725,0.64453
4.2,0,0.59824,0.31055,0.93725,0.66016
4.208,0,0.58553,0.36523,0.93137,0.62891
4.216,0,0.57185,0.4043,0.93725,0.5957
4.224,0,0.55816,0.41992,0.92157,0.58984
4.232,0,0.54545,0.43555,0.91176,0.5957
4.24,0,0.53275,0.44531,0.90588,0.58984
4.248,0,0.52102,0.44922,0.91176,0.58984
4.256,0,0.51124,0.43945,0.91176,0.5957
4.264,0,0.50244,0.42969,0.91176,0.58984
4.272,0,0.49365,0.40039,0.91176,0.61523
4.28,0,0.4868,0.35547,0.91569,0.64453
4.288,0,0.48094,0.33594,0.91569,0.66016
4.296,0,0.47507,0.33008,0.92157,0.64453
4.304,0,0.47116,0.30469,0.90588,0.66992
4.312,0,0.46725,0.30078,0.91176,0.67578
4.32,0,0.46334,0.31445,0.89608,0.66406
4.328,0,0.45846,0.32422,0.89608,0.6543
4.336,0,0.45357,0.33594,0.90196,0.65039
4.344,0,0.44966,0.33008,0.91176,0.63477
4.352,0,0.44477,0.35938,0.90588,0.625
4.36,0,0.43988,0.35547,0.90196,0.64062
4.368,0,0.435,0.37109,0.92157,0.625
4.376,0,0.43011,0.39062,0.92549,0.61523
4.384,0,0.42522,0.44531,0.96078,0.58008
4.392,0,0.41935,0.5,0.99216,0.54492
4.4,0,0.41544,0.53516,0.98627,0.52539
4.408,0,0.41153,0.53516,0.97059,0.51953
4.416,0,0.40665,0.49414,0.93137,0.54492
4.424,0,0.40078,0.46094,0.91176,0.55469
4.432,0,0.39589,0.42969,0.87647,0.58008
4.44,0,0.39003,0.42969,0.88627,0.58398
4.448,0,0.38514,0.40039,0.89608,0.60938
4.456,0,0.37928,0.38477,0.90196,0.60938
4.464,0,0.37341,0.36523,0.90588,0.625
4.472,0,0.36755,0.36523,0.89608,0.61523
4.48,0,0.36168,0.35547,0.90196,0.63477
4.488,0,0.35679,0.34961,0.89608,0.64062
4.496,0,0.35288,0.35938,0.90588,0.625
4.504,0,0.35288,0.36523,0.90588,0.62891
4.512,0,0.35386,0.38086,0.90588,0.60938
4.52,0,0.3607,0.35938,0.90196,0.625
4.528,0,0.37146,0.31445,0.92157,0.6543
4.536,0,0.38905,0.20117,0.95098,0.7207
4.544,0,0.41349,0.17578,0.96667,0.73047
4.552,0,0.44282,0.57031,0.7,0.46094
4.56,0,0.47507,1.0938,0.27843,0.16016
4.568,0,0.51026,1.3145,0.07451,0.060547
4.576,0,0.54643,0.64062,0.26471,0.55078
4.584,0,0.57967,0.23438,0.5549,0.77539
4.592,0,0.61095,0.2793,0.7549,0.71484
4.6,0,0.63539,0.25977,0.85686,0.70898
4.608,0,0.65396,0.2207,0.92549,0.71484
4.616,0,0.67253,0.21094,0.95098,0.70898
4.624,0,0.68915,0.18945,0.95686,0.7207
4.632,0,0.70283,0.17969,0.96078,0.72461
4.64,0,0.71457,0.16992,0.96667,0.73438
4.648,0,0.72239,0.16602,0.96667,0.73438
4.656,0,0.72923,0.16992,0.96667,0.73047
4.664,0,0.73314,0.16992,0.95686,0.73438
4.672,0,0.73509,0.17578,0.96078,0.72461
4.68,0,0.73509,0.16992,0.96667,0.73438
4.688,0,0.73412,0.17578,0.96667,0.72461
4.696,0,0.73118,0.20117,0.95686,0.70898
4.704,0,0.72434,0.21484,0.96078,0.70508
4.712,0,0.7175,0.19531,0.95098,0.7207
4.72,0,0.71163,0.21094,0.94706,0.70898
4.728,0,0.70381,0.21484,0.94706,0.70898
4.736,0,0.69404,0.24023,0.95098,0.68945
4.744,0,0.68231,0.25586,0.95686,0.68555
4.752,0,0.6696,0.26953,0.95098,0.67578
4.76,0,0.65494,0.29102,0.96667,0.66992
4.768,0,0.64027,0.29492,0.96667,0.67578
4.776,0,0.62561,0.3457,0.96667,0.64453
4.784,0,0.60997,0.37109,0.95098,0.63477
4.792,0,0.59629,0.36523,0.95098,0.63477
4.8,0,0.58358,0.39453,0.94706,0.61914
4.808,0,0.57185,0.42969,0.94118,0.5957
4.816,0,0.56109,0.41602,0.93725,0.60938
4.824,0,0.54936,0.4043,0.92157,0.61523
4.832,0,0.53959,0.39062,0.92157,0.62891
4.84,0,0.53079,0.35938,0.91569,0.64453
4.848,0,0.52199,0.32422,0.91569,0.66406
4.856,0,0.5132,0.29102,0.91569,0.67969
4.864,0,0.50538,0.28516,0.90588,0.68555
4.872,0,0.49756,0.2793,0.91569,0.67969
4.88,0,0.49071,0.27539,0.91569,0.68555
4.888,0,0.48289,0.27539,0.91176,0.68555
4.896,0,0.47703,0.28516,0.91176,0.67578
4.904,0,0.47214,0.27539,0.90588,0.68945
4.912,0,0.46628,0.30469,0.89608,0.66406
4.92,0,0.45943,0.32422,0.91176,0.6543
4.928,0,0.45357,0.32031,0.91569,0.6543
4.936,0,0.44575,0.31445,0.92157,0.65039
4.944,0,0.43891,0.33594,0.90588,0.64062
4.952,0,0.43109,0.32422,0.90196,0.66016
4.96,0,0.42424,0.34961,0.91569,0.64062
4.968,0,0.41642,0.38477,0.92157,0.60547
4.976,0,0.40958,0.42969,0.96078,0.58984
4.984,0,0.40274,0.48047,0.99216,0.57422
4.992,0,0.39589,0.5,1.002,0.55469
5,0,0.39003,0.50977,0.96667,0.54492
5.008,0,0.38514,0.55469,0.95686,0.51953
5.016,0,0.3783,0.52539,0.92157,0.53516
5.024,0,0.37243,0.49414,0.8902,0.55078
5.032,0,0.36461,0.4707,0.88039,0.56055
5.04,0,0.35777,0.43945,0.88627,0.58398
5.048,0,0.35093,0.38477,0.89608,0.61914
5.056,0,0.34409,0.34961,0.88627,0.64062
5.064,0,0.34018,0.33008,0.89608,0.64453
5.072,0,0.3392,0.32031,0.88627,0.6543
5.08,0,0.34311,0.31055,0.89608,0.66016
5.088,0,0.35288,0.31445,0.8902,0.65039
5.096,0,0.36559,0.32031,0.88039,0.66406
5.104,0,0.38221,0.33594,0.8902,0.64453
5.112,0,0.40567,0.33594,0.8902,0.6543
5.12,0,0.43402,0.33594,0.89608,0.64453
5.128,0,0.4653,0.3457,0.89608,0.64062
5.136,0,0.49853,0.29102,0.91176,0.66406
5.144,0,0.53079,0.19531,0.95098,0.71484
5.152,0,0.56207,0.16992,0.96078,0.72461
5.16,0,0.59042,0.51953,0.65098,0.49414
5.168,0,0.61486,1.0195,0.23922,0.21094
5.176,0,0.63636,1.2285,0.058824,0.125
5.184,0,0.65396,0.51953,0.27451,0.625
5.192,0,0.66667,0.16992,0.55098,0.81055
5.2,0,0.67546,0.24609,0.7451,0.74414
5.208,0,0.68328,0.26562,0.8451,0.70508
5.216,0,0.68915,0.21484,0.91569,0.71484
5.224,0,0.69404,0.18945,0.94118,0.73047
5.232,0,0.69697,0.16602,0.95098,0.74023
5.24,0,0.69795,0.16016,0.95098,0.74414
5.248,0,0.69795,0.16992,0.95686,0.73047
5.256,0,0.69697,0.14453,0.94706,0.75
5.264,0,0.69404,0.15625,0.95098,0.74023
5.272,0,0.68915,0.17969,0.95098,0.7207
5.28,0,0.68231,0.18555,0.94118,0.7207
5.288,0,0.67449,0.19531,0.94118,0.71484
5.296,0,0.66471,0.19531,0.94118,0.7207
5.304,0,0.65494,0.18945,0.94706,0.72461
5.312,0,0.64223,0.17969,0.94706,0.72461
5.32,0,0.62757,0.18945,0.95686,0.71484
5.328,0,0.61193,0.21094,0.94706,0.7207
5.336,0,0.59629,0.23047,0.95686,0.69922
5.344,0,0.58065,0.24023,0.96078,0.70508
5.352,0,0.565,0.25977,0.96078,0.67969
5.36,0,0.55034,0.2793,0.96667,0.67578
5.368,0,0.53568,0.31445,0.96667,0.65039
5.376,0,0.52395,0.33984,0.96667,0.63477
5.384,0,0.51222,0.36523,0.97059,0.64062
5.392,0,0.50342,0.40039,0.98235,0.60938
5.4,0,0.4956,0.42578,0.97059,0.5957
5.408,0,0.48876,0.43945,0.97059,0.58984
5.416,0,0.48289,0.43945,0.96667,0.5957
5.424,0,0.47703,0.46484,0.95098,0.58398
5.432,0,0.47116,0.44922,0.95686,0.58008
5.44,0,0.4653,0.42969,0.94118,0.59961
5.448,0,0.46041,0.40039,0.94706,0.61523
5.456,0,0.45552,0.33984,0.93725,0.6543
5.464,0,0.45064,0.31445,0.92549,0.66992
5.472,0,0.44575,0.32031,0.93137,0.66406
5.48,0,0.44086,0.29102,0.92157,0.67578
5.488,0,0.43597,0.27539,0.93137,0.68555
5.496,0,0.43206,0.26953,0.92157,0.68555
5.504,0,0.42717,0.28516,0.93725,0.66992
5.512,0,0.42229,0.2793,0.93725,0.67578
5.52,0,0.40078,0.31055,0.93137,0.66016
5.528,0,0.37146,0.30469,0.93725,0.6543
5.536,0,0.35191,0.32422,0.93725,0.65039
5.544,0,0.33822,0.31445,0.94706,0.64062
5.552,0,0.32649,0.32422,0.95098,0.66016
5.56,0,0.31769,0.30078,0.94706,0.6543
5.568,0,0.3089,0.35938,0.96667,0.61914
5.576,0,0.30108,0.39062,0.98627,0.5957
5.584,0,0.29423,0.43945,1.0157,0.57031
5.592,0,0.28837,0.49414,1.0059,0.55078
5.6,0,0.28446,0.50586,0.98627,0.53906
5.608,0,0.27957,0.47461,0.95098,0.55078
5.616,0,0.2737,0.41992,0.91176,0.57422
5.624,0,0.26784,0.40039,0.87647,0.58398
5.632,0,0.26197,0.4043,0.8902,0.58984
5.64,0,0.25513,0.375,0.91176,0.60938
5.648,0,0.24731,0.33594,0.91569,0.64062
5.656,0,0.24047,0.33008,0.92157,0.62891
5.664,0,0.2346,0.31445,0.91569,0.64453
5.672,0,0.23069,0.33594,0.90588,0.63477
5.68,0,0.23069,0.32031,0.91569,0.62891
5.688,0,0.23754,0.31445,0.90588,0.64062
5.696,0.0097752,0.24829,0.31055,0.91176,0.64062
5.704,0.020528,0.26588,0.32422,0.91176,0.63477
5.712,0.077224,0.2913,0.33008,0.90588,0.65039
5.72,0.13392,0.32454,0.29102,0.91569,0.66406
5.728,0.19844,0.37634,0.17578,0.95686,0.72461
5.736,0.26197,0.42522,0.11523,0.98235,0.75391
5.744,0.32747,0.46041,0.43945,0.83137,0.53516
5.752,0.39296,0.49853,0.94531,0.4451,0.23438
5.76,0.45846,0.53568,1.3184,0.26471,0.089844
5.768,0.52297,0.56989,0.78906,0.41569,0.47461
5.776,0.58065,0.59922,0.33594,0.6098,0.7207
5.784,0.63734,0.62366,0.26953,0.76667,0.74414
5.792,0.68719,0.64027,0.32031,0.86078,0.66406
5.8,0.73705,0.65298,0.29102,0.93725,0.66016
5.808,0.78397,0.66276,0.27539,0.96078,0.67578
5.816,0.83089,0.67058,0.24023,0.96667,0.69531
5.824,0.87488,0.67644,0.25,0.97647,0.67969
5.832,0.91887,0.68035,0.26562,0.96667,0.66406
5.84,0.95503,0.68328,0.24023,0.96667,0.68555
5.848,0.99218,0.68328,0.24023,0.96667,0.68945
5.856,0.99609,0.68231,0.24609,0.97647,0.67578
5.864,1,0.67937,0.26562,0.96667,0.66992
5.872,1,0.67351,0.25977,0.96078,0.67969
5.88,1,0.66569,0.26953,0.96078,0.66406
5.888,1,0.65494,0.25586,0.95686,0.66992
5.896,1,0.64321,0.26562,0.95098,0.66406
5.904,1,0.6305,0.27539,0.95098,0.66016
5.912,1,0.61486,0.30078,0.94706,0.64453
5.92,1,0.59726,0.26562,0.94706,0.66992
5.928,1,0.57771,0.29492,0.94706,0.6543
5.936,1,0.55816,0.31055,0.94118,0.64062
5.944,1,0.53763,0.31445,0.92549,0.65039
5.952,1,0.51711,0.31055,0.93137,0.6543
5.96,1,0.49756,0.34961,0.92549,0.62891
5.968,1,0.47898,0.35547,0.92157,0.63477
5.976,1,0.46139,0.39453,0.91176,0.60938
5.984,1,0.44477,0.40039,0.90196,0.60938
5.992,1,0.43304,0.39062,0.90196,0.60938
6,1,0.42229,0.41602,0.89608,0.5957
6.008,1,0.41251,0.41016,0.89608,0.61523
6.016,1,0.40469,0.38086,0.89608,0.625
6.024,1,0.39687,0.34961,0.90588,0.64062
6.032,1,0.39101,0.31055,0.91569,0.66992
6.04,1,0.38514,0.29102,0.92549,0.67969
6.048,1,0.37928,0.25586,0.93137,0.69922
6.056,1,0.37341,0.22461,0.93725,0.71484
6.064,1,0.36657,0.24023,0.92549,0.70898
6.072,1,0.35973,0.21484,0.92549,0.7207
6.08,1,0.35288,0.2207,0.91569,0.72461
6.088,1,0.34604,0.23438,0.93137,0.68555
6.096,1,0.34115,0.21094,0.93137,0.71484
6.104,1,0.33627,0.24609,0.92157,0.69531
6.112,1,0.3304,0.24023,0.94118,0.68945
6.12,1,0.32454,0.26562,0.92157,0.68555
6.128,1,0.31867,0.22461,0.92549,0.70898
6.136,1,0.31183,0.25,0.93137,0.68555
6.144,1,0.30401,0.26562,0.92549,0.67969
6.152,1,0.29619,0.26953,0.94118,0.67578
6.16,1,0.28739,0.29102,0.92157,0.66406
6.168,1,0.27859,0.31055,0.95098,0.6543
6.176,1,0.27077,0.35547,0.96667,0.625
6.184,1,0.26197,0.36523,0.99608,0.61914
6.192,1,0.25513,0.40039,0.97059,0.5957
6.2,1,0.24927,0.45508,0.97059,0.56055
6.208,1,0.24242,0.43945,0.94706,0.57031
6.216,1,0.23558,0.42578,0.88627,0.58984
6.224,1,0.22776,0.38477,0.86667,0.58398
6.232,1,0.21994,0.39062,0.87059,0.58984
6.24,1,0.21212,0.35547,0.87059,0.625
6.248,1,0.2043,0.32422,0.88039,0.64453
6.256,1,0.1955,0.26953,0.89608,0.67578
6.264,1,0.18866,0.28516,0.89608,0.6543
6.272,1,0.18182,0.26562,0.8902,0.67578
6.28,1,0.17889,0.28516,0.88039,0.66992
6.288,1,0.17986,0.27539,0.89608,0.66406
6.296,1,0.18573,0.2793,0.8902,0.68555
6.304,1,0.19648,0.24609,0.88627,0.69531
6.312,1,0.2131,0.2793,0.88039,0.66406
6.32,1,0.23558,0.25586,0.88627,0.68945
6.328,1,0.26393,0.23047,0.90196,0.68555
6.336,1,0.29619,0.11133,0.95098,0.76562
6.344,1,0.33138,0.089844,0.95686,0.77539
6.352,1,0.36559,0.50586,0.77059,0.50586
6.36,1,0.3998,1.0293,0.4,0.20117
6.368,1,0.43011,1.2734,0.29412,0.095703
6.376,1,0.45748,0.66992,0.47451,0.54492
6.384,1,0.47996,0.29102,0.6451,0.74414
6.392,1,0.49756,0.21484,0.76078,0.76953
6.4,1,0.51124,0.28516,0.84118,0.68945
6.408,1,0.52297,0.25586,0.90196,0.67578
6.416,1,0.53372,0.23438,0.91569,0.69531
6.424,1,0.54154,0.24023,0.92157,0.68555
6.432,1,0.54741,0.22461,0.93725,0.68945
6.44,1,0.55034,0.2207,0.93725,0.68555
6.448,1,0.55034,0.24023,0.94118,0.68945
6.456,1,0.54741,0.20117,0.92157,0.70898
6.464,1,0.54252,0.23047,0.91569,0.69922
6.472,1,0.5347,0.24609,0.92157,0.67969
6.48,1,0.52395,0.25586,0.92157,0.68555
6.488,1,0.51124,0.25977,0.91569,0.67578
6.496,1,0.49951,0.26562,0.92157,0.67578
6.504,1,0.4868,0.28516,0.90588,0.66016
6.512,1,0.47214,0.30469,0.90196,0.64453
6.52,1,0.45552,0.28516,0.89608,0.66406
6.528,1,0.43793,0.30078,0.8902,0.66016
6.536,1,0.42033,0.29492,0.89608,0.66406
6.544,1,0.40371,0.33594,0.88039,0.64062
6.552,1,0.3871,0.36523,0.88627,0.625
6.56,1,0.37146,0.38086,0.87059,0.61523
6.568,1,0.35679,0.41016,0.85686,0.5957
6.576,1,0.34409,0.39062,0.8451,0.60938
6.584,1,0.33333,0.43555,0.83529,0.5957
6.592,1,0.32551,0.44531,0.82157,0.58984
6.6,1,0.31965,0.44922,0.82157,0.58398
6.608,1,0.31574,0.44531,0.8,0.5957
6.616,1,0.31183,0.46094,0.80588,0.58008
6.624,1,0.30792,0.44922,0.81176,0.58984
6.632,1,0.30499,0.43555,0.81569,0.59961
6.64,1,0.30205,0.36523,0.83137,0.64453
6.648,1,0.3001,0.33008,0.8451,0.66406
6.656,1,0.29717,0.33984,0.86078,0.6543
6.664,1,0.29326,0.29492,0.87059,0.67969
6.672,1,0.28935,0.28516,0.87647,0.68555
6.68,1,0.28543,0.30469,0.88039,0.66406
6.688,1,0.28055,0.26562,0.87059,0.69922
6.696,1,0.27761,0.24023,0.87059,0.71484
6.704,1,0.27468,0.29102,0.86667,0.67969
6.712,1,0.27077,0.26953,0.87647,0.68555
6.72,1,0.26491,0.29492,0.87059,0.67578
6.728,1,0.26002,0.31055,0.87059,0.6543
6.736,1,0.25415,0.29102,0.86667,0.66992
6.744,1,0.24927,0.28516,0.88039,0.66016
6.752,1,0.24145,0.32422,0.87647,0.63477
6.76,1,0.23363,0.30469,0.86667,0.66406
6.768,1,0.22776,0.34961,0.88627,0.63477
6.776,1,0.21994,0.39453,0.91176,0.60547
6.784,1,0.2131,0.42969,0.93137,0.58984
6.792,1,0.20723,0.5,0.92157,0.53906
6.8,1,0.20235,0.49023,0.90196,0.53516
6.808,1,0.1955,0.43555,0.84118,0.58008
6.816,1,0.18964,0.39453,0.80588,0.60547
6.824,1,0.18377,0.40039,0.8,0.58984
6.832,1,0.17889,0.375,0.83529,0.61523
6.84,1,0.174,0.3457,0.8451,0.63477
6.848,1,0.16911,0.33008,0.8451,0.64062
6.856,1,0.16422,0.2793,0.8451,0.66992
6.864,1,0.16031,0.28516,0.8451,0.67578
6.872,1,0.15738,0.29102,0.85098,0.66406
6.88,1,0.15543,0.2793,0.8451,0.67578
6.888,1,0.1564,0.29102,0.8451,0.66992
6.896,1,0.16031,0.26953,0.85686,0.67969
6.904,1,0.16911,0.26562,0.86667,0.67578
6.912,1,0.18377,0.25586,0.85098,0.68945
6.92,1,0.20528,0.20508,0.87647,0.7207
6.928,1,0.23265,0.10547,0.92157,0.76953
6.936,1,0.26491,0.22461,0.92549,0.68945
6.944,1,0.30205,0.58398,0.62941,0.46484
6.952,1,0.34018,1.1641,0.24902,0.13477
6.96,1,0.3783,1.3145,0.19412,0.085938
6.968,1,0.41447,0.51953,0.43529,0.625
6.976,1,0.4477,0.23047,0.62941,0.76562
6.984,1,0.47605,0.20508,0.78039,0.74414
6.992,1,0.49853,0.25586,0.86078,0.69922
7,1,0.51515,0.22461,0.92157,0.69531
7.008,1,0.52981,0.19531,0.94118,0.71484
7.016,1,0.54154,0.19531,0.94706,0.70898
7.024,1,0.55034,0.20117,0.95686,0.70508
7.032,1,0.55523,0.19531,0.95098,0.71484
7.04,1,0.55914,0.20508,0.95686,0.70508
7.048,1,0.55914,0.20117,0.95098,0.70898
7.056,1,0.55718,0.21484,0.96078,0.69922
7.064,1,0.55327,0.24023,0.96667,0.67969
7.072,0.99707,0.54741,0.25,0.95686,0.67578
7.08,0.99316,0.53861,0.21484,0.94118,0.70898
7.088,0.94624,0.52884,0.24023,0.94118,0.68945
7.096,0.89932,0.51808,0.25,0.94118,0.68555
7.104,0.8436,0.5044,0.24023,0.93725,0.68945
7.112,0.7869,0.48876,0.23047,0.93137,0.69922
7.12,0.73216,0.47214,0.25,0.93725,0.68555
7.128,0.67742,0.45552,0.28516,0.92157,0.66406
7.136,0.62366,0.43793,0.29102,0.92157,0.66406
7.144,0.57087,0.42131,0.30078,0.91569,0.66992
7.152,0.51222,0.40469,0.33008,0.91176,0.65039
7.16,0.45455,0.39003,0.37109,0.91176,0.625
7.168,0.39198,0.37634,0.39062,0.90588,0.60938
7.176,0.3304,0.36461,0.4043,0.91176,0.59961
7.184,0.26784,0.35484,0.42969,0.90196,0.58398
7.192,0.20528,0.34702,0.42578,0.8902,0.60547
7.2,0.14467,0.34213,0.43555,0.90196,0.58984
7.208,0.085044,0.33724,0.44922,0.8902,0.58398
7.216,0.042033,0.33431,0.41602,0.88627,0.61523
7.224,0,0.33236,0.38086,0.90196,0.64062
7.232,0,0.33138,0.35547,0.92157,0.65039
7.24,0,0.33138,0.33008,0.93725,0.6543
7.248,0,0.33138,0.30469,0.93137,0.67969
7.256,0,0.33138,0.27539,0.95098,0.69531
7.264,0,0.33236,0.2793,0.95098,0.68555
7.272,0,0.33236,0.26953,0.95686,0.68555
7.28,0,0.33236,0.27539,0.96667,0.68945
7.288,0,0.33236,0.2793,0.96667,0.68555
7.296,0,0.33236,0.30078,0.96667,0.66406
7.304,0,0.33236,0.31055,0.96667,0.66406
7.312,0,0.3304,0.30078,0.97059,0.66992
7.32,0,0.32942,0.31055,0.97647,0.66406
7.328,0,0.32649,0.32422,0.97647,0.6543
7.336,0,0.32454,0.33594,0.98235,0.64453
7.344,0,0.32063,0.35938,0.99216,0.62891
7.352,0,0.31769,0.41992,1.0314,0.5957
7.36,0,0.31476,0.48438,1.0569,0.55078
7.368,0,0.31183,0.51562,1.0471,0.53516
7.376,0,0.30987,0.47461,1.0157,0.56445
7.384,0,0.30694,0.44922,0.97059,0.57422
7.392,0,0.30499,0.41602,0.94118,0.58984
7.4,0,0.30303,0.42578,0.93137,0.58984
7.408,0,0.30108,0.38477,0.96078,0.625
7.416,0,0.29912,0.3457,0.96078,0.64453
7.424,0,0.29619,0.32031,0.96078,0.66016
7.432,0,0.29326,0.31055,0.95686,0.66406
7.44,0,0.29032,0.30469,0.96078,0.6543
7.448,0,0.28739,0.30078,0.95686,0.66406
7.456,0,0.28446,0.31055,0.95098,0.66016
7.464,0,0.28446,0.31445,0.94706,0.66406
7.472,0,0.28641,0.31055,0.95686,0.6543
7.48,0,0.29326,0.32031,0.95686,0.65039
7.488,0,0.30303,0.28516,0.95098,0.67578
7.496,0,0.31769,0.25,0.97647,0.68945
7.504,0,0.3392,0.15039,1.0275,0.74414
7.512,0,0.36852,0.27539,1.0314,0.6543
7.52,0,0.40371,0.67969,0.66078,0.40039
7.528,0,0.44282,1.2344,0.24902,0.099609
7.536,0,0.48387,1.3633,0.16471,0.064453
7.544,0,0.52493,0.5,0.4098,0.63477
7.552,0,0.56305,0.2207,0.66078,0.77539
7.56,0,0.59824,0.25586,0.83137,0.73047
7.568,0,0.64418,0.2793,0.92157,0.70508
7.576,0,0.69404,0.21484,0.98235,0.71484
7.584,0,0.72532,0.17578,1.0059,0.73438
7.592,0,0.74487,0.16602,1.0059,0.74023
7.6,0,0.7566,0.15039,1.0118,0.73438
7.608,0,0.7654,0.13477,1.0059,0.76562
7.616,0,0.77126,0.14453,1.0118,0.75391
7.624,0,0.77419,0.16016,1.0059,0.74414
7.632,0,0.77517,0.17578,1.002,0.73438
7.64,0,0.77419,0.16992,1.002,0.73438
7.648,0,0.77126,0.17969,1.0059,0.73047
7.656,0,0.76637,0.17578,1.002,0.73047
7.664,0,0.75953,0.16992,0.99216,0.74023
7.672,0,0.74976,0.18555,0.99216,0.73047
7.68,0,0.73803,0.19531,0.99216,0.7207
7.688,0,0.7263,0.21484,0.99216,0.70898
7.696,0,0.71261,0.19531,0.99608,0.7207
7.704,0,0.69795,0.2207,1.0059,0.69922
7.712,0,0.68035,0.25977,1.0118,0.67578
7.72,0,0.66178,0.28516,0.99216,0.66406
7.728,0,0.64321,0.30078,0.99216,0.66406
7.736,0,0.62561,0.31445,0.99216,0.66406
7.744,0,0.60997,0.33594,0.99216,0.65039
7.752,0,0.59433,0.37109,0.98627,0.63477
7.76,0,0.58162,0.36523,0.98627,0.64062
7.768,0,0.56989,0.4043,0.99216,0.60938
7.776,0,0.55816,0.41016,0.97647,0.61523
7.784,0,0.54936,0.41602,0.97059,0.61523
7.792,0,0.54448,0.41016,0.96667,0.60938
7.8,0,0.53959,0.40039,0.95686,0.61523
7.808,0,0.5347,0.35938,0.95686,0.64062
7.816,0,0.53079,0.32031,0.96078,0.66406
7.824,0,0.5259,0.2793,0.96667,0.67969
7.832,0,0.52199,0.28516,0.94706,0.68555
7.84,0,0.51711,0.26953,0.94118,0.69531
7.848,0,0.51222,0.26562,0.95098,0.69531
7.856,0,0.50733,0.27539,0.94706,0.68555
7.864,0,0.50147,0.29492,0.94706,0.66406
7.872,0,0.4956,0.29102,0.95098,0.66992
7.88,0,0.48974,0.30469,0.95686,0.66406
7.888,0,0.48387,0.31055,0.96078,0.66016
7.896,0,0.47996,0.31055,0.94706,0.66406
7.904,0,0.4741,0.33594,0.94706,0.64453
7.912,0,0.46823,0.3457,0.95686,0.64062
7.92,0,0.46334,0.35547,0.96078,0.625
7.928,0,0.45748,0.33594,0.94706,0.64453
7.936,0,0.45064,0.4043,0.97647,0.60547
7.944,0,0.44477,0.45508,1.0118,0.57031
7.952,0,0.43793,0.48047,1.0157,0.56055
7.96,0,0.43011,0.50977,1.0059,0.53906
7.968,0,0.42229,0.49023,0.97059,0.55469
7.976,0,0.41349,0.43555,0.92157,0.58398
7.984,0,0.40371,0.4043,0.87647,0.5957
7.992,0,0.39589,0.4043,0.86667,0.59961
8,0,0.38514,0.38477,0.88039,0.60938
8.008,0,0.37439,0.33984,0.88627,0.64062
8.016,0,0.36559,0.33008,0.8902,0.6543
8.024,0,0.35777,0.30469,0.88039,0.66406
8.032,0,0.35093,0.32031,0.88039,0.64453
8.04,0,0.348,0.31055,0.88039,0.6543
8.048,0,0.35093,0.31445,0.87647,0.6543
8.056,0,0.3607,0.32422,0.88627,0.64062
8.064,0,0.37732,0.32031,0.88039,0.64453
8.072,0,0.40274,0.31055,0.8902,0.66016
8.08,0,0.435,0.31445,0.88627,0.64453
8.088,0,0.46628,0.19531,0.92549,0.72461
8.096,0,0.49951,0.15625,0.96078,0.74023
8.104,0,0.53763,0.41602,0.78627,0.56055
8.112,0,0.57674,0.91992,0.36471,0.25586
8.12,0,0.61584,1.3242,0.07451,0.085938
8.128,0,0.65787,0.85547,0.062745,0.41992
8.136,0,0.69306,0.25586,0.4549,0.76953
8.144,0,0.71554,0.2207,0.68039,0.78516
8.152,0,0.73509,0.27539,0.79608,0.70508
8.16,0,0.75269,0.23438,0.8902,0.70898
8.168,0,0.7654,0.19531,0.92157,0.72461
8.176,0,0.77224,0.17578,0.93137,0.74023
8.184,0,0.77713,0.17578,0.94118,0.73047
8.192,0,0.7781,0.16602,0.94706,0.74023
8.2,0,0.77615,0.14453,0.94706,0.75391
8.208,0,0.77322,0.14062,0.94118,0.75391
8.216,0,0.76931,0.16992,0.94118,0.73438
8.224,0,0.76442,0.16016,0.94118,0.74023
8.232,0,0.75855,0.16602,0.94118,0.75
8.24,0,0.75073,0.17969,0.93725,0.73438
8.248,0,0.73998,0.20117,0.94118,0.7207
8.256,0,0.7263,0.19531,0.93725,0.71484
8.264,0,0.71359,0.22461,0.93725,0.70898
8.272,0,0.70381,0.23047,0.94118,0.70508
8.28,0,0.69599,0.21094,0.94706,0.71484
8.288,0,0.68622,0.20117,0.95098,0.70898
8.296,0,0.67449,0.25977,0.95098,0.67969
8.304,0,0.66178,0.25,0.96078,0.68555
8.312,0,0.64418,0.25977,0.96667,0.68555
8.32,0,0.62854,0.29492,0.95686,0.66406
8.328,0,0.61681,0.3457,0.95098,0.63477
8.336,0,0.60411,0.36523,0.97059,0.64062
8.344,0,0.59238,0.33984,0.97647,0.61914
8.352,0,0.57869,0.4043,0.98235,0.59961
8.36,0,0.56696,0.41992,0.98235,0.60547
8.368,0,0.55914,0.41016,0.97059,0.61523
8.376,0,0.54936,0.44531,0.96667,0.58984
8.384,0,0.54154,0.44922,0.96667,0.58008
8.392,0,0.5347,0.4043,0.96667,0.60938
8.4,0,0.52981,0.36523,0.96078,0.64062
8.408,0,0.5259,0.35547,0.96667,0.64062
8.416,0,0.52004,0.37109,0.95686,0.62891
8.424,0,0.51515,0.33594,0.96078,0.66016
8.432,0,0.51222,0.30078,0.95098,0.66992
8.44,0,0.50831,0.33594,0.94118,0.65039
8.448,0,0.5044,0.32422,0.95098,0.64062
8.456,0,0.50147,0.33594,0.94118,0.63477
8.464,0,0.49756,0.3457,0.94706,0.64062
8.472,0,0.49267,0.31055,0.96078,0.6543
8.48,0,0.48876,0.32031,0.96078,0.65039
8.488,0,0.48583,0.33594,0.96667,0.64062
8.496,0,0.48289,0.34961,0.96078,0.63477
8.504,0,0.48094,0.35938,0.96667,0.62891
8.512,0,0.47801,0.33008,0.96667,0.64453
8.52,0,0.47507,0.32031,0.97059,0.64453
8.528,0,0.47214,0.33984,0.96667,0.65039
8.536,0,0.46921,0.35547,0.96078,0.62891
8.544,0,0.46725,0.39453,0.98235,0.60547
8.552,0,0.46432,0.43555,1.0118,0.58398
8.56,0,0.46041,0.45508,1.0412,0.56445
8.568,0,0.45748,0.44922,1.0157,0.56055
8.576,0,0.4565,0.49414,1.002,0.53906
8.584,0,0.4565,0.50586,0.97059,0.53516
8.592,0,0.45846,0.4707,0.96078,0.55078
8.6,0,0.46334,0.43555,0.92157,0.57422
8.608,0,0.47116,0.44922,0.91569,0.56055
8.616,0,0.48192,0.37109,0.92549,0.61914
8.624,0.016618,0.4956,0.33008,0.93725,0.64062
8.632,0.034213,0.51222,0.27539,0.94118,0.67578
8.64,0.10655,0.53372,0.26562,0.93725,0.68555
8.648,0.17889,0.55816,0.29102,0.93137,0.66016
8.656,0.25513,0.58651,0.25586,0.93725,0.68555
8.664,0.3304,0.61681,0.24023,0.94118,0.69531
8.672,0.4086,0.64907,0.25977,0.94118,0.67578
8.68,0.48583,0.67742,0.24023,0.94118,0.68945
8.688,0.56012,0.70186,0.23438,0.94706,0.69922
8.696,0.63539,0.72825,0.25,0.95098,0.68555
8.704,0.70577,0.75367,0.25586,0.94118,0.70508
8.712,0.77615,0.77615,0.16602,0.96667,0.74023
8.72,0.83089,0.79472,0.076172,1.0118,0.7793
8.728,0.88661,0.81036,0.16992,0.97647,0.71484
8.736,0.92962,0.82111,0.57422,0.6902,0.4707
8.744,0.97165,0.82893,1.1934,0.30392,0.11523
8.752,0.98631,0.83382,1.3438,0.23922,0.070312
8.76,1,0.8348,0.50977,0.47451,0.62891
8.768,1,0.8348,0.20117,0.67059,0.78516
8.776,1,0.83089,0.19531,0.83529,0.73438
8.784,1,0.82502,0.25977,0.90588,0.70508
8.792,1,0.81818,0.2207,0.98235,0.69531
8.8,1,0.80938,0.16992,0.99216,0.73438
8.808,1,0.79863,0.15039,0.98627,0.74414
8.816,1,0.78592,0.14453,0.99608,0.73047
8.824,1,0.77126,0.17969,0.99216,0.7207
8.832,1,0.7566,0.14453,1.0059,0.73438
8.84,1,0.739,0.16992,0.99608,0.73047
8.848,1,0.72141,0.14453,0.99608,0.73438
8.856,1,0.70088,0.17578,1.002,0.71484
8.864,1,0.68035,0.19531,0.99216,0.69922
8.872,1,0.65787,0.17969,0.99216,0.7207
8.88,1,0.63734,0.20117,0.98235,0.70898
8.888,1,0.61779,0.18945,0.99216,0.7207
8.896,1,0.59726,0.19531,0.99216,0.70898
8.904,1,0.57576,0.22461,0.98235,0.70508
8.912,1,0.55523,0.23047,0.99216,0.69922
8.92,1,0.53666,0.25,0.97647,0.68555
8.928,1,0.51906,0.25586,0.98235,0.68945
8.936,1,0.50342,0.27539,0.97059,0.67969
8.944,1,0.49071,0.30469,0.97059,0.66016
8.952,1,0.47898,0.31445,0.95686,0.6543
8.96,1,0.46823,0.30469,0.94118,0.66992
8.968,1,0.45943,0.33008,0.94118,0.6543
8.976,1,0.45259,0.35938,0.94706,0.63477
8.984,1,0.44673,0.35938,0.94118,0.63477
8.992,1,0.44184,0.375,0.92549,0.62891
9,1,0.43597,0.34961,0.93137,0.6543
9.008,1,0.43011,0.37109,0.92157,0.64062
9.016,1,0.42424,0.31445,0.92157,0.67578
9.024,1,0.41838,0.26953,0.92549,0.70898
9.032,1,0.41349,0.26562,0.94118,0.70898
9.04,1,0.40762,0.23438,0.95686,0.7207
9.048,1,0.40176,0.22461,0.94706,0.7207
9.056,1,0.39687,0.19531,0.95098,0.73438
9.064,1,0.39101,0.20508,0.94706,0.73438
9.072,1,0.38514,0.19531,0.95098,0.74023
9.08,1,0.38025,0.21484,0.94118,0.7207
9.088,1,0.37634,0.22461,0.94118,0.70898
9.096,1,0.37146,0.21094,0.95098,0.7207
9.104,1,0.36657,0.21484,0.96078,0.70898
9.112,1,0.3607,0.2207,0.95098,0.70898
9.12,1,0.35582,0.23047,0.94706,0.71484
9.128,1,0.34995,0.25,0.96667,0.68555
9.136,1,0.34604,0.28516,0.95686,0.66406
9.144,1,0.34115,0.25977,0.95686,0.69531
9.152,1,0.33627,0.29102,0.98627,0.66406
9.16,1,0.3304,0.35547,1.0059,0.63477
9.168,1,0.32454,0.375,1.0275,0.625
9.176,1,0.32063,0.41016,1.0118,0.60547
9.184,1,0.31672,0.42969,0.97647,0.58984
9.192,1,0.31085,0.39453,0.93725,0.61523
9.2,1,0.30596,0.38477,0.90196,0.59961
9.208,1,0.30108,0.36523,0.88039,0.61523
9.216,1,0.29717,0.37109,0.89608,0.625
9.224,1,0.29423,0.29102,0.90588,0.67578
9.232,1,0.29228,0.2793,0.91176,0.67969
9.24,1,0.29228,0.24609,0.92157,0.69922
9.248,1,0.29521,0.25586,0.91176,0.68945
9.256,1,0.3001,0.26562,0.90196,0.69531
9.264,1,0.31085,0.24609,0.92157,0.69531
9.272,1,0.32551,0.24023,0.91569,0.69922
9.28,1,0.34311,0.25977,0.91569,0.68555
9.288,1,0.36461,0.25,0.91569,0.68945
9.296,1,0.39198,0.25977,0.92157,0.67969
9.304,1,0.42522,0.21094,0.91569,0.70898
9.312,1,0.46237,0.11523,0.97647,0.76562
9.32,1,0.49951,0.064453,0.99608,0.79492
9.328,1,0.53666,0.35938,0.8902,0.59961
9.336,1,0.57185,0.83984,0.51569,0.31055
9.344,1,0.60508,1.2793,0.27843,0.11133
9.352,1,0.63441,0.85547,0.38431,0.43555
9.36,1,0.6608,0.31445,0.6,0.74023
9.368,1,0.68231,0.18555,0.7451,0.78516
9.376,1,0.69892,0.25586,0.85686,0.69922
9.384,1,0.71065,0.26953,0.93725,0.68555
9.392,1,0.72141,0.21094,0.96078,0.7207
9.4,1,0.73021,0.18945,0.96667,0.72461
9.408,1,0.73607,0.17969,0.96667,0.7207
9.416,1,0.73998,0.21484,0.96667,0.69531
9.424,1,0.74291,0.18945,0.97647,0.71484
9.432,1,0.74291,0.20117,0.97059,0.7207
9.44,1,0.74096,0.20117,0.97059,0.70898
9.448,1,0.73705,0.24023,0.96667,0.68945
9.456,1,0.73216,0.25586,0.96667,0.68555
9.464,1,0.72434,0.22461,0.95686,0.69531
9.472,1,0.71457,0.24609,0.94706,0.68555
9.48,1,0.70381,0.25586,0.95686,0.67969
9.488,1,0.69208,0.26562,0.94118,0.67578
9.496,1,0.67742,0.24609,0.93725,0.68945
9.504,1,0.6608,0.29492,0.94118,0.64453
9.512,1,0.64321,0.30078,0.94118,0.64062
9.52,1,0.62268,0.29492,0.92157,0.6543
9.528,1,0.60215,0.33594,0.91569,0.64062
9.536,1,0.58162,0.32031,0.90588,0.64453
9.544,1,0.56207,0.35938,0.90588,0.625
9.552,1,0.5435,0.38086,0.89608,0.61523
9.56,1,0.52688,0.4043,0.89608,0.59961
9.568,1,0.51222,0.4043,0.88039,0.60547
9.576,1,0.50049,0.40039,0.87647,0.61523
9.584,1,0.49071,0.43555,0.87059,0.58984
9.592,1,0.48094,0.44531,0.86667,0.58398
9.6,1,0.47116,0.41016,0.86667,0.60938
9.608,1,0.44868,0.40039,0.87059,0.61523
9.616,1,0.41935,0.36523,0.89608,0.625
9.624,1,0.40176,0.35547,0.91569,0.63477
9.632,1,0.38807,0.28516,0.92157,0.67969
9.64,1,0.3783,0.26562,0.92549,0.70508
9.648,1,0.3695,0.26562,0.94118,0.68945
9.656,1,0.36266,0.27539,0.94706,0.67969
9.664,1,0.35679,0.2793,0.94118,0.68555
9.672,1,0.35191,0.26562,0.95098,0.68555
9.68,1,0.348,0.26953,0.96078,0.66992
9.688,1,0.34604,0.26562,0.94706,0.68555
9.696,1,0.34213,0.28516,0.95098,0.66992
9.704,1,0.3392,0.2793,0.94118,0.67578
9.712,1,0.33431,0.29492,0.94706,0.66016
9.72,1,0.32942,0.2793,0.94706,0.67969
9.728,1,0.32454,0.29102,0.95098,0.66406
9.736,1,0.31867,0.30469,0.94706,0.66406
9.744,1,0.31378,0.32422,0.94118,0.64062
9.752,1,0.30987,0.33008,0.94706,0.64453
9.76,1,0.30596,0.36523,0.96078,0.61914
9.768,1,0.30303,0.41016,0.99216,0.5957
9.776,1,0.30108,0.42969,1.0059,0.58984
9.784,1,0.30108,0.4707,0.99608,0.56055
9.792,1,0.29912,0.47461,0.95686,0.55078
9.8,1,0.29717,0.4043,0.91176,0.58984
9.808,0.99511,0.29521,0.4043,0.87059,0.58398
9.816,0.99022,0.2913,0.40039,0.8902,0.59961
9.824,0.97849,0.28739,0.35547,0.90588,0.625
9.832,0.96579,0.28152,0.31055,0.91176,0.6543
9.84,0.95601,0.27664,0.29102,0.91569,0.66406
9.848,0.94526,0.27077,0.30469,0.90588,0.65039
9.856,0.93646,0.26784,0.29492,0.91176,0.66406
9.864,0.92766,0.26882,0.28516,0.90196,0.66992
9.872,0.92082,0.2737,0.27539,0.91176,0.67578
9.88,0.913,0.2825,0.2793,0.91569,0.66406
9.888,0.90518,0.29619,0.28516,0.90588,0.66992
9.896,0.89834,0.31672,0.26953,0.90588,0.67969
9.904,0.88759,0.34213,0.27539,0.91569,0.68555
9.912,0.87683,0.37341,0.17578,0.95098,0.73047
9.92,0.86315,0.40665,0.11523,0.98235,0.76562
9.928,0.84946,0.44086,0.37109,0.86667,0.58984
9.936,0.8348,0.47507,0.85938,0.4549,0.29102
9.944,0.81916,0.50831,1.3242,0.18824,0.070312
9.952,0.80156,0.53763,0.95898,0.27843,0.35547
9.96,0.78397,0.56305,0.3457,0.51569,0.71484
9.968,0.7566,0.58456,0.21094,0.69608,0.76953
9.976,0.73021,0.6002,0.23438,0.82157,0.72461
9.984,0.69599,0.61095,0.23047,0.91176,0.69531
9.992,0.66276,0.61975,0.24609,0.93725,0.68945
10,0.62659,0.62757,0.20117,0.94706,0.71484
10.008,0.5914,0.63148,0.20508,0.95686,0.70508
10.016,0.55425,0.63441,0.21094,0.96667,0.70508
10.024,0.51808,0.63343,0.22461,0.97059,0.69531
10.032,0.47312,0.63148,0.21094,0.96667,0.70898
10.04,0.42913,0.62757,0.24023,0.96078,0.68555
10.048,0.37928,0.62072,0.22461,0.96078,0.69531
10.056,0.32845,0.6129,0.23047,0.95098,0.68555
10.064,0.27664,0.60215,0.24023,0.95686,0.68945
10.072,0.22581,0.58944,0.23438,0.94118,0.68555
10.08,0.174,0.57771,0.25,0.94118,0.67969
10.088,0.12317,0.56403,0.26953,0.92549,0.66406
10.096,0.079179,0.54936,0.26562,0.92157,0.67578
10.104,0.035191,0.53177,0.25977,0.92549,0.68555
10.112,0.017595,0.51515,0.28516,0.92549,0.66406
10.12,0,0.49853,0.2793,0.92157,0.67578
10.128,0,0.48192,0.33984,0.93725,0.625
10.136,0,0.46725,0.33984,0.91569,0.64062
10.144,0,0.45455,0.375,0.91176,0.61523
10.152,0,0.44282,0.37109,0.8902,0.62891
10.16,0,0.43304,0.41992,0.88627,0.5957
10.168,0,0.42522,0.46484,0.88039,0.56055
10.176,0,0.41935,0.44922,0.87059,0.58008
10.184,0,0.41447,0.44531,0.86667,0.58984
10.192,0,0.41056,0.43555,0.86078,0.5957
10.2,0,0.40665,0.4707,0.87059,0.56445
10.208,0,0.40371,0.41016,0.85098,0.61914
10.216,0,0.3998,0.43945,0.88627,0.57422
10.224,0,0.39589,0.36523,0.88627,0.64062
10.232,0,0.39101,0.34961,0.89608,0.65039
10.24,0,0.3871,0.32031,0.90588,0.64062
10.248,0,0.38123,0.31055,0.93137,0.66406
10.256,0,0.37634,0.27539,0.92157,0.68555
10.264,0,0.37146,0.31445,0.92157,0.6543
10.272,0,0.36559,0.29102,0.90588,0.67969
10.28,0,0.36168,0.31445,0.91176,0.66016
10.288,0,0.35777,0.32422,0.91569,0.65039
10.296,0,0.35288,0.32031,0.92157,0.64453
10.304,0,0.34702,0.31445,0.92157,0.6543
10.312,0,0.34115,0.33594,0.92157,0.64453
10.32,0,0.33431,0.32422,0.92549,0.66016
10.328,0,0.32649,0.33594,0.92157,0.64453
10.336,0,0.31867,0.35547,0.93725,0.62891
10.344,0,0.31085,0.375,0.93725,0.61523
10.352,0,0.30303,0.41992,0.97059,0.58984
10.36,0,0.29619,0.49023,0.99216,0.55078
10.368,0,0.28935,0.51953,0.98627,0.5293
10.376,0,0.28348,0.5,0.96078,0.53906
10.384,0,0.27761,0.4707,0.91569,0.53516
10.392,0,0.27175,0.42969,0.86667,0.58398
10.4,0,0.26491,0.43555,0.86078,0.57031
10.408,0,0.25709,0.41602,0.88039,0.5957
10.416,0,0.24829,0.375,0.89608,0.61523
10.424,0,0.24047,0.33984,0.90196,0.64062
10.432,0,0.23363,0.33594,0.89608,0.64453
10.44,0,0.22874,0.33594,0.89608,0.64062
10.448,0,0.22678,0.33594,0.8902,0.65039
10.456,0,0.22972,0.33594,0.89608,0.64062
10.464,0,0.23754,0.32422,0.8902,0.65039
10.472,0,0.25318,0.33008,0.90588,0.63477
10.48,0,0.27175,0.33984,0.89608,0.62891
10.488,0,0.29423,0.32031,0.89608,0.65039
10.496,0,0.32356,0.27539,0.91569,0.67969
10.504,0,0.35875,0.15625,0.96078,0.75
10.512,0,0.39589,0.26953,0.96667,0.66016
10.52,0,0.435,0.67578,0.65098,0.39453
10.528,0,0.47312,1.2402,0.23333,0.080078
10.536,0,0.50831,1.4141,0.12941,0.019531
10.544,0,0.53959,0.60547,0.34902,0.57031
10.552,0,0.56696,0.26562,0.58431,0.75391
10.56,0,0.59042,0.26953,0.77059,0.73047
10.568,0,0.60899,0.28516,0.87059,0.68555
10.576,0,0.6217,0.26953,0.93725,0.66992
10.584,0,0.6305,0.24609,0.96078,0.68555
10.592,0,0.63734,0.21094,0.96667,0.70898
10.6,0,0.64321,0.17969,0.95098,0.73438
10.608,0,0.64712,0.19531,0.96078,0.70898
10.616,0,0.64907,0.21484,0.97059,0.69531
10.624,0,0.64809,0.20508,0.96667,0.71484
10.632,0,0.64614,0.19531,0.96078,0.72461
10.64,0,0.64223,0.23438,0.96667,0.68555
10.648,0,0.63636,0.22461,0.96667,0.69531
10.656,0,0.62854,0.21094,0.95686,0.70898
10.664,0,0.61877,0.21484,0.96078,0.70508
10.672,0,0.60802,0.25977,0.96667,0.66406
10.68,0,0.59629,0.24023,0.95098,0.68555
10.688,0,0.5826,0.25,0.95686,0.68945
10.696,0,0.56794,0.26562,0.95098,0.66992
10.704,0,0.55132,0.26562,0.95686,0.67578
10.712,0,0.5347,0.26953,0.94706,0.67969
10.72,0,0.51906,0.29492,0.95686,0.66406
10.728,0,0.5044,0.31445,0.94706,0.66016
10.736,0,0.49071,0.34961,0.95098,0.62891
10.744,0,0.47801,0.375,0.94118,0.61523
10.752,0,0.46628,0.38477,0.93137,0.62891
10.76,0,0.4565,0.41016,0.92157,0.60938
10.768,0,0.44868,0.42969,0.92157,0.5957
10.776,0,0.44184,0.44531,0.91569,0.58984
10.784,0,0.43695,0.45508,0.92157,0.58398
10.792,0,0.43109,0.42578,0.90588,0.60938
10.8,0,0.42522,0.38086,0.91569,0.63477
10.808,0,0.41935,0.36523,0.91176,0.64062
10.816,0,0.41153,0.33594,0.92157,0.6543
10.824,0,0.40371,0.30469,0.92549,0.66406
10.832,0,0.39492,0.29102,0.92157,0.67578
10.84,0,0.38514,0.26953,0.92157,0.68945
10.848,0,0.37439,0.28516,0.91569,0.67578
10.856,0,0.36461,0.28516,0.92157,0.67969
10.864,0,0.35484,0.29492,0.91176,0.66406
10.872,0,0.34702,0.31055,0.91569,0.66016
10.88,0,0.34018,0.33008,0.92157,0.64062
10.888,0,0.33431,0.32031,0.92157,0.65039
10.896,0,0.32747,0.31055,0.92157,0.66406
10.904,0,0.3216,0.33008,0.92549,0.64062
10.912,0,0.31672,0.31445,0.92157,0.66016
10.92,0,0.31183,0.33008,0.92157,0.65039
10.928,0,0.30694,0.3457,0.93137,0.64062
10.936,0,0.30205,0.33008,0.93725,0.65039
10.944,0,0.29717,0.32422,0.94706,0.64453
10.952,0,0.29326,0.33008,0.94118,0.65039
10.96,0,0.29032,0.38086,0.94118,0.61523
10.968,0,0.28641,0.43555,0.97059,0.58984
10.976,0,0.28543,0.4707,0.99608,0.56445
10.984,0,0.28446,0.46094,1.002,0.58008
10.992,0,0.28348,0.44922,0.97059,0.56445
11,0,0.28348,0.51953,0.95686,0.5293
11.008,0,0.2825,0.49023,0.91176,0.55078
11.016,0,0.28348,0.44922,0.88039,0.57422
11.024,0,0.28446,0.43945,0.87059,0.57422
11.032,0,0.28837,0.41992,0.87647,0.58398
11.04,0,0.29521,0.37109,0.88627,0.61914
11.048,0,0.30694,0.32422,0.88039,0.65039
11.056,0,0.32454,0.31055,0.8902,0.65039
11.064,0,0.348,0.29102,0.88627,0.66406
11.072,0,0.37243,0.2793,0.8902,0.67578
11.08,0,0.39883,0.29102,0.8902,0.66406
11.088,0,0.43304,0.28516,0.89608,0.66992
11.096,0,0.47019,0.2793,0.8902,0.67969
11.104,0,0.50929,0.29492,0.88627,0.66016
11.112,0,0.54839,0.30469,0.89608,0.66406
11.12,0,0.58456,0.29492,0.90588,0.66016
11.128,0,0.61681,0.22461,0.93137,0.70508
11.136,0,0.64516,0.14062,0.98235,0.74414
11.144,0,0.66862,0.25,0.99216,0.6543
11.152,0,0.68719,0.625,0.62549,0.41992
11.16,0,0.70186,1.1387,0.2098,0.14062
11.168,0,0.71261,1.2852,0.084314,0.095703
11.176,0,0.71945,0.49414,0.33529,0.625
11.184,0,0.72336,0.19531,0.5902,0.78516
11.192,0,0.72727,0.21484,0.77647,0.75
11.2,0,0.72923,0.23438,0.88627,0.71484
11.208,0,0.72923,0.18945,0.94118,0.73047
11.216,0,0.72923,0.19531,0.96667,0.7207
11.224,0,0.7263,0.17578,0.97059,0.7207
11.232,0,0.72239,0.15039,0.97647,0.74414
11.24,0,0.71652,0.14062,0.97059,0.74023
11.248,0,0.7087,0.15625,0.98235,0.73438
11.256,0,0.69892,0.13477,0.97059,0.75
11.264,0,0.68719,0.16602,0.97647,0.72461
11.272,0,0.67449,0.13477,0.97059,0.75
11.28,0,0.6608,0.15625,0.96667,0.74023
11.288,0,0.64614,0.15039,0.97059,0.75391
11.296,0,0.62854,0.16992,0.96667,0.73438
11.304,0,0.61095,0.16602,0.97059,0.73047
11.312,0,0.59238,0.17578,0.96667,0.73438
11.32,0,0.5738,0.19531,0.97059,0.70898
11.328,0,0.55523,0.21484,0.96667,0.70508
11.336,0,0.53763,0.2207,0.96667,0.70898
11.344,0,0.52102,0.24023,0.96667,0.69531
11.352,0,0.50733,0.26562,0.97647,0.67578
11.36,0,0.49365,0.30078,0.96667,0.66406
11.368,0,0.48289,0.31445,0.96667,0.66016
11.376,0,0.47312,0.34961,0.96667,0.64062
11.384,0,0.46628,0.38477,0.96667,0.61523
11.392,0,0.45846,0.4043,0.97059,0.59961
11.4,0,0.45161,0.40039,0.95686,0.60938
11.408,0,0.44575,0.42969,0.95098,0.5957
11.416,0,0.44086,0.43555,0.94118,0.60938
11.424,0,0.435,0.42969,0.93725,0.61523
11.432,0,0.43011,0.4043,0.93137,0.60938
11.44,0,0.42424,0.38477,0.93137,0.625
11.448,0,0.41838,0.33594,0.92157,0.66016
11.456,0,0.41153,0.31445,0.92157,0.66406
11.464,0,0.40371,0.29492,0.91569,0.67969
11.472,0,0.39687,0.29102,0.92157,0.68555
11.48,0,0.39101,0.28516,0.91569,0.67578
11.488,0,0.38416,0.28516,0.92157,0.67969
11.496,0,0.37732,0.28516,0.91569,0.68555
11.504,0,0.37048,0.30078,0.92157,0.66992
11.512,0,0.36364,0.32422,0.91176,0.64453
11.52,0,0.35679,0.31445,0.92157,0.6543
11.528,0,0.34995,0.30078,0.91176,0.67578
11.536,0,0.34311,0.31055,0.91569,0.66406
11.544,0,0.33529,0.33008,0.92157,0.65039
11.552,0,0.32845,0.33008,0.93137,0.66016
11.56,0,0.32258,0.38477,0.94706,0.61914
11.568,0,0.31574,0.44531,0.99216,0.58398
11.576,0,0.31085,0.48438,0.99216,0.56445
11.584,0,0.30596,0.51953,0.98235,0.54492
11.592,0,0.30108,0.51562,0.94706,0.53516
11.6,0,0.29619,0.45508,0.91176,0.57031
11.608,0,0.29032,0.41016,0.87647,0.58984
11.616,0,0.28543,0.42578,0.86078,0.58398
11.624,0,0.28055,0.4043,0.89608,0.5957
11.632,0,0.27566,0.375,0.90196,0.61523
11.64,0,0.27077,0.35547,0.90588,0.625
11.648,0,0.26784,0.33984,0.89608,0.625
11.656,0,0.2737,0.3457,0.8902,0.63477
11.664,0,0.28641,0.32031,0.89608,0.66016
11.672,0,0.29814,0.33984,0.89608,0.625
11.68,0,0.31085,0.31445,0.90588,0.61914
11.688,0,0.32942,0.30078,0.90196,0.66406
11.696,0,0.35386,0.31445,0.90588,0.65039
11.704,0,0.38416,0.29492,0.91176,0.66406
11.712,0,0.41838,0.23047,0.93137,0.69922
11.72,0,0.45552,0.125,0.96667,0.75391
11.728,0,0.49365,0.33008,0.87059,0.60938
11.736,0,0.52981,0.7793,0.48039,0.33594
11.744,0,0.56403,1.2734,0.13922,0.089844
11.752,0,0.59335,1.2852,0.098039,0.30469
11.76,0,0.61877,0.37109,0.4451,0.69531
11.768,0,0.6393,0.26953,0.68039,0.74414
11.776,0,0.65494,0.29492,0.80588,0.69922
11.784,0,0.66569,0.2793,0.90588,0.67969
11.792,0,0.67644,0.24609,0.95686,0.68555
11.8,0,0.68524,0.25,0.96667,0.67969
11.808,0,0.69306,0.19531,0.97059,0.7207
11.816,0,0.69892,0.18945,0.96667,0.7207
11.824,0,0.70283,0.22461,0.98627,0.68945
11.832,0,0.70674,0.2207,0.98627,0.69531
11.84,0,0.70968,0.21484,0.99216,0.68555
11.848,0,0.71163,0.21094,0.98235,0.70898
11.856,0,0.71163,0.21484,0.97647,0.71484
11.864,0,0.71065,0.21094,0.98627,0.70898
11.872,0,0.7087,0.2207,0.96667,0.70508
11.88,0,0.70381,0.24023,0.97647,0.68945
11.888,0,0.69697,0.21484,0.98235,0.69922
11.896,0,0.68817,0.21094,0.98235,0.70508
11.904,0,0.67644,0.26562,0.98627,0.66406
11.912,0,0.66276,0.25586,0.98627,0.67578
11.92,0,0.64712,0.23438,0.98235,0.68555
11.928,0,0.6305,0.2793,0.97647,0.66406
11.936,0,0.6129,0.28516,0.97059,0.66406
11.944,0,0.59433,0.29102,0.98235,0.66406
11.952,0,0.57771,0.32031,0.97647,0.64453
11.96,0,0.56012,0.36523,0.97059,0.625
11.968,0,0.54545,0.35938,0.97647,0.61914
11.976,0,0.53275,0.375,0.96667,0.61523
11.984,0,0.52199,0.41016,0.95686,0.59961
11.992,0,0.51124,0.38477,0.96078,0.61914
12,0,0.50147,0.38086,0.95098,0.625
12.008,0,0.49267,0.40039,0.95098,0.60938
12.016,0.031281,0.48485,0.34961,0.95098,0.64062
12.024,0.062561,0.47801,0.30078,0.96078,0.66406
12.032,0.11339,0.47214,0.25,0.95098,0.69531
12.04,0.16422,0.46628,0.25977,0.94706,0.68945
12.048,0.22483,0.46139,0.21484,0.94118,0.7207
12.056,0.28446,0.4565,0.23438,0.94118,0.70508
12.064,0.35191,0.45259,0.25586,0.94706,0.68555
12.072,0.41838,0.44966,0.25977,0.93725,0.68945
12.08,0.48192,0.4477,0.24023,0.94706,0.68945
12.088,0.54448,0.44477,0.25977,0.94118,0.67969
12.096,0.60313,0.44184,0.23438,0.94706,0.70898
12.104,0.66178,0.43695,0.26562,0.94118,0.67969
12.112,0.71848,0.43109,0.25,0.95098,0.68555
12.12,0.77517,0.42522,0.25977,0.95686,0.67969
12.128,0.82991,0.41838,0.24609,0.94706,0.69531
12.136,0.88368,0.41153,0.27539,0.94118,0.67969
12.144,0.92669,0.40371,0.25586,0.95098,0.68945
12.152,0.9697,0.39687,0.26562,0.95098,0.67969
12.16,0.98534,0.39101,0.27539,0.94706,0.67969
12.168,1,0.38514,0.2793,0.94118,0.68555
12.176,1,0.38025,0.29102,0.95098,0.66406
12.184,1,0.37634,0.28516,0.94118,0.66406
12.192,1,0.37146,0.32422,0.96078,0.64453
12.2,1,0.36559,0.375,0.98627,0.60938
12.208,1,0.35777,0.40039,1.0059,0.59961
12.216,1,0.34995,0.38086,1.0118,0.61523
12.224,1,0.34213,0.41016,0.99216,0.5957
12.232,1,0.33431,0.44531,0.96078,0.57422
12.24,1,0.32747,0.41992,0.92157,0.58984
12.248,1,0.32258,0.41602,0.8902,0.58008
12.256,1,0.3216,0.41992,0.87647,0.57422
12.264,1,0.32454,0.31445,0.8902,0.6543
12.272,1,0.33138,0.28516,0.89608,0.68555
12.28,1,0.34311,0.29102,0.90588,0.67578
12.288,1,0.3607,0.21484,0.90196,0.71484
12.296,1,0.38514,0.23438,0.89608,0.70508
12.304,1,0.41349,0.24023,0.90196,0.69922
12.312,1,0.44477,0.21484,0.89608,0.70898
12.32,1,0.47703,0.23047,0.91176,0.70508
12.328,1,0.50929,0.24023,0.91569,0.68945
12.336,1,0.54154,0.25,0.91569,0.68555
12.344,1,0.56989,0.23438,0.91569,0.69922
12.352,1,0.59531,0.24023,0.92157,0.69531
12.36,1,0.61681,0.16992,0.94118,0.73047
12.368,1,0.63245,0.064453,0.98627,0.78906
12.376,1,0.64418,0.2207,0.99216,0.68945
12.384,1,0.65396,0.57031,0.72549,0.47461
12.392,1,0.6608,1.1348,0.3451,0.16602
12.4,1,0.66569,1.25,0.3,0.14453
12.408,1,0.66764,0.53516,0.52549,0.625
12.416,1,0.66667,0.18945,0.6902,0.78906
12.424,1,0.66471,0.16602,0.81176,0.75977
12.432,1,0.65982,0.23047,0.89608,0.7207
12.44,1,0.65298,0.19531,0.93725,0.73438
12.448,1,0.64418,0.20117,0.95098,0.72461
12.456,1,0.63343,0.18555,0.95686,0.71484
12.464,1,0.6217,0.20508,0.96078,0.73047
12.472,1,0.60899,0.21094,0.96078,0.70898
12.48,1,0.59629,0.19531,0.96078,0.71484
12.488,1,0.58162,0.20508,0.96078,0.70508
12.496,1,0.565,0.19531,0.95098,0.72461
12.504,1,0.54643,0.20117,0.96078,0.70898
12.512,1,0.52786,0.21094,0.95686,0.70898
12.52,1,0.50831,0.21484,0.95098,0.71484
12.528,1,0.48876,0.23047,0.94118,0.70898
12.536,1,0.47019,0.26562,0.94706,0.67578
12.544,1,0.45161,0.25586,0.94118,0.66992
12.552,1,0.43402,0.24609,0.94118,0.69531
12.56,1,0.4174,0.2793,0.93725,0.67578
12.568,1,0.40469,0.29492,0.92549,0.66406
12.576,1,0.39394,0.32422,0.93137,0.65039
12.584,1,0.38319,0.29102,0.92549,0.67578
12.592,1,0.37341,0.3457,0.91176,0.64062
12.6,1,0.36364,0.36523,0.91176,0.62891
12.608,1,0.35386,0.36523,0.89608,0.625
12.616,1,0.34604,0.4043,0.88627,0.59961
12.624,1,0.33822,0.39062,0.86078,0.625
12.632,1,0.3304,0.41602,0.85686,0.61523
12.64,1,0.32356,0.39453,0.86667,0.625
12.648,1,0.31672,0.41992,0.86078,0.60938
12.656,1,0.31085,0.42969,0.85098,0.61523
12.664,1,0.30401,0.38477,0.86667,0.62891
12.672,1,0.3001,0.3457,0.88627,0.66016
12.68,1,0.29619,0.33594,0.90196,0.66406
12.688,1,0.2913,0.30469,0.91569,0.68555
12.696,1,0.28543,0.25586,0.92157,0.70898
12.704,1,0.28152,0.25,0.93137,0.70508
12.712,1,0.27664,0.26562,0.93725,0.69531
12.72,1,0.27273,0.26953,0.94118,0.68555
12.728,1,0.26784,0.24609,0.95098,0.70898
12.736,1,0.26393,0.25586,0.94706,0.69922
12.744,1,0.261,0.25977,0.95098,0.69922
12.752,1,0.25709,0.24609,0.95686,0.68945
12.76,1,0.25415,0.24023,0.96667,0.70898
12.768,1,0.25122,0.26562,0.96667,0.68555
12.776,1,0.25024,0.30078,0.95098,0.66016
12.784,1,0.24731,0.29102,0.95686,0.67969
12.792,1,0.24438,0.2793,0.96667,0.66992
12.8,1,0.24145,0.31055,0.96667,0.65039
12.808,1,0.23851,0.35938,0.98627,0.61914
12.816,1,0.23656,0.4043,0.99608,0.59961
12.824,1,0.23363,0.42578,1.0118,0.60938
12.832,1,0.23167,0.43555,1.002,0.58398
12.84,1,0.22972,0.42969,0.95686,0.58008
12.848,1,0.22776,0.43555,0.90588,0.58984
12.856,1,0.22483,0.38086,0.88039,0.60938
12.864,1,0.2219,0.38477,0.90196,0.60547
12.872,1,0.22092,0.33594,0.92157,0.64062
12.88,1,0.21994,0.30469,0.92157,0.66406
12.888,1,0.21799,0.29102,0.92157,0.66992
12.896,1,0.21505,0.26562,0.92157,0.68555
12.904,1,0.21408,0.28516,0.91569,0.66992
12.912,1,0.21603,0.25977,0.93137,0.68555
12.92,1,0.2219,0.26953,0.92157,0.68555
12.928,1,0.23363,0.25977,0.92549,0.69531
12.936,1,0.25122,0.2793,0.92157,0.67578
12.944,1,0.27664,0.28516,0.92157,0.66992
12.952,1,0.30694,0.23047,0.93725,0.69922
12.96,1,0.34213,0.125,0.97647,0.76562
12.968,1,0.37634,0.089844,1.0118,0.7793
12.976,1,0.40958,0.41602,0.87647,0.57031
12.984,1,0.44575,0.93555,0.47059,0.26562
12.992,1,0.48192,1.3301,0.27451,0.099609
13,1,0.51613,0.82422,0.40392,0.44922
13.008,1,0.54643,0.33008,0.62549,0.73047
13.016,1,0.57185,0.21094,0.76667,0.76562
13.024,1,0.59238,0.25586,0.86667,0.7207
13.032,1,0.60899,0.25977,0.93137,0.70898
13.04,1,0.62072,0.23438,0.96078,0.70508
13.048,1,0.62854,0.21094,0.97059,0.70898
13.056,1,0.63343,0.21094,0.97059,0.70508
13.064,1,0.63441,0.20117,0.97647,0.70898
13.072,1,0.63343,0.21484,0.96667,0.70898
13.08,1,0.62952,0.22461,0.96078,0.70898
13.088,1,0.62366,0.23047,0.96667,0.70508
13.096,1,0.61584,0.24023,0.97059,0.68945
13.104,1,0.60508,0.25586,0.97059,0.67969
13.112,1,0.59335,0.24023,0.96667,0.68945
13.12,1,0.58065,0.26562,0.95686,0.68555
13.128,1,0.56598,0.26953,0.95098,0.66992
13.136,1,0.55132,0.26562,0.95686,0.66406
13.144,1,0.53568,0.29102,0.93725,0.67578
13.152,1,0.51906,0.2793,0.93725,0.67969
13.16,1,0.50342,0.29102,0.94118,0.66406
13.168,1,0.49071,0.2793,0.93137,0.66992
13.176,1,0.47801,0.33984,0.92157,0.64453
13.184,1,0.46628,0.35938,0.92157,0.62891
13.192,1,0.45455,0.375,0.91176,0.61523
13.2,1,0.44379,0.39062,0.89608,0.60938
13.208,1,0.43402,0.4043,0.87647,0.61523
13.216,1,0.4262,0.41992,0.87059,0.59961
13.224,1,0.42033,0.43945,0.86078,0.58984
13.232,1,0.41544,0.44531,0.86078,0.61523
13.24,1,0.41056,0.41602,0.86667,0.60547
13.248,1,0.40665,0.41992,0.86078,0.60938
13.256,1,0.40371,0.40039,0.86667,0.62891
13.264,1,0.40176,0.36523,0.88039,0.64062
13.272,1,0.3998,0.33008,0.89608,0.66406
13.28,1,0.39785,0.29102,0.90588,0.68555
13.288,1,0.39492,0.30078,0.93137,0.66992
13.296,1,0.39198,0.29102,0.94118,0.66992
13.304,1,0.38905,0.28516,0.93725,0.66406
13.312,1,0.38612,0.26953,0.94118,0.68555
13.32,1,0.38221,0.28516,0.93725,0.68555
13.328,1,0.37928,0.28516,0.94706,0.67969
13.336,1,0.37537,0.26953,0.95686,0.68555
13.344,1,0.37243,0.27539,0.95686,0.67578
13.352,1,0.3695,0.29492,0.95686,0.67969
13.36,1,0.36657,0.31055,0.94706,0.64453
13.368,1,0.36461,0.30078,0.94706,0.66016
13.376,1,0.36266,0.2793,0.94118,0.67969
13.384,1,0.35973,0.31055,0.96078,0.65039
13.392,1,0.35679,0.30469,0.94118,0.66406
13.4,1,0.35386,0.31445,0.94118,0.66016
13.408,1,0.34995,0.33984,0.95098,0.64062
13.416,1,0.34702,0.38477,0.96667,0.61523
13.424,1,0.34311,0.43555,0.99608,0.58008
13.432,1,0.3392,0.47461,1.0118,0.55078
13.44,1,0.33627,0.46094,0.98627,0.56445
13.448,1,0.33236,0.46484,0.92549,0.57422
13.456,1,0.32747,0.39453,0.8902,0.5957
13.464,1,0.32356,0.37109,0.87647,0.60938
13.472,1,0.31965,0.38086,0.8902,0.60547
13.48,1,0.31574,0.35938,0.90588,0.62891
13.488,1,0.31183,0.33008,0.90588,0.65039
13.496,1,0.3089,0.30078,0.91569,0.66406
13.504,1,0.30792,0.28516,0.89608,0.66406
13.512,1,0.3089,0.28516,0.8902,0.67578
13.52,1,0.31476,0.29102,0.89608,0.66406
13.528,1,0.32551,0.26562,0.90196,0.68555
13.536,1,0.34311,0.28516,0.91176,0.66406
13.544,1,0.36559,0.27539,0.91176,0.66992
13.552,0.97947,0.39394,0.28516,0.91176,0.66406
13.56,0.95894,0.42522,0.23438,0.92549,0.69531
13.568,0.9306,0.45552,0.13477,0.98235,0.74414
13.576,0.90225,0.48387,0.13086,0.99216,0.75
13.584,0.86901,0.51613,0.56055,0.73137,0.46484
13.592,0.83675,0.54936,1.1094,0.27843,0.16016
13.6,0.80059,0.58162,1.3184,0.16863,0.064453
13.608,0.76442,0.60997,0.64062,0.36471,0.55469
13.616,0.73118,0.63539,0.21484,0.58039,0.78906
13.624,0.69697,0.65689,0.17969,0.7549,0.79492
13.632,0.66373,0.67351,0.24609,0.8451,0.7207
13.64,0.63148,0.68719,0.23438,0.91569,0.69922
13.648,0.59433,0.69697,0.21094,0.95098,0.69922
13.656,0.55718,0.70381,0.19531,0.95686,0.70898
13.664,0.51613,0.70772,0.17969,0.95686,0.73438
13.672,0.47605,0.70772,0.21484,0.96078,0.70898
13.68,0.43793,0.70674,0.19531,0.96667,0.70898
13.688,0.40078,0.70283,0.18555,0.97059,0.72461
13.696,0.36461,0.69795,0.21094,0.96667,0.70898
13.704,0.32942,0.6999,0.23438,0.96667,0.68945
13.712,0.29032,0.70479,0.23047,0.96078,0.68555
13.72,0.25122,0.70186,0.24023,0.95098,0.68555
13.728,0.20821,0.69306,0.23047,0.94706,0.69531
13.736,0.16618,0.68231,0.24023,0.94118,0.68555
13.744,0.12121,0.67058,0.24023,0.94118,0.68945
13.752,0.076246,0.65689,0.24023,0.94118,0.69531
13.76,0.038123,0.64418,0.25586,0.93725,0.68555
13.768,0,0.63245,0.25977,0.93137,0.68555
13.776,0,0.6217,0.2793,0.92549,0.67578
13.784,0,0.60997,0.31055,0.92549,0.66016
13.792,0,0.6002,0.33984,0.92157,0.63477
13.8,0,0.59042,0.37109,0.92549,0.61523
13.808,0,0.5826,0.38086,0.91176,0.60938
13.816,0,0.57576,0.39453,0.89608,0.61523
13.824,0,0.57087,0.42969,0.89608,0.58984
13.832,0,0.56696,0.44531,0.88627,0.58398
13.84,0,0.56305,0.45508,0.87647,0.57422
13.848,0,0.56109,0.44922,0.87059,0.58398
13.856,0,0.55816,0.45508,0.87059,0.57422
13.864,0,0.55523,0.44922,0.88039,0.58008
13.872,0,0.5523,0.40039,0.88627,0.61523
13.88,0,0.54839,0.36523,0.8902,0.64062
13.888,0,0.54545,0.33008,0.89608,0.66016
13.896,0,0.54154,0.31445,0.91176,0.66406
13.904,0,0.53666,0.29102,0.92157,0.66992
13.912,0,0.53275,0.30469,0.92157,0.66406
13.92,0,0.52786,0.29492,0.92157,0.67578
13.928,0,0.52297,0.32031,0.92549,0.66016
13.936,0,0.51906,0.33008,0.93725,0.65039
13.944,0,0.51417,0.33984,0.93137,0.64062
13.952,0,0.51026,0.35938,0.92157,0.62891
13.96,0,0.50635,0.33594,0.92549,0.64453
13.968,0,0.50342,0.31445,0.93725,0.66406
13.976,0,0.50049,0.35547,0.93725,0.63477
13.984,0,0.49756,0.375,0.94118,0.61523
13.992,0,0.49462,0.4043,0.96078,0.5957
14,0,0.49169,0.44922,0.99608,0.57031
14.008,0,0.48876,0.5,1.0059,0.55078
14.016,0,0.48583,0.51953,0.99216,0.5293
14.024,0,0.48289,0.48047,0.94706,0.55469
14.032,0,0.47898,0.43555,0.91569,0.57031
14.04,0,0.47507,0.42969,0.88627,0.57031
14.048,0,0.47116,0.43945,0.90196,0.56445
14.056,0,0.46628,0.40039,0.90588,0.60547
14.064,0,0.46139,0.35938,0.90196,0.625
14.072,0,0.4565,0.35938,0.90588,0.63477
14.08,0,0.45259,0.33594,0.90196,0.64062
14.088,0,0.44966,0.3457,0.90588,0.63477
14.096,0,0.4477,0.34961,0.90588,0.64062
14.104,0,0.44868,0.32422,0.90588,0.64453
14.112,0,0.45357,0.34961,0.91176,0.64062
14.12,0,0.46432,0.33984,0.91569,0.62891
14.128,0,0.48094,0.3457,0.91176,0.63477
14.136,0,0.50342,0.31445,0.92549,0.64453
14.144,0,0.53177,0.23047,0.95686,0.69922
14.152,0,0.56305,0.15625,0.99216,0.74023
14.16,0,0.59824,0.41992,0.87647,0.56055
14.168,0,0.62854,0.89453,0.46078,0.27539
14.176,0,0.65591,1.3887,0.14314,0.03125
14.184,0,0.68524,1.0547,0.11373,0.30078
14.192,0,0.71457,0.38086,0.4451,0.69922
14.2,0,0.74096,0.2793,0.6902,0.74414
14.208,0,0.76344,0.33008,0.81176,0.66992
14.216,0,0.78201,0.29492,0.90588,0.66992
14.224,0,0.79668,0.25586,0.94118,0.68945
14.232,0,0.80841,0.23438,0.96078,0.70508
14.24,0,0.8172,0.23047,0.96667,0.68945
14.248,0,0.82209,0.23438,0.96667,0.68555
14.256,0,0.82502,0.19531,0.96667,0.7207
14.264,0,0.82502,0.18945,0.96667,0.70898
14.272,0,0.82307,0.22461,0.97059,0.68945
14.28,0,0.82014,0.21094,0.96667,0.70508
14.288,0,0.81623,0.19531,0.97059,0.7207
14.296,0,0.81134,0.21484,0.97059,0.68945
14.304,0,0.8045,0.24023,0.96667,0.69531
14.312,0,0.7957,0.21484,0.96667,0.70898
14.32,0,0.78495,0.23047,0.97059,0.69531
14.328,0,0.77322,0.26562,0.97059,0.66992
14.336,0,0.75953,0.2793,0.97059,0.67578
14.344,0,0.74389,0.27539,0.97647,0.66406
14.352,0,0.72727,0.30078,0.98235,0.66992
14.36,0,0.70968,0.33984,0.99216,0.63477
14.368,0,0.69306,0.34961,0.99216,0.63477
14.376,0,0.67742,0.35938,0.99216,0.62891
14.384,0,0.6608,0.39453,0.99216,0.60547
14.392,0,0.64418,0.44531,0.99216,0.58398
14.4,0,0.62854,0.46484,0.98235,0.57031
14.408,0,0.61388,0.46484,0.97647,0.57031
14.416,0,0.6002,0.48438,0.97059,0.57422
14.424,0,0.58847,0.50586,0.96667,0.56055
14.432,0,0.57771,0.49023,0.96078,0.57031
14.44,0,0.56794,0.5,0.95686,0.56445
14.448,0,0.55914,0.43555,0.95098,0.59961
14.456,0,0.55132,0.38477,0.94706,0.625
14.464,0,0.54448,0.35547,0.95686,0.65039
14.472,0,0.53861,0.32422,0.94706,0.66016
14.48,0,0.53177,0.32422,0.94706,0.66016
14.488,0,0.5259,0.32422,0.94118,0.65039
14.496,0,0.52004,0.33984,0.94706,0.64062
14.504,0,0.51417,0.3457,0.93137,0.6543
14.512,0,0.50831,0.33594,0.93725,0.6543
14.52,0,0.50244,0.33008,0.93137,0.6543
14.528,0,0.49756,0.37109,0.94118,0.625
14.536,0,0.49169,0.35938,0.93137,0.63477
14.544,0,0.4868,0.35547,0.93725,0.63477
14.552,0,0.48192,0.3457,0.93725,0.64062
14.56,0,0.47703,0.37109,0.94118,0.625
14.568,0,0.47214,0.33594,0.94706,0.64062
14.576,0,0.46823,0.34961,0.94118,0.62891
14.584,0,0.46334,0.33594,0.94706,0.64062
14.592,0,0.45846,0.35547,0.94118,0.625
14.6,0,0.45259,0.38477,0.96667,0.60547
14.608,0,0.44673,0.42578,0.98627,0.58984
14.616,0,0.44086,0.44531,1.0059,0.57031
14.624,0,0.435,0.48438,0.99216,0.54492
14.632,0,0.42913,0.47461,0.96667,0.55469
14.64,0,0.42326,0.44531,0.93725,0.57031
14.648,0,0.41642,0.41992,0.8902,0.58008
14.656,0,0.41056,0.39453,0.86667,0.58984
14.664,0,0.40665,0.375,0.88039,0.58398
14.672,0,0.40469,0.3457,0.89608,0.62891
14.68,0,0.40469,0.32031,0.90588,0.64062
14.688,0,0.40665,0.30078,0.90196,0.6543
14.696,0,0.41447,0.2793,0.89608,0.67578
14.704,0.036168,0.42717,0.28516,0.90196,0.66406
14.712,0.072336,0.44673,0.26562,0.89608,0.67578
14.72,0.15054,0.47116,0.2793,0.89608,0.66406
14.728,0.22874,0.50147,0.26953,0.91176,0.66406
14.736,0.30401,0.5347,0.28516,0.91569,0.66016
14.744,0.37928,0.56891,0.26562,0.92157,0.66406
14.752,0.45161,0.60411,0.23047,0.92157,0.70508
14.76,0.52493,0.63636,0.13086,0.97059,0.74414
14.768,0.59531,0.66276,0.099609,0.99608,0.75977
14.776,0.66569,0.68426,0.46484,0.82549,0.51953
14.784,0.73216,0.70479,0.99023,0.38039,0.21484
14.792,0.79863,0.72239,1.3691,0.16863,0.054688
14.8,0.85142,0.73803,0.82422,0.31373,0.43555
14.808,0.9042,0.75073,0.28516,0.55098,0.74023
14.816,0.94526,0.76051,0.24023,0.7549,0.75
14.824,0.98534,0.76735,0.26562,0.86078,0.70898
14.832,0.99316,0.77224,0.22461,0.93725,0.70508
14.84,1,0.77419,0.21484,0.97059,0.69531
14.848,1,0.77517,0.21484,0.96667,0.69531
14.856,1,0.77419,0.17578,0.97059,0.7207
14.864,1,0.77126,0.18945,0.99216,0.70508
14.872,1,0.76637,0.19531,0.97647,0.70898
14.88,1,0.76051,0.18945,0.98235,0.70508
14.888,1,0.75367,0.20508,0.98235,0.70898
14.896,1,0.74389,0.20508,0.98235,0.69531
14.904,1,0.73314,0.21484,0.98235,0.69922
14.912,1,0.72043,0.20117,0.97059,0.69531
14.92,1,0.70577,0.20508,0.97059,0.69922
14.928,1,0.69013,0.2207,0.97647,0.69531
14.936,1,0.67253,0.21094,0.97059,0.69531
14.944,1,0.65494,0.23047,0.96667,0.68945
14.952,1,0.63636,0.26562,0.97647,0.66406
14.96,1,0.61877,0.26562,0.96078,0.66992
14.968,1,0.60215,0.26562,0.96078,0.67969
14.976,1,0.58749,0.29102,0.96667,0.66406
14.984,1,0.57283,0.30078,0.96667,0.66016
14.992,1,0.55816,0.33984,0.96078,0.625
15,1,0.54448,0.4043,0.95098,0.5957
15.008,1,0.53177,0.37109,0.95686,0.61523
15.016,1,0.52004,0.38477,0.94706,0.61914
15.024,1,0.51026,0.41016,0.93137,0.60547
15.032,1,0.50049,0.43555,0.93137,0.58984
15.04,1,0.49169,0.42969,0.92157,0.58984
15.048,1,0.48387,0.41992,0.92157,0.59961
15.056,1,0.47703,0.41016,0.92549,0.60547
15.064,1,0.47116,0.37109,0.93137,0.62891
15.072,1,0.4653,0.33984,0.93725,0.6543
15.08,1,0.45846,0.30469,0.94118,0.67578
15.088,1,0.45161,0.27539,0.94118,0.68945
15.096,1,0.44379,0.26562,0.93725,0.69922
15.104,1,0.43597,0.25977,0.94118,0.69531
15.112,1,0.42815,0.26953,0.94118,0.68555
15.12,1,0.41935,0.26562,0.93725,0.68945
15.128,1,0.41153,0.27539,0.93725,0.67969
15.136,1,0.40274,0.28516,0.92549,0.68555
15.144,1,0.39492,0.26562,0.94118,0.68945
15.152,1,0.3871,0.26562,0.93725,0.68555
15.16,1,0.3783,0.30078,0.94118,0.66406
15.168,1,0.37243,0.27539,0.94118,0.68555
15.176,1,0.36657,0.30078,0.93725,0.66406
15.184,1,0.35973,0.30469,0.94118,0.66992
15.192,1,0.35191,0.33984,0.96078,0.64062
15.2,1,0.34506,0.40039,0.98627,0.58984
15.208,1,0.33724,0.41016,1.0059,0.60938
15.216,1,0.3304,0.4043,1.0059,0.61523
15.224,1,0.32356,0.44922,0.98627,0.58008
15.232,1,0.31672,0.43555,0.93725,0.58398
15.24,1,0.30987,0.4043,0.90196,0.58984
15.248,1,0.30303,0.40039,0.87647,0.58398
15.256,1,0.29717,0.38086,0.8902,0.60938
15.264,1,0.29228,0.3457,0.90588,0.62891
15.272,1,0.28935,0.30078,0.91176,0.66016
15.28,1,0.28739,0.28516,0.91569,0.67578
15.288,1,0.28641,0.2793,0.90588,0.68555
15.296,1,0.28837,0.29492,0.91176,0.67578
15.304,1,0.29521,0.2793,0.90196,0.68555
15.312,1,0.30792,0.29102,0.89608,0.66016
15.32,1,0.32747,0.31055,0.91176,0.64062
15.328,1,0.35386,0.28516,0.90588,0.66406
15.336,1,0.38514,0.29102,0.91176,0.66406
15.344,1,0.42131,0.25586,0.92157,0.67969
15.352,1,0.46041,0.16992,0.95686,0.74023
15.36,1,0.49951,0.11523,0.97647,0.76953
15.368,1,0.53372,0.36523,0.87059,0.59961
15.376,1,0.56305,0.87891,0.48431,0.29102
15.384,1,0.59335,1.3301,0.23922,0.070312
15.392,1,0.6217,0.89453,0.34902,0.39453
15.4,1,0.64614,0.32031,0.58431,0.73438
15.408,1,0.66667,0.19531,0.74118,0.79492
15.416,1,0.68426,0.21484,0.85098,0.75
15.424,1,0.69697,0.24609,0.93137,0.7207
15.432,1,0.70674,0.21484,0.96667,0.72461
15.44,1,0.71457,0.20117,0.95686,0.71484
15.448,1,0.71945,0.19531,0.95098,0.70898
15.456,1,0.72239,0.21094,0.95686,0.69922
15.464,1,0.72336,0.21484,0.95686,0.70508
15.472,1,0.72141,0.21094,0.95098,0.69531
15.48,1,0.72043,0.21484,0.94118,0.70508
15.488,1,0.7175,0.22461,0.94118,0.70898
15.496,1,0.71359,0.25,0.94118,0.67969
15.504,1,0.7087,0.25977,0.94118,0.66992
15.512,1,0.70186,0.24023,0.93725,0.68555
15.52,1,0.69208,0.23047,0.93137,0.69531
15.528,1,0.68133,0.25,0.91569,0.68555
15.536,1,0.66862,0.24023,0.92157,0.68945
15.544,1,0.65396,0.25977,0.92157,0.67578
15.552,1,0.63832,0.31445,0.92157,0.63477
15.56,1,0.62268,0.33984,0.92157,0.61523
15.568,1,0.60899,0.31055,0.90588,0.6543
15.576,1,0.59531,0.33008,0.91176,0.63477
15.584,1,0.58162,0.3457,0.91569,0.64062
15.592,1,0.56794,0.38086,0.8902,0.61914
15.6,1,0.55425,0.38477,0.88627,0.61914
15.608,1,0.54154,0.4043,0.87647,0.60938
15.616,1,0.53079,0.42969,0.87647,0.58984
15.624,1,0.52004,0.42578,0.86667,0.5957
15.632,1,0.51222,0.42969,0.85686,0.59961
15.64,1,0.5044,0.41602,0.86078,0.60938
15.648,1,0.49756,0.39453,0.87059,0.61914
15.656,1,0.49071,0.35938,0.88627,0.64453
15.664,1,0.48583,0.33008,0.89608,0.66406
15.672,1,0.48094,0.31445,0.90588,0.66406
15.68,1,0.47507,0.30469,0.92157,0.66406
15.688,1,0.47019,0.29492,0.92549,0.67969
15.696,0.98729,0.46432,0.2793,0.93137,0.70898
15.704,0.97458,0.45943,0.26953,0.93137,0.69922
15.712,0.94624,0.45552,0.26562,0.92157,0.68945
15.72,0.91789,0.45064,0.29102,0.91569,0.66992
15.728,0.87781,0.44673,0.30469,0.91176,0.6543
15.736,0.83871,0.44184,0.2793,0.92157,0.67578
15.744,0.78983,0.43695,0.26953,0.91176,0.68555
15.752,0.74096,0.42033,0.2793,0.91569,0.67578
15.76,0.69208,0.39883,0.31055,0.92157,0.66016
15.768,0.64223,0.38612,0.31445,0.91569,0.65039
15.776,0.59238,0.3783,0.30469,0.91176,0.66406
15.784,0.54252,0.37243,0.31055,0.91569,0.65039
15.792,0.48583,0.36755,0.33984,0.93725,0.62891
15.8,0.42815,0.36266,0.37109,0.95686,0.61523
15.808,0.36559,0.35777,0.38477,0.97059,0.61523
15.816,0.30303,0.35288,0.45508,0.99216,0.57422
15.824,0.24145,0.348,0.4707,0.97647,0.56445
15.832,0.17889,0.34213,0.43945,0.92549,0.57031
15.84,0.11926,0.33724,0.40039,0.88627,0.58984
15.848,0.059629,0.33236,0.38477,0.87059,0.5957
15.856,0.029326,0.32845,0.375,0.87059,0.61914
15.864,0,0.32454,0.34961,0.8902,0.64062
15.872,0,0.32258,0.30469,0.89608,0.66406
15.88,0,0.31965,0.30078,0.90196,0.66016
15.888,0,0.31867,0.29102,0.89608,0.66406
15.896,0,0.31965,0.32031,0.90196,0.64062
15.904,0,0.32454,0.28516,0.89608,0.66992
15.912,0,0.33333,0.32031,0.90588,0.64062
15.92,0,0.34702,0.32422,0.91569,0.64453
15.928,0,0.36657,0.30078,0.91569,0.66016
15.936,0,0.39101,0.30469,0.92157,0.65039
15.944,0,0.41935,0.27539,0.91176,0.66992
15.952,0,0.44966,0.16992,0.95098,0.74023
15.96,0,0.47996,0.12109,0.98627,0.76562
15.968,0,0.50733,0.38086,0.86667,0.58398
15.976,0,0.53079,0.86914,0.44902,0.28516
15.984,0,0.55425,1.3184,0.16863,0.076172
15.992,0,0.57674,0.93555,0.2549,0.36523
16,0,0.59629,0.32031,0.50588,0.73047
16.008,0,0.6129,0.2207,0.7,0.76953
16.016,0,0.62659,0.26953,0.82549,0.70508
16.024,0,0.63636,0.24023,0.91176,0.71484
16.032,0,0.64321,0.21094,0.97647,0.74414
16.04,0,0.64712,0.18555,0.96667,0.73438
16.048,0,0.64907,0.17969,0.96667,0.68945
16.056,0,0.64907,0.20508,0.96078,0.69922
16.064,0,0.64712,0.2207,0.96667,0.67969
16.072,0,0.64321,0.23047,0.96078,0.67578
16.08,0,0.63832,0.21484,0.96078,0.69922
16.088,0,0.63148,0.2207,0.95686,0.70508
16.096,0,0.62366,0.23047,0.95098,0.69531
16.104,0,0.61388,0.22461,0.95686,0.69922
16.112,0,0.60313,0.24609,0.95098,0.67969
16.12,0,0.5914,0.22461,0.93725,0.70508
16.128,0,0.57771,0.24609,0.94118,0.67969
16.136,0,0.56403,0.25586,0.93137,0.67578
16.144,0,0.54936,0.26953,0.92549,0.66016
16.152,0,0.5347,0.28516,0.93137,0.6543
16.16,0,0.52102,0.30469,0.92157,0.64453
16.168,0,0.50929,0.31445,0.92549,0.64453
16.176,0,0.49658,0.33594,0.92157,0.65039
16.184,0,0.48387,0.34961,0.92157,0.64062
16.192,0,0.47214,0.39062,0.91176,0.60938
16.2,0,0.46139,0.41602,0.90588,0.5957
16.208,0,0.45161,0.44922,0.91176,0.57031
16.216,0,0.44379,0.42969,0.8902,0.5957
16.224,0,0.43695,0.46484,0.8902,0.57422
16.232,0,0.43109,0.4707,0.88627,0.57031
16.24,0,0.42522,0.44922,0.88039,0.5957
16.248,0,0.42131,0.42578,0.88039,0.60938
16.256,0,0.4174,0.41016,0.88627,0.5957
16.264,0,0.41349,0.375,0.8902,0.63477
16.272,0,0.41153,0.35547,0.89608,0.64062
16.28,0,0.40762,0.31445,0.90588,0.66992
16.288,0,0.40469,0.29102,0.91176,0.68555
16.296,0,0.3998,0.31055,0.90588,0.66406
16.304,0,0.39589,0.31445,0.91569,0.6543
16.312,0,0.39003,0.30469,0.91176,0.66992
16.32,0,0.38514,0.32031,0.92157,0.6543
16.328,0,0.38025,0.33008,0.92157,0.64453
16.336,0,0.37537,0.32031,0.92157,0.6543
16.344,0,0.37048,0.32422,0.92157,0.65039
16.352,0,0.36559,0.33594,0.92157,0.6543
16.36,0,0.36266,0.3457,0.92157,0.64062
16.368,0,0.35973,0.38477,0.93725,0.61914
16.376,0,0.35582,0.44531,0.97059,0.57422
16.384,0,0.35191,0.46094,0.99216,0.57422
16.392,0,0.348,0.48047,0.98235,0.56055
16.4,0,0.34409,0.49023,0.95098,0.55078
16.408,0,0.34018,0.43945,0.91569,0.58008
16.416,0,0.33627,0.42969,0.87647,0.57031
16.424,0,0.33138,0.43945,0.87059,0.56445
16.432,0,0.32747,0.40039,0.90588,0.5957
16.44,0,0.32258,0.35547,0.91176,0.63477
16.448,0,0.31769,0.33008,0.91569,0.65039
16.456,0,0.31378,0.32031,0.90196,0.65039
16.464,0,0.30987,0.32422,0.90588,0.64453
16.472,0,0.30792,0.33008,0.90196,0.65039
16.48,0,0.30694,0.33594,0.90588,0.64062
16.488,0,0.3089,0.32422,0.90588,0.64453
16.496,0,0.31378,0.33594,0.91176,0.63477
16.504,0,0.32454,0.35547,0.92157,0.61914
16.512,0,0.34115,0.32031,0.91569,0.64453
16.52,0,0.36266,0.2793,0.93725,0.66992
16.528,0,0.39003,0.17578,0.99216,0.7207
16.536,0,0.42131,0.30078,0.95098,0.63477
16.544,0,0.45552,0.71484,0.6098,0.375
16.552,0,0.49071,1.2637,0.21373,0.070312
16.56,0,0.52004,1.3848,0.13922,0.044922
16.568,0,0.54545,0.5,0.39412,0.63477
16.576,0,0.57283,0.24023,0.63529,0.75977
16.584,0,0.59726,0.25977,0.80588,0.72461
16.592,0,0.61877,0.29492,0.90196,0.67578
16.6,0,0.63636,0.25,0.94706,0.69531
16.608,0,0.65103,0.21094,0.96078,0.68555
16.616,0,0.66178,0.19531,0.97059,0.71484
16.624,0,0.6696,0.16992,0.98235,0.73438
16.632,0,0.67449,0.17578,0.98235,0.73047
16.64,0,0.6784,0.18555,0.97647,0.72461
16.648,0,0.68133,0.17969,0.98627,0.72461
16.656,0,0.68231,0.17578,0.97059,0.73438
16.664,0,0.68133,0.18555,0.98235,0.74023
16.672,0,0.67937,0.18945,0.97647,0.7207
16.68,0,0.67742,0.21094,0.97059,0.70898
16.688,0,0.67449,0.20117,0.96667,0.71484
16.696,0,0.67058,0.21484,0.96078,0.69531
16.704,0,0.66373,0.22461,0.95686,0.70508
16.712,0,0.65591,0.23438,0.96078,0.69531
16.72,0,0.64614,0.24609,0.95686,0.68945
16.728,0,0.63441,0.25586,0.95098,0.68555
16.736,0,0.62072,0.25977,0.95686,0.68555
16.744,0,0.60704,0.2793,0.95686,0.67578
16.752,0,0.5914,0.28516,0.95686,0.67969
16.76,0,0.57771,0.31445,0.95098,0.65039
16.768,0,0.56403,0.34961,0.94118,0.64062
16.776,0,0.54936,0.375,0.94706,0.625
16.784,0,0.53568,0.39453,0.95098,0.61523
16.792,0,0.52199,0.41602,0.94118,0.60547
16.8,0,0.50929,0.43945,0.94118,0.58398
16.808,0,0.49756,0.42969,0.93137,0.60938
16.816,0,0.4868,0.41016,0.93137,0.61523
16.824,0,0.47703,0.39453,0.93725,0.61914
16.832,0,0.46921,0.3457,0.93137,0.65039
16.84,0,0.46139,0.31055,0.93137,0.67578
16.848,0,0.45552,0.29492,0.93725,0.66992
16.856,0,0.44966,0.26953,0.93137,0.68945
16.864,0,0.44575,0.26562,0.93137,0.69922
16.872,0,0.44184,0.28516,0.92549,0.68555
16.88,0,0.43695,0.30078,0.93137,0.67578
16.888,0,0.43206,0.30078,0.92157,0.67969
16.896,0,0.4262,0.30469,0.93137,0.66406
16.904,0,0.42131,0.29492,0.92549,0.67969
16.912,0,0.41642,0.31055,0.93725,0.66992
16.92,0,0.41056,0.30078,0.92157,0.67578
16.928,0,0.40469,0.33008,0.92157,0.64062
16.936,0,0.39883,0.35938,0.94118,0.61914
16.944,0,0.39198,0.41992,0.97059,0.58984
16.952,0,0.38514,0.43555,0.99216,0.58398
16.96,0,0.37928,0.48438,1.0059,0.56445
16.968,0,0.37341,0.5,0.98235,0.54492
16.976,0,0.36657,0.45508,0.93725,0.57422
16.984,0,0.35973,0.41992,0.90196,0.58984
16.992,0,0.35191,0.38477,0.88039,0.59961
17,0,0.34409,0.39453,0.89608,0.58984
17.008,0,0.33627,0.34961,0.90588,0.63477
17.016,0,0.32845,0.33008,0.92157,0.64453
17.024,0,0.32063,0.31445,0.92157,0.65039
17.032,0,0.31281,0.30469,0.91569,0.64453
17.04,0,0.30694,0.29492,0.90588,0.66992
17.048,0,0.30303,0.31445,0.91569,0.66016
17.056,0,0.30303,0.33008,0.92157,0.64062
17.064,0,0.30499,0.31445,0.91569,0.65039
17.072,0,0.31183,0.31055,0.92157,0.66016
17.08,0,0.32258,0.31055,0.92157,0.66016
17.088,0,0.34018,0.2793,0.93137,0.67969
17.096,0,0.36266,0.19531,0.96667,0.7207
17.104,0,0.39101,0.15039,0.98627,0.73438
17.112,0,0.42229,0.48047,0.78039,0.51562
17.12,0,0.45552,0.98438,0.37059,0.21484
17.128,0,0.48876,1.3301,0.12353,0.085938
17.136,0,0.52102,0.75391,0.2549,0.4707
17.144,0,0.55132,0.22461,0.51961,0.7793
17.152,0,0.57771,0.20508,0.73529,0.74414
17.16,0,0.59726,0.26562,0.84118,0.70898
17.168,0,0.6129,0.23047,0.92549,0.69922
17.176,0,0.62854,0.16992,0.95098,0.74023
17.184,0,0.64125,0.15625,0.96667,0.75
17.192,0,0.65298,0.16992,0.97059,0.73438
17.2,0,0.6608,0.14453,0.97647,0.75
17.208,0,0.66764,0.15039,0.97059,0.74023
17.216,0,0.67253,0.14453,0.98235,0.74414
17.224,0,0.67546,0.16016,0.97059,0.73438
17.232,0,0.67742,0.16602,0.96667,0.73047
17.24,0,0.67742,0.16992,0.96078,0.73047
17.248,0,0.67644,0.15625,0.96667,0.73438
17.256,0,0.67351,0.16602,0.96078,0.73438
17.264,0,0.6696,0.16992,0.95686,0.73438
17.272,0,0.66373,0.18945,0.95686,0.72461
17.28,0,0.65591,0.20117,0.96078,0.70898
17.288,0,0.64712,0.20117,0.96667,0.71484
17.296,0,0.63636,0.21094,0.95686,0.71484
17.304,0,0.62366,0.23047,0.95686,0.69922
17.312,0,0.60899,0.24609,0.95686,0.69531
17.32,0,0.59433,0.26953,0.96078,0.67969
17.328,0,0.57967,0.30078,0.96667,0.66016
17.336,0,0.56403,0.33594,0.96667,0.64062
17.344,0,0.54936,0.3457,0.97059,0.64062
17.352,0,0.5347,0.35938,0.96667,0.63477
17.36,0,0.52297,0.39062,0.96078,0.61523
17.368,0,0.51222,0.40039,0.96078,0.61523
17.376,0,0.50147,0.41016,0.94706,0.60547
17.384,0,0.49169,0.4043,0.94118,0.61523
17.392,0,0.48289,0.375,0.93137,0.62891
17.4,0,0.4741,0.35547,0.93725,0.64062
17.408,0,0.46725,0.32031,0.93137,0.66016
17.416,0,0.46041,0.2793,0.92157,0.68555
17.424,0,0.45455,0.2793,0.93137,0.67578
17.432,0,0.44868,0.25,0.92549,0.69922
17.44,0,0.44379,0.25586,0.91569,0.69531
17.448,0,0.43891,0.27539,0.92157,0.66992
17.456,0,0.435,0.29102,0.91569,0.66406
17.464,0,0.43109,0.2793,0.91176,0.67578
17.472,0.0039101,0.42717,0.28516,0.92157,0.66992
17.48,0.0087977,0.42229,0.29492,0.93137,0.67969
17.488,0.014663,0.4174,0.31055,0.93725,0.66406
17.496,0.020528,0.41251,0.30469,0.94118,0.66406
17.504,0.024438,0.40665,0.31055,0.94118,0.66016
17.512,0.02737,0.3998,0.36523,0.95098,0.62891
17.52,0.029326,0.39394,0.41016,0.98627,0.60547
17.528,0.031281,0.38807,0.44531,1.0059,0.58398
17.536,0.031281,0.38123,0.50586,0.99608,0.54492
17.544,0.032258,0.37537,0.50977,0.98235,0.55078
17.552,0.029326,0.3695,0.4707,0.93137,0.56055
17.56,0.02737,0.36559,0.41992,0.89608,0.58008
17.568,0.02346,0.3607,0.4043,0.87647,0.58984
17.576,0.01955,0.35582,0.42578,0.89608,0.58984
17.584,0.01564,0.34897,0.36523,0.90588,0.625
17.592,0.010753,0.34311,0.33594,0.90588,0.64062
17.6,0.0068426,0.33627,0.33594,0.90196,0.64453
17.608,0.001955,0.32942,0.33594,0.89608,0.64062
17.616,0.00097752,0.32356,0.32422,0.89608,0.65039
17.624,0,0.32063,0.33594,0.89608,0.64062
17.632,0,0.31965,0.32422,0.90196,0.64453
17.64,0,0.32454,0.33594,0.90588,0.64062
17.648,0,0.33431,0.32422,0.90588,0.64453
17.656,0.00097752,0.34995,0.31445,0.90588,0.65039
17.664,0.0058651,0.36852,0.26953,0.92157,0.67578
17.672,0.010753,0.39003,0.16016,0.96078,0.74023
17.68,0.017595,0.41642,0.15625,0.92157,0.67969
17.688,0.02346,0.4477,0.58398,0.62549,0.44922
17.696,0.030303,0.47898,1.1289,0.22353,0.15039
17.704,0.038123,0.51124,1.2891,0.10392,0.095703
17.712,0.047898,0.54057,0.46094,0.34902,0.66016
17.72,0.057674,0.56696,0.16602,0.61569,0.81055
17.728,0.069404,0.58944,0.23047,0.78627,0.74023
17.736,0.082111,0.60899,0.23438,0.87647,0.73438
17.744,0.094819,0.62366,0.18555,0.93725,0.74023
17.752,0.1085,0.63539,0.16016,0.94706,0.73438
17.76,0.12219,0.64223,0.14453,0.95098,0.75
17.768,0.13685,0.64712,0.14062,0.95686,0.75391
17.776,0.14956,0.65103,0.14453,0.96078,0.75
17.784,0.16227,0.65396,0.15039,0.95098,0.73438
17.792,0.174,0.65591,0.14453,0.95098,0.75
17.8,0.18475,0.67058,0.16016,0.95686,0.73438
17.808,0.19648,0.6911,0.16602,0.96078,0.73438
17.816,0.20723,0.69892,0.14453,0.95686,0.75
17.824,0.21799,0.6999,0.14453,0.96078,0.74414
17.832,0.22874,0.69599,0.15039,0.95686,0.75
17.84,0.23754,0.68817,0.16992,0.96078,0.73438
17.848,0.24633,0.67742,0.17969,0.96667,0.73047
17.856,0.25318,0.66667,0.19531,0.96667,0.71484
17.864,0.261,0.65298,0.20508,0.96667,0.70898
17.872,0.26784,0.63734,0.19531,0.96667,0.71484
17.88,0.27566,0.61877,0.23438,0.96667,0.68945
17.888,0.2825,0.59922,0.25,0.97059,0.68555
17.896,0.28935,0.57869,0.29492,0.97647,0.66016
17.904,0.29619,0.55718,0.33008,0.98627,0.64062
17.912,0.30205,0.53666,0.35547,0.98235,0.625
17.92,0.30694,0.51613,0.375,0.97647,0.61523
17.928,0.31183,0.49756,0.4043,0.98235,0.59961
17.936,0.31574,0.47996,0.41992,0.96667,0.60547
17.944,0.31965,0.46432,0.42969,0.96667,0.58984
17.952,0.32258,0.45064,0.42969,0.95686,0.5957
17.96,0.32649,0.43891,0.41602,0.95686,0.60938
17.968,0.32942,0.43011,0.40039,0.94706,0.61523
17.976,0.33236,0.42131,0.37109,0.94706,0.625
17.984,0.33627,0.41349,0.33008,0.95098,0.6543
17.992,0.34018,0.40665,0.29492,0.94118,0.67969
18,0.34213,0.39883,0.29102,0.93725,0.67578
18.008,0.34506,0.39198,0.28516,0.92549,0.67969
18.016,0.34702,0.38514,0.2793,0.93137,0.68555
18.024,0.34897,0.3783,0.26953,0.92549,0.68945
18.032,0.34995,0.37146,0.2793,0.92549,0.68555
18.04,0.35093,0.36559,0.28516,0.93725,0.67578
18.048,0.35191,0.35875,0.2793,0.94118,0.67578
18.056,0.35191,0.35288,0.26953,0.94118,0.68555
18.064,0.35288,0.348,0.31445,0.94706,0.66016
18.072,0.35484,0.34213,0.37109,0.97059,0.63477
18.08,0.35679,0.33529,0.41602,1.002,0.60547
18.088,0.35875,0.32747,0.46094,1.0118,0.57422
18.096,0.3607,0.31867,0.49023,0.99608,0.55469
18.104,0.36364,0.31085,0.4707,0.96078,0.57031
18.112,0.36755,0.30205,0.43945,0.92157,0.57422
18.12,0.37048,0.29423,0.41602,0.89608,0.58984
18.128,0.3783,0.28641,0.41016,0.90588,0.5957
18.136,0.38612,0.27957,0.38086,0.91569,0.61914
18.144,0.39589,0.27175,0.35938,0.92157,0.64062
18.152,0.40665,0.26491,0.35938,0.92549,0.625
18.16,0.41838,0.26002,0.35938,0.91176,0.63477
18.168,0.43011,0.25513,0.33984,0.90196,0.64453
18.176,0.44379,0.24927,0.33594,0.90196,0.6543
18.184,0.4565,0.24438,0.34961,0.90588,0.64062
18.192,0.4741,0.23949,0.35547,0.91569,0.64453
18.2,0.49071,0.23656,0.33984,0.91176,0.65039
18.208,0.51222,0.23851,0.33594,0.91569,0.64062
18.216,0.53372,0.24536,0.32422,0.91569,0.65039
18.224,0.55621,0.25806,0.2207,0.94118,0.71484
18.232,0.57869,0.27957,0.14453,0.97059,0.74414
18.24,0.60117,0.30792,0.38086,0.8451,0.58398
18.248,0.62366,0.34213,0.83398,0.46078,0.31055
18.256,0.64418,0.37634,1.2988,0.18824,0.095703
18.264,0.66373,0.41056,0.9043,0.17451,0.39453
18.272,0.68133,0.44868,0.30078,0.5098,0.75
18.28,0.69892,0.48876,0.20508,0.71569,0.78906
18.288,0.71359,0.52688,0.2793,0.83137,0.70508
18.296,0.72825,0.56207,0.25977,0.91569,0.68945
18.304,0.74096,0.59238,0.21094,0.94706,0.7207
18.312,0.75367,0.61877,0.19531,0.95686,0.72461
18.32,0.76149,0.6393,0.16016,0.95098,0.74023
18.328,0.77028,0.65494,0.14453,0.94706,0.75
18.336,0.77517,0.66764,0.14453,0.95098,0.74414
18.344,0.78006,0.67546,0.15039,0.94706,0.75
18.352,0.78201,0.68133,0.16602,0.94706,0.73438
18.36,0.78397,0.68328,0.15625,0.94706,0.74414
18.368,0.78299,0.68231,0.16992,0.95098,0.73438
18.376,0.78299,0.68035,0.16992,0.94706,0.73047
18.384,0.77908,0.67644,0.16016,0.95098,0.73438
18.392,0.77615,0.67058,0.17578,0.95098,0.73047
18.4,0.77224,0.66373,0.20508,0.94118,0.70898
18.408,0.76735,0.65494,0.21094,0.93725,0.70898
18.416,0.76344,0.64418,0.22461,0.93725,0.69922
18.424,0.75953,0.63148,0.2207,0.93725,0.70898
18.432,0.75562,0.61681,0.24023,0.93137,0.69531
18.44,0.75269,0.6002,0.25,0.93137,0.68555
18.448,0.74976,0.58065,0.26562,0.94118,0.68555
18.456,0.74682,0.56305,0.2793,0.93137,0.67578
18.464,0.74487,0.54643,0.30469,0.92549,0.66406
18.472,0.74291,0.52786,0.33008,0.92157,0.64453
18.48,0.74096,0.50831,0.35938,0.93137,0.63477
18.488,0.739,0.49071,0.375,0.92157,0.62891
18.496,0.73705,0.47312,0.38086,0.92157,0.63477
18.504,0.73509,0.45748,0.39453,0.92157,0.61523
18.512,0.73314,0.44379,0.39062,0.92157,0.625
18.52,0.73118,0.43206,0.375,0.92157,0.63477
18.528,0.72727,0.42229,0.34961,0.92157,0.65039
18.536,0.72434,0.41447,0.33008,0.92157,0.66016
18.544,0.71848,0.40762,0.30078,0.92157,0.67578
18.552,0.71163,0.40274,0.28516,0.92549,0.67969
18.56,0.70186,0.39883,0.26953,0.92157,0.68555
18.568,0.69208,0.39589,0.25977,0.92157,0.68945
18.576,0.68035,0.39198,0.26562,0.92157,0.68555
18.584,0.6696,0.38807,0.28516,0.92157,0.67578
18.592,0.65591,0.38319,0.30078,0.92549,0.66406
18.6,0.64321,0.3783,0.30469,0.92157,0.66406
18.608,0.62366,0.37243,0.28516,0.92549,0.67969
18.616,0.60411,0.36559,0.32422,0.93137,0.6543
18.624,0.57967,0.35875,0.41602,0.96078,0.60547
18.632,0.55523,0.35191,0.44922,0.98627,0.58008
18.64,0.53079,0.34506,0.47461,0.99216,0.56445
18.648,0.50733,0.33724,0.48438,0.99216,0.56055
18.656,0.48289,0.33138,0.46094,0.95098,0.55078
18.664,0.45846,0.32649,0.42578,0.92157,0.58398
18.672,0.43206,0.32063,0.41016,0.89608,0.58008
18.68,0.40665,0.31378,0.41016,0.90196,0.58984
18.688,0.37928,0.30694,0.38477,0.91176,0.61523
18.696,0.35288,0.29912,0.35547,0.92157,0.63477
18.704,0.32747,0.29228,0.3457,0.91176,0.64062
18.712,0.30205,0.28543,0.35547,0.90196,0.625
18.72,0.27957,0.27761,0.35938,0.91176,0.62891
18.728,0.25611,0.26979,0.35938,0.90588,0.61914
18.736,0.23754,0.26295,0.37109,0.90196,0.61914
18.744,0.21799,0.25611,0.36523,0.90588,0.62891
18.752,0.20235,0.25122,0.375,0.91569,0.61523
18.76,0.18671,0.24927,0.38086,0.91176,0.60938
18.768,0.174,0.25122,0.32422,0.92157,0.64453
18.776,0.16031,0.25611,0.21094,0.96078,0.71484
18.784,0.14956,0.26784,0.16992,0.97059,0.73047
18.792,0.13881,0.28543,0.53906,0.73529,0.48047
18.8,0.13099,0.31085,1.0586,0.31373,0.17969
18.808,0.12219,0.34213,1.2988,0.13333,0.076172
18.816,0.11632,0.37928,0.6543,0.32353,0.53906
18.824,0.10948,0.41935,0.26562,0.58431,0.74414
18.832,0.10362,0.46041,0.30078,0.78039,0.70508
18.84,0.096774,0.50147,0.30469,0.85686,0.67969
18.848,0.090909,0.53959,0.25977,0.93137,0.68555
18.856,0.084066,0.56989,0.21484,0.95686,0.70898
18.864,0.077224,0.59335,0.19531,0.95686,0.7207
18.872,0.071359,0.61584,0.18945,0.95098,0.70898
18.88,0.063539,0.63539,0.17969,0.95686,0.72461
18.888,0.056696,0.65005,0.18555,0.94706,0.71484
18.896,0.050831,0.66178,0.18945,0.95098,0.71484
18.904,0.043988,0.66862,0.18555,0.95098,0.7207
18.912,0.038123,0.67351,0.17969,0.94706,0.7207
18.92,0.033236,0.67449,0.18945,0.95098,0.71484
18.928,0.02737,0.67351,0.20117,0.95098,0.70508
18.936,0.021505,0.67058,0.21484,0.94706,0.69922
18.944,0.016618,0.66471,0.22461,0.95098,0.69531
18.952,0.01173,0.65591,0.2207,0.94706,0.68945
18.96,0.0068426,0.64614,0.25586,0.95686,0.67578
18.968,0.0029325,0.63539,0.24023,0.94118,0.68555
18.976,0.00097752,0.6217,0.24023,0.94118,0.69922
18.984,0,0.60606,0.24609,0.94118,0.68945
18.992,0,0.58847,0.26562,0.94118,0.67969
19,0,0.56891,0.29102,0.94118,0.66406
19.008,0,0.54936,0.30078,0.94118,0.66406
19.016,0,0.52884,0.31055,0.94118,0.66016
19.024,0,0.50831,0.33984,0.94118,0.63477
19.032,0,0.48876,0.37109,0.93725,0.625
19.04,0,0.47116,0.375,0.93137,0.62891
19.048,0,0.45455,0.40039,0.93137,0.61523
19.056,0,0.44282,0.39062,0.93137,0.61523
19.064,0,0.43304,0.38086,0.92549,0.61914
19.072,0,0.42326,0.36523,0.93137,0.63477
19.08,0,0.41447,0.33594,0.92157,0.6543
19.088,0,0.40762,0.30469,0.92549,0.66406
19.096,0,0.40176,0.28516,0.92157,0.67969
19.104,0,0.39589,0.26953,0.92157,0.68555
19.112,0,0.39101,0.26562,0.92157,0.68555
19.12,0,0.38612,0.26562,0.91569,0.67969
19.128,0,0.38123,0.28516,0.92157,0.67578
19.136,0,0.37634,0.27539,0.92157,0.66992
19.144,0,0.37146,0.26953,0.92157,0.67969
19.152,0,0.36559,0.29102,0.92549,0.66406
19.16,0,0.36168,0.3457,0.94706,0.63477
19.168,0,0.35777,0.40039,0.98235,0.60547
19.176,0,0.35288,0.42578,0.99216,0.58984
19.184,0,0.34604,0.46484,1.002,0.57031
19.192,0,0.3392,0.48047,0.98235,0.56445
19.2,0,0.33236,0.45508,0.94118,0.56055
19.208,0,0.32551,0.43945,0.91176,0.57422
19.216,0,0.31867,0.42969,0.87059,0.57031
19.224,0,0.31183,0.42578,0.89608,0.58398
19.232,0,0.30596,0.39453,0.91176,0.60547
19.24,0,0.29912,0.35938,0.91176,0.625
19.248,0,0.29228,0.37109,0.91176,0.61523
19.256,0,0.28739,0.35547,0.90196,0.62891
19.264,0,0.28348,0.35938,0.90196,0.625
19.272,0,0.27761,0.37109,0.90588,0.61523
19.28,0,0.27175,0.37109,0.91569,0.61523
19.288,0,0.26491,0.36523,0.91176,0.61523
19.296,0,0.25904,0.38086,0.91569,0.61523
19.304,0,0.25318,0.39062,0.91569,0.59961
19.312,0,0.25122,0.33594,0.93137,0.63477
19.32,0,0.2522,0.21094,0.96667,0.70898
19.328,0,0.25806,0.17578,0.94118,0.72461
19.336,0,0.27077,0.55469,0.70588,0.4707
19.344,0,0.2913,1.0898,0.3,0.16016
19.352,0,0.31769,1.2949,0.17451,0.080078
19.36,0,0.34604,0.58008,0.3902,0.58984
19.368,0,0.37634,0.26562,0.62941,0.74414
19.376,0,0.41251,0.33008,0.79608,0.67578
19.384,0,0.45161,0.33594,0.88039,0.66406
19.392,0,0.48974,0.26953,0.94706,0.67578
19.4,0,0.52688,0.24609,0.96078,0.68555
19.408,0,0.56012,0.2207,0.96667,0.69922
19.416,0,0.58847,0.20117,0.96667,0.70898
19.424,0,0.61193,0.19531,0.96667,0.70898
19.432,0,0.62952,0.21484,0.97059,0.69922
19.44,0,0.64321,0.19531,0.96078,0.70898
19.448,0,0.65298,0.2207,0.96667,0.68945
19.456,0,0.65787,0.21484,0.96667,0.69531
19.464,0,0.65982,0.2207,0.96667,0.69922
19.472,0,0.65982,0.2207,0.96667,0.69531
19.48,0,0.65689,0.24023,0.96667,0.68555
19.488,0,0.652,0.25,0.96078,0.68555
19.496,0,0.64516,0.26562,0.96078,0.66992
19.504,0,0.63441,0.26953,0.96078,0.66406
19.512,0,0.62268,0.2793,0.95686,0.66406
19.52,0,0.60899,0.29492,0.96078,0.64453
19.528,0,0.59238,0.28516,0.95098,0.6543
19.536,0,0.5738,0.30078,0.95686,0.65039
19.544,0,0.55327,0.32031,0.96078,0.63477
19.552,0,0.53372,0.3457,0.95686,0.61914
19.56,0,0.51515,0.35938,0.95098,0.61523
19.568,0,0.49951,0.375,0.95098,0.60938
19.576,0,0.48192,0.4043,0.94706,0.59961
19.584,0,0.4653,0.42578,0.94706,0.58984
19.592,0,0.44966,0.43945,0.94118,0.58398
19.6,0,0.43597,0.44531,0.93725,0.58008
19.608,0,0.42326,0.41016,0.94118,0.60547
19.616,0,0.41153,0.38086,0.95098,0.61523
19.624,0,0.40078,0.35938,0.94118,0.63477
19.632,0,0.39198,0.34961,0.94118,0.64062
19.64,0,0.38514,0.33594,0.93725,0.64453
19.648,0,0.37928,0.33008,0.92549,0.6543
19.656,0,0.37439,0.32031,0.93137,0.65039
19.664,0,0.37146,0.31055,0.93137,0.66406
19.672,0,0.36755,0.32031,0.94118,0.64453
19.68,0,0.36364,0.33008,0.94118,0.64062
19.688,0,0.35973,0.33594,0.93725,0.64453
19.696,0,0.35582,0.33984,0.94118,0.64062
19.704,0,0.35191,0.38086,0.95686,0.61523
19.712,0,0.34702,0.43945,0.98627,0.58398
19.72,0,0.34115,0.49414,1.0059,0.54492
19.728,0,0.33529,0.54492,1.0118,0.51562
19.736,0,0.32845,0.55078,0.99216,0.50977
19.744,0,0.3216,0.50586,0.94118,0.5293
19.752,0,0.31574,0.48047,0.8902,0.53906
19.76,0,0.31183,0.46484,0.87647,0.55078
19.768,0,0.30596,0.44531,0.90588,0.57031
19.776,0,0.29912,0.41016,0.92157,0.58984
19.784,0,0.29228,0.38477,0.92157,0.60938
19.792,0,0.28543,0.36523,0.92157,0.61914
19.8,0,0.27859,0.375,0.91569,0.60938
19.808,0,0.27175,0.35938,0.91569,0.61523
19.816,0,0.26491,0.36523,0.91176,0.61523
19.824,0,0.25806,0.37109,0.92157,0.61523
19.832,0,0.2522,0.36523,0.92549,0.61523
19.84,0,0.24633,0.38477,0.92157,0.60547
19.848,0,0.24633,0.39062,0.92549,0.59961
19.856,0,0.25122,0.30078,0.94706,0.6543
19.864,0,0.25709,0.18555,0.99216,0.71484
19.872,0,0.26393,0.31055,0.93725,0.62891
19.88,0,0.27468,0.68945,0.63529,0.38477
19.888,0,0.29228,1.2344,0.26863,0.089844
19.896,0,0.31672,1.3242,0.21961,0.25
19.904,0,0.34702,0.49414,0.4902,0.64453
19.912,0,0.38416,0.33008,0.6902,0.71484
19.92,0,0.42424,0.35547,0.82157,0.66016
19.928,0,0.4653,0.33984,0.90588,0.64453
19.936,0,0.50538,0.32031,0.95686,0.65039
19.944,0,0.54252,0.2793,0.97059,0.66406
19.952,0,0.57283,0.25586,0.97647,0.67578
19.96,0,0.59629,0.26562,0.96667,0.67578
19.968,0,0.61779,0.23438,0.98627,0.68555
19.976,0,0.63539,0.23047,0.97647,0.68555
19.984,0,0.64907,0.26562,0.97647,0.66992
19.992,0,0.65885,0.24609,0.98235,0.67969
20,0,0.66471,0.23438,0.97059,0.68555
20.008,0,0.66764,0.26953,0.97647,0.66406
20.016,0,0.66764,0.28516,0.96667,0.65039
20.024,0,0.66373,0.26562,0.97647,0.66406
20.032,0,0.65787,0.26953,0.97059,0.66992
20.04,0,0.64907,0.29492,0.96667,0.6543
20.048,0.010753,0.63734,0.28516,0.97059,0.6543
20.056,0.021505,0.62561,0.29102,0.96667,0.65039
20.064,0.036168,0.61193,0.30078,0.96667,0.6543
20.072,0.050831,0.59629,0.32031,0.96667,0.64062
20.08,0.065494,0.57869,0.33008,0.96667,0.63477
20.088,0.081134,0.56012,0.3457,0.96078,0.62891
20.096,0.096774,0.54057,0.35547,0.95098,0.62891
20.104,0.11241,0.52102,0.37109,0.94706,0.61523
20.112,0.13294,0.50244,0.38086,0.94118,0.61523
20.12,0.15347,0.48485,0.4043,0.94118,0.5957
20.128,0.17791,0.46823,0.41016,0.93137,0.59961
20.136,0.20332,0.45357,0.41602,0.92157,0.5957
20.144,0.23265,0.43988,0.41992,0.92157,0.60938
20.152,0.26295,0.42913,0.37109,0.92157,0.62891
20.16,0.29619,0.42033,0.35938,0.92157,0.64062
20.168,0.32845,0.41251,0.32031,0.93725,0.66016
20.176,0.35973,0.40567,0.2793,0.92549,0.67969
20.184,0.39101,0.3998,0.25977,0.93137,0.68555
20.192,0.42033,0.39394,0.23438,0.92549,0.70508
20.2,0.44966,0.39003,0.26562,0.93137,0.68555
20.208,0.48192,0.38514,0.25977,0.92157,0.68555
20.216,0.51417,0.38123,0.24609,0.93137,0.69531
20.224,0.54839,0.37732,0.24609,0.94118,0.68555
20.232,0.5826,0.37341,0.25586,0.92549,0.68945
20.24,0.6129,0.36852,0.25,0.93137,0.69531
20.248,0.64418,0.36266,0.27539,0.94118,0.67969
20.256,0.67155,0.35875,0.32031,0.95686,0.6543
20.264,0.6999,0.35484,0.36523,0.97647,0.625
20.272,0.72825,0.34897,0.4043,0.98627,0.59961
20.28,0.75758,0.34311,0.38477,0.98235,0.61523
20.288,0.7869,0.33724,0.43555,0.98627,0.57422
20.296,0.8172,0.3304,0.46094,0.93725,0.55469
20.304,0.84751,0.32356,0.43555,0.91176,0.57031
20.312,0.87879,0.31672,0.40039,0.87647,0.58008
20.32,0.91105,0.3089,0.38477,0.87647,0.5957
20.328,0.94233,0.3001,0.34961,0.89608,0.625
20.336,0.97165,0.29228,0.32031,0.90196,0.6543
20.344,1,0.2825,0.31055,0.91176,0.65039
20.352,1,0.27566,0.30078,0.89608,0.66016
20.36,1,0.26882,0.28516,0.90196,0.67578
20.368,1,0.261,0.31055,0.89608,0.65039
20.376,1,0.25318,0.28516,0.91176,0.66406
20.384,1,0.24536,0.30078,0.91569,0.6543
20.392,1,0.23754,0.31055,0.91176,0.65039
20.4,1,0.23167,0.27539,0.91176,0.67969
20.408,1,0.22776,0.26562,0.91569,0.66992
20.416,1,0.22776,0.28516,0.92157,0.66406
20.424,1,0.23363,0.20117,0.95686,0.71484
20.432,1,0.24536,0.16602,0.98627,0.73438
20.44,1,0.26491,0.43555,0.8902,0.55078
20.448,1,0.29032,0.88867,0.56078,0.27539
20.456,1,0.31769,1.3184,0.34902,0.095703
20.464,1,0.34604,0.85938,0.4902,0.43555
20.472,1,0.38123,0.40039,0.66471,0.69531
20.48,1,0.41838,0.24023,0.76667,0.75
20.488,1,0.45552,0.29492,0.86078,0.68945
20.496,1,0.48974,0.31445,0.91569,0.66016
20.504,1,0.52199,0.28516,0.93137,0.66992
20.512,1,0.54839,0.26562,0.94118,0.67969
20.52,1,0.57087,0.25,0.94706,0.68555
20.528,1,0.58651,0.26562,0.95098,0.66992
20.536,1,0.59824,0.26562,0.94118,0.67578
20.544,1,0.60508,0.25,0.95098,0.68555
20.552,1,0.60802,0.2793,0.93725,0.66992
20.56,1,0.60704,0.26562,0.93137,0.68555
20.568,1,0.60313,0.27539,0.93725,0.66406
20.576,1,0.59726,0.29492,0.92549,0.66016
20.584,1,0.58749,0.30469,0.92157,0.65039
20.592,1,0.57576,0.33008,0.91569,0.64062
20.6,1,0.56109,0.28516,0.92549,0.66016
20.608,1,0.54545,0.31055,0.91176,0.65039
20.616,1,0.52786,0.3457,0.90196,0.62891
20.624,1,0.50831,0.3457,0.90588,0.63477
20.632,1,0.48876,0.36523,0.8902,0.61523
20.64,1,0.46921,0.39062,0.87647,0.59961
20.648,1,0.44966,0.38477,0.88039,0.60938
20.656,1,0.43304,0.41992,0.87059,0.58984
20.664,1,0.41838,0.44531,0.85098,0.58008
20.672,1,0.40274,0.46094,0.83529,0.57422
20.68,1,0.3871,0.44531,0.84118,0.56445
20.688,1,0.37341,0.49414,0.82157,0.55469
20.696,1,0.3607,0.48047,0.83137,0.55078
20.704,1,0.35093,0.48438,0.82549,0.57031
20.712,1,0.34213,0.47461,0.8451,0.56445
20.72,1,0.33529,0.42969,0.85686,0.58984
20.728,1,0.3304,0.39453,0.87647,0.62891
20.736,1,0.32649,0.32422,0.90588,0.66406
20.744,1,0.32356,0.31055,0.92549,0.66406
20.752,1,0.3216,0.27539,0.93725,0.69531
20.76,1,0.32063,0.26562,0.93725,0.70898
20.768,1,0.31769,0.28516,0.94118,0.69531
20.776,1,0.31476,0.25977,0.95098,0.68555
20.784,1,0.31183,0.25,0.94118,0.69922
20.792,1,0.30792,0.29102,0.95098,0.68555
20.8,1,0.30401,0.29102,0.94118,0.67969
20.808,1,0.29912,0.31445,0.96667,0.66992
20.816,1,0.29521,0.37109,0.98235,0.62891
20.824,1,0.2913,0.39062,1.0118,0.61914
20.832,1,0.28641,0.42578,1.002,0.5957
20.84,1,0.2825,0.4707,0.99608,0.57031
20.848,1,0.27664,0.47461,0.96078,0.56445
20.856,1,0.27273,0.42578,0.92157,0.5957
20.864,1,0.26979,0.44922,0.88627,0.57031
20.872,1,0.26491,0.42969,0.89608,0.58398
20.88,1,0.26002,0.40039,0.90196,0.60938
20.888,1,0.25318,0.35547,0.91176,0.63477
20.896,1,0.24731,0.36523,0.91569,0.64062
20.904,1,0.24047,0.30469,0.92157,0.66406
20.912,1,0.23363,0.32031,0.90588,0.66016
20.92,1,0.22678,0.32422,0.91569,0.6543
20.928,1,0.22092,0.31055,0.91569,0.66406
20.936,1,0.21408,0.32031,0.92157,0.65039
20.944,1,0.20821,0.31055,0.92157,0.66016
20.952,1,0.2043,0.33594,0.92157,0.64453
20.96,1,0.20137,0.32422,0.92157,0.65039
20.968,1,0.19746,0.30078,0.92549,0.66406
20.976,1,0.19453,0.17578,0.97647,0.74023
20.984,1,0.19257,0.125,1.002,0.76562
20.992,1,0.19453,0.43945,0.8902,0.56445
21,1,0.20039,0.91992,0.52941,0.27539
21.008,1,0.2131,1.3535,0.3098,0.076172
21.016,1,0.23265,0.91016,0.41569,0.4043
21.024,1,0.25806,0.40039,0.62941,0.69922
21.032,1,0.28935,0.26562,0.76078,0.74414
21.04,1,0.32454,0.31055,0.87647,0.68555
21.048,1,0.36168,0.33008,0.93725,0.66992
21.056,1,0.39589,0.30078,0.96078,0.66406
21.064,1,0.4262,0.25977,0.97059,0.68555
21.072,1,0.4565,0.26562,0.96078,0.68945
21.08,1,0.48583,0.24609,0.96078,0.69922
21.088,1,0.51026,0.25586,0.96667,0.68945
21.096,1,0.53079,0.26562,0.96667,0.68555
21.104,1,0.54643,0.25586,0.97059,0.68555
21.112,1,0.55621,0.2793,0.96667,0.66406
21.12,1,0.56207,0.2793,0.96667,0.66406
21.128,1,0.56305,0.30469,0.96078,0.6543
21.136,1,0.56012,0.31055,0.94118,0.66406
21.144,1,0.55327,0.29492,0.94118,0.66992
21.152,1,0.54545,0.30469,0.93725,0.66406
21.16,1,0.53666,0.31055,0.94118,0.66016
21.168,1,0.52493,0.33984,0.92549,0.64062
21.176,1,0.51026,0.34961,0.92157,0.64062
21.184,1,0.49462,0.38086,0.92549,0.61523
21.192,1,0.47703,0.39453,0.91569,0.60938
21.2,1,0.45943,0.36523,0.91176,0.625
21.208,1,0.44086,0.42578,0.89608,0.58984
21.216,1,0.42229,0.44922,0.88627,0.57422
21.224,1,0.40469,0.43555,0.87059,0.58984
21.232,1,0.38807,0.47461,0.87059,0.56445
21.24,1,0.37341,0.45508,0.86667,0.58008
21.248,1,0.35973,0.47461,0.86667,0.57422
21.256,1,0.34995,0.44922,0.86078,0.58984
21.264,1,0.34213,0.45508,0.86667,0.58984
21.272,1,0.33627,0.42969,0.87059,0.60938
21.28,1,0.3304,0.36523,0.90196,0.64453
21.288,1,0.32649,0.34961,0.91569,0.6543
21.296,1,0.32356,0.31445,0.91176,0.67969
21.304,1,0.3216,0.28516,0.92549,0.68945
21.312,1,0.31965,0.31055,0.93137,0.66992
21.32,1,0.31867,0.32031,0.93725,0.66406
21.328,1,0.31867,0.29102,0.94118,0.67578
21.336,1,0.31769,0.33008,0.93725,0.66016
21.344,1,0.31672,0.29102,0.94118,0.67969
21.352,1,0.31672,0.29492,0.94118,0.68555
21.36,1,0.31769,0.34961,0.95098,0.64062
21.368,1,0.31769,0.38477,0.96667,0.61523
21.376,1,0.31672,0.43555,0.99608,0.58398
21.384,1,0.31672,0.44922,0.98627,0.58008
21.392,1,0.31476,0.47461,0.98627,0.56445
21.4,1,0.31378,0.44531,0.93725,0.58398
21.408,1,0.31183,0.41992,0.8902,0.60547
21.416,1,0.31085,0.4043,0.86078,0.60547
21.424,1,0.30792,0.41602,0.85686,0.58984
21.432,1,0.30596,0.40039,0.88039,0.61523
21.44,1,0.30303,0.36523,0.8902,0.62891
21.448,1,0.3001,0.33594,0.89608,0.64453
21.456,1,0.29814,0.31445,0.88627,0.66016
21.464,1,0.29619,0.30078,0.8902,0.66992
21.472,1,0.29326,0.31445,0.89608,0.66016
21.48,1,0.28935,0.31055,0.8902,0.66406
21.488,1,0.28641,0.31445,0.89608,0.66406
21.496,1,0.28152,0.33008,0.90196,0.64453
21.504,1,0.27664,0.31055,0.89608,0.66992
21.512,1,0.27175,0.30469,0.89608,0.67578
21.52,1,0.26882,0.25,0.91569,0.68945
21.528,1,0.26686,0.13477,0.96667,0.75977
21.536,1,0.26882,0.26562,0.94706,0.66992
21.544,1,0.27664,0.65039,0.68627,0.42969
21.552,1,0.28739,1.2051,0.28431,0.12109
21.56,1,0.30303,1.3789,0.2098,0.054688
21.568,1,0.32747,0.58398,0.4549,0.58984
21.576,1,0.35777,0.2793,0.63529,0.74414
21.584,1,0.39394,0.26562,0.81176,0.69922
21.592,1,0.435,0.32422,0.88627,0.66406
21.6,1,0.47703,0.28516,0.93725,0.67578
21.608,1,0.51808,0.26562,0.94118,0.68555
21.616,1,0.55718,0.24609,0.95098,0.68945
21.624,1,0.59238,0.27539,0.95686,0.66406
21.632,1,0.62268,0.26562,0.96078,0.66992
21.64,1,0.64809,0.25586,0.95686,0.68555
21.648,1,0.66667,0.26562,0.95686,0.67969
21.656,1,0.67937,0.25586,0.95686,0.68555
21.664,1,0.69013,0.26562,0.96078,0.67969
21.672,1,0.69697,0.28516,0.95686,0.66406
21.68,1,0.70186,0.2793,0.95098,0.67578
21.688,1,0.70283,0.28516,0.95686,0.66406
21.696,1,0.70088,0.31055,0.94706,0.65039
21.704,1,0.69501,0.31055,0.93725,0.6543
21.712,1,0.68817,0.31445,0.94118,0.65039
21.72,1,0.67742,0.33008,0.94118,0.64062
21.728,1,0.66569,0.35938,0.94118,0.61523
21.736,1,0.65103,0.35938,0.94118,0.62891
21.744,1,0.63636,0.38086,0.93137,0.60938
21.752,1,0.62072,0.40039,0.91569,0.5957
21.76,1,0.60606,0.42969,0.90196,0.58008
21.768,1,0.59042,0.43945,0.88627,0.58398
21.776,1,0.57283,0.42969,0.88039,0.5957
21.784,1,0.55523,0.44922,0.87647,0.57422
21.792,1,0.53861,0.46094,0.87059,0.58008
21.8,1,0.52199,0.45508,0.87059,0.58398
21.808,1,0.50733,0.46484,0.87059,0.57031
21.816,1,0.49462,0.47461,0.87059,0.58008
21.824,1,0.48289,0.41992,0.8902,0.60547
21.832,1,0.47312,0.38477,0.89608,0.625
21.84,1,0.4653,0.3457,0.90588,0.65039
21.848,1,0.45943,0.32031,0.92157,0.66406
21.856,1,0.45552,0.31055,0.92157,0.66406
21.864,1,0.45259,0.30078,0.92157,0.66406
21.872,1,0.45064,0.30469,0.91176,0.66406
21.88,1,0.4477,0.30078,0.91176,0.66016
21.888,0.99511,0.44575,0.33008,0.92157,0.64062
21.896,0.98925,0.4565,0.32031,0.92157,0.65039
21.904,0.95992,0.47312,0.31445,0.91569,0.6543
21.912,0.9306,0.47898,0.34961,0.92549,0.62891
21.92,0.89638,0.48094,0.39453,0.96078,0.59961
21.928,0.86217,0.47898,0.41016,0.98235,0.5957
21.936,0.82796,0.47605,0.44531,0.98627,0.58008
21.944,0.79374,0.47214,0.46484,0.97059,0.56445
21.952,0.75953,0.46823,0.42969,0.92157,0.58008
21.96,0.72532,0.46432,0.4043,0.88627,0.58398
21.968,0.68719,0.45943,0.38086,0.86667,0.59961
21.976,0.64907,0.45357,0.37109,0.88627,0.61523
21.984,0.60802,0.44868,0.33594,0.89608,0.64062
21.992,0.56696,0.44282,0.31055,0.8902,0.66016
22,0.52884,0.43695,0.30078,0.90196,0.66406
22.008,0.49169,0.43206,0.30469,0.89608,0.6543
22.016,0.4565,0.42522,0.31445,0.8902,0.64453
22.024,0.42229,0.41935,0.31055,0.89608,0.6543
22.032,0.3871,0.41251,0.31055,0.88627,0.66016
22.04,0.35288,0.40567,0.30469,0.89608,0.6543
22.048,0.31769,0.40078,0.28516,0.90588,0.66992
22.056,0.28348,0.39687,0.28516,0.89608,0.66406
22.064,0.24927,0.39394,0.29102,0.91176,0.66406
22.072,0.21505,0.39394,0.17578,0.95686,0.73047
22.08,0.1828,0.39883,0.125,0.98235,0.75391
22.088,0.15054,0.41153,0.43945,0.81569,0.55078
22.096,0.12219,0.43109,0.96484,0.38039,0.23047
22.104,0.094819,0.45846,1.3789,0.16471,0.050781
22.112,0.069404,0.49365,0.84375,0.29412,0.41992
22.12,0.044966,0.53372,0.30469,0.53529,0.74023
22.128,0.022483,0.57674,0.24023,0.74118,0.75977
22.136,0,0.62072,0.29102,0.8451,0.68555
22.144,0,0.66373,0.27539,0.92157,0.68555
22.152,0,0.69892,0.24609,0.95686,0.68945
22.16,0,0.72727,0.21484,0.96667,0.70508
22.168,0,0.75562,0.22461,0.97059,0.68555
22.176,0,0.78006,0.24023,0.97647,0.68555
22.184,0,0.80156,0.2207,0.96667,0.69922
22.192,0,0.8172,0.23438,0.96078,0.68945
22.2,0,0.82991,0.24023,0.96667,0.68555
22.208,0,0.83871,0.24023,0.96078,0.68945
22.216,0,0.84457,0.24609,0.96078,0.68555
22.224,0,0.84751,0.24609,0.95686,0.68555
22.232,0,0.84751,0.23438,0.95098,0.69531
22.24,0,0.84653,0.25586,0.95686,0.67969
22.248,0,0.84164,0.26562,0.95098,0.68555
22.256,0,0.83578,0.25977,0.94706,0.66016
22.264,0,0.82796,0.30078,0.94706,0.65039
22.272,0,0.8172,0.30469,0.94118,0.65039
22.28,0,0.80547,0.32031,0.94118,0.64062
22.288,0,0.79179,0.3457,0.93725,0.63477
22.296,0,0.77517,0.35938,0.93137,0.625
22.304,0,0.75758,0.375,0.92549,0.61523
22.312,0,0.739,0.4043,0.92549,0.5957
22.32,0,0.71945,0.41992,0.92157,0.58984
22.328,0,0.69892,0.44531,0.91569,0.58008
22.336,0,0.6784,0.46484,0.91176,0.57422
22.344,0,0.65982,0.46094,0.92157,0.57422
22.352,0,0.64321,0.46094,0.91176,0.57422
22.36,0,0.62854,0.43945,0.91176,0.5957
22.368,0,0.61388,0.42969,0.91176,0.59961
22.376,0,0.6002,0.4043,0.92157,0.61523
22.384,0,0.58749,0.36523,0.92157,0.63477
22.392,0,0.57576,0.33008,0.91569,0.66406
22.4,0,0.56598,0.32031,0.91569,0.66406
22.408,0,0.55718,0.32031,0.92157,0.6543
22.416,0,0.55034,0.31445,0.91176,0.66016
22.424,0,0.5435,0.33008,0.90196,0.65039
22.432,0,0.53763,0.31055,0.90196,0.66406
22.44,0,0.53177,0.32422,0.90588,0.6543
22.448,0,0.52688,0.33594,0.90196,0.65039
22.456,0,0.52297,0.33984,0.91569,0.64062
22.464,0,0.51808,0.36523,0.92549,0.61914
22.472,0,0.51222,0.41016,0.95098,0.59961
22.48,0,0.50733,0.44922,0.98235,0.57422
22.488,0,0.50147,0.49414,0.99216,0.54492
22.496,0,0.49462,0.5,0.96667,0.55469
22.504,0,0.48876,0.46094,0.92549,0.57031
22.512,0,0.48192,0.41602,0.88627,0.5957
22.52,0,0.4741,0.4043,0.86078,0.58984
22.528,0,0.46725,0.41016,0.88039,0.58984
22.536,0,0.45943,0.37109,0.8902,0.625
22.544,0,0.45064,0.33984,0.89608,0.64062
22.552,0,0.44379,0.33984,0.89608,0.63477
22.56,0,0.43793,0.33008,0.8902,0.64453
22.568,0,0.43011,0.31055,0.88039,0.66406
22.576,0,0.42131,0.33984,0.89608,0.64062
22.584,0,0.41251,0.33594,0.89608,0.64453
22.592,0,0.40469,0.33008,0.89608,0.6543
22.6,0,0.39785,0.32422,0.89608,0.64453
22.608,0,0.39394,0.33984,0.90196,0.64062
22.616,0,0.39492,0.33008,0.92157,0.64062
22.624,0,0.40274,0.2207,0.95686,0.70508
22.632,0,0.41838,0.16992,0.98235,0.73438
22.64,0,0.44184,0.5293,0.7902,0.49414
22.648,0,0.46823,1.0352,0.35882,0.19531
22.656,0,0.49756,1.375,0.13333,0.060547
22.664,0,0.5347,0.83398,0.26863,0.42969
22.672,0,0.57576,0.32031,0.55098,0.72461
22.68,0,0.61779,0.30078,0.7549,0.69922
22.688,0,0.65885,0.33594,0.8451,0.67969
22.696,0,0.69599,0.30078,0.93137,0.67578
22.704,0,0.72923,0.27539,0.96078,0.67969
22.712,0,0.75855,0.25,0.96667,0.68555
22.72,0,0.78201,0.24023,0.97059,0.69531
22.728,0,0.80059,0.23047,0.97647,0.69531
22.736,0,0.81525,0.24023,0.98235,0.69531
22.744,0,0.826,0.2207,0.97647,0.70898
22.752,0,0.83187,0.22461,0.98235,0.70508
22.76,0,0.8348,0.23438,0.97647,0.69531
22.768,0,0.83675,0.24023,0.97059,0.68945
22.776,0,0.83675,0.24023,0.97647,0.69531
22.784,0,0.83578,0.24609,0.97059,0.68945
22.792,0,0.83284,0.25586,0.96667,0.68555
22.8,0,0.82796,0.26953,0.97059,0.66992
22.808,0,0.82209,0.27539,0.96667,0.68555
22.816,0,0.81329,0.28516,0.97059,0.66406
22.824,0,0.80254,0.29492,0.97647,0.66016
22.832,0,0.78983,0.28516,0.97059,0.66992
22.84,0,0.77419,0.33594,0.97059,0.64062
22.848,0,0.75855,0.35547,0.96667,0.64062
22.856,0,0.74291,0.375,0.96667,0.625
22.864,0,0.72336,0.39062,0.96667,0.62891
22.872,0,0.70283,0.41602,0.96667,0.60547
22.88,0,0.68035,0.43945,0.96078,0.58984
22.888,0,0.65885,0.44531,0.95098,0.5957
22.896,0,0.63734,0.45508,0.94706,0.58984
22.904,0,0.61779,0.44922,0.94706,0.59961
22.912,0,0.6002,0.45508,0.94118,0.58398
22.92,0,0.58358,0.42578,0.93725,0.60938
22.928,0,0.56891,0.40039,0.94118,0.61914
22.936,0,0.55718,0.37109,0.94118,0.64062
22.944,0,0.54643,0.33594,0.94118,0.6543
22.952,0,0.53763,0.32031,0.94118,0.66406
22.96,0,0.53079,0.32422,0.92549,0.6543
22.968,0,0.52297,0.31055,0.92157,0.66406
22.976,0,0.51613,0.32422,0.92157,0.66016
22.984,0,0.50929,0.33594,0.91176,0.6543
22.992,0,0.50244,0.3457,0.92157,0.64062
23,0,0.4956,0.34961,0.92157,0.63477
23.008,0,0.48876,0.3457,0.91569,0.64453
23.016,0,0.48192,0.35938,0.92157,0.64062
23.024,0,0.47507,0.36523,0.92549,0.625
23.032,0,0.46921,0.39453,0.94706,0.61523
23.04,0,0.46237,0.46094,0.98627,0.57422
23.048,0,0.4565,0.48047,0.99608,0.56445
23.056,0,0.45161,0.51562,0.99216,0.53906
23.064,0,0.44575,0.5293,0.97059,0.53516
23.072,0,0.43891,0.49414,0.93137,0.55078
23.08,0,0.43206,0.44922,0.90588,0.57031
23.088,0,0.42522,0.43555,0.87059,0.57031
23.096,0,0.4174,0.41016,0.8902,0.58984
23.104,0,0.40958,0.38477,0.90588,0.61914
23.112,0,0.40078,0.36523,0.90588,0.61523
23.12,0,0.39198,0.33008,0.91176,0.65039
23.128,0,0.38319,0.32031,0.90196,0.6543
23.136,0,0.37537,0.33594,0.89608,0.65039
23.144,0,0.36852,0.33594,0.89608,0.64453
23.152,0,0.36559,0.35547,0.8902,0.64062
23.16,0,0.36657,0.3457,0.90196,0.63477
23.168,0,0.37243,0.3457,0.90588,0.64453
23.176,0,0.38416,0.3457,0.91176,0.65039
23.184,0,0.40469,0.32031,0.92157,0.64062
23.192,0,0.43206,0.21094,0.97059,0.70898
23.2,0,0.46823,0.28516,0.98235,0.64062
23.208,0,0.50831,0.63477,0.6451,0.42578
23.216,0,0.5523,1.1445,0.23333,0.14453
23.224,0,0.59629,1.3145,0.10392,0.076172
23.232,0,0.6393,0.53516,0.34902,0.61914
23.24,0,0.67937,0.25,0.62941,0.76562
23.248,0,0.71065,0.33008,0.79608,0.68945
23.256,0,0.73509,0.33984,0.8902,0.66406
23.264,0,0.75855,0.29102,0.96078,0.67578
23.272,0,0.77908,0.26953,0.98627,0.67969
23.28,0,0.79668,0.24609,0.99216,0.68555
23.288,0,0.80938,0.22461,0.99216,0.70898
23.296,0,0.82014,0.2207,0.99216,0.70508
23.304,0,0.82698,0.22461,0.99216,0.70508
23.312,0,0.83089,0.23438,0.99608,0.69531
23.32,0,0.83382,0.24023,1.002,0.69531
23.328,0,0.8348,0.23047,0.99608,0.70508
23.336,0,0.83284,0.25,0.99216,0.68555
23.344,0,0.82991,0.26562,0.99216,0.66992
23.352,0,0.82405,0.25,0.99608,0.66406
23.36,0,0.8172,0.23438,0.99608,0.69922
23.368,0,0.80841,0.27539,0.99608,0.67578
23.376,0,0.79765,0.28516,0.99216,0.66992
23.384,0,0.78397,0.2793,0.99216,0.67578
23.392,0,0.76833,0.29102,0.99216,0.66406
23.4,0,0.74976,0.31445,0.99216,0.65039
23.408,0,0.73021,0.33008,0.99608,0.64062
23.416,0,0.70968,0.36523,1.0059,0.61523
23.424,0,0.68915,0.39062,1.0118,0.60938
23.432,0,0.66862,0.39453,0.99216,0.61523
23.44,0,0.64907,0.41016,0.99608,0.60938
23.448,0,0.63245,0.41992,0.99216,0.59961
23.456,0,0.61681,0.43555,0.98627,0.58984
