Time [s], RESP, II, V, AVR, PLETH
0,0.23088,0.060059,0.55518,0.70528,2.7449
0.008,0.23675,0.064941,0.5498,0.70039,2.8524
0.016,0.24114,0.055176,0.49512,0.70528,2.913
0.024,0.24579,0.3999,0.5249,0.52493,2.9267
0.032,0.24921,1.145,0.62988,0.069892,2.8974
0.04,0.25263,1.5,0.93506,-0.2957,2.8368
0.048,0.25458,1.2998,1.3296,0.01955,2.7527
0.056,0.25678,0.13525,1.1348,0.70528,2.6549
0.064,0.25751,-0.34961,0.79492,0.97556,2.5523
0.072,0.25825,-0.24463,0.62988,0.89541,2.4506
0.08,0.25678,-0.029785,0.58984,0.75513,2.3627
0.088,0.25531,0.030273,0.55518,0.71505,2.2874
0.096,0.25165,0.035156,0.5249,0.71017,2.216
0.104,0.24823,0.044922,0.50488,0.70528,2.1525
0.112,0.24334,0.055176,0.49512,0.69501,2.0987
0.12,0.2387,0.060059,0.49023,0.68524,2.0518
0.128,0.23284,0.070312,0.50488,0.68524,2.0098
0.136,0.22722,0.080078,0.49512,0.67498,1.9697
0.144,0.22086,0.084961,0.50977,0.67498,1.9296
0.152,0.21451,0.1001,0.5,0.66031,1.8876
0.16,0.20792,0.12012,0.50977,0.65494,1.8426
0.168,0.20132,0.12988,0.50488,0.6349,1.7947
0.176,0.19643,0.1499,0.52002,0.62512,1.7468
0.184,0.19155,0.16992,0.50977,0.60997,1.7048
0.192,0.18813,0.18506,0.52002,0.58993,1.6676
0.2,0.18495,0.20996,0.50977,0.57527,1.6305
0.208,0.183,0.22021,0.52979,0.565,1.5973
0.216,0.18129,0.22998,0.50977,0.54985,1.5709
0.224,0.18104,0.25,0.52002,0.53519,1.5523
0.232,0.18104,0.28027,0.50977,0.51515,1.5406
0.24,0.18422,0.29492,0.52002,0.5,1.5357
0.248,0.18739,0.31494,0.51514,0.48485,1.5367
0.256,0.19301,0.31982,0.53516,0.47996,1.5415
0.264,0.19888,0.33496,0.5498,0.47507,1.5484
0.272,0.20498,0.33984,0.56982,0.47996,1.5552
0.28,0.21134,0.33496,0.58008,0.49511,1.5611
0.288,0.21793,0.31006,0.58984,0.51515,1.566
0.296,0.22453,0.2749,0.60498,0.54985,1.5679
0.304,0.23235,0.22998,0.59521,0.58504,1.566
0.312,0.24017,0.18506,0.60498,0.61486,1.5611
0.32,0.24872,0.15527,0.58496,0.6349,1.5523
0.328,0.25727,0.12988,0.59521,0.65494,1.5396
0.336,0.2646,0.12012,0.58984,0.66031,1.523
0.344,0.27193,0.10986,0.60498,0.6652,1.5034
0.352,0.27779,0.11523,0.58984,0.66031,1.4809
0.36,0.2839,0.11523,0.60498,0.6652,1.4565
0.368,0.28805,0.12012,0.58984,0.66031,1.4291
0.376,0.29221,0.12012,0.60498,0.66031,1.3998
0.384,0.29465,0.12988,0.6001,0.65494,1.3744
0.392,0.29734,0.12988,0.61475,0.65494,1.3509
0.4,0.29856,0.12988,0.6001,0.65494,1.3226
0.408,0.30002,0.14014,0.61475,0.65005,1.2923
0.416,0.30027,0.13525,0.60498,0.64516,1.262
0.424,0.30076,0.14502,0.61475,0.64027,1.2336
0.432,0.30051,0.1499,0.60498,0.6349,1.2063
0.44,0.30027,0.14502,0.60986,0.6349,1.1799
0.448,0.29954,0.1499,0.6001,0.6349,1.1544
0.456,0.29905,0.16016,0.59521,0.62023,1.13
0.464,0.29954,0.20508,0.625,0.58504,1.1065
0.472,0.30002,0.24512,0.64502,0.55523,1.0831
0.48,0.30149,0.2749,0.6499,0.53519,1.0635
0.488,0.30296,0.28516,0.65479,0.52981,1.0469
0.496,0.30564,0.31006,0.6748,0.51515,1.0283
0.504,0.30858,0.29004,0.66016,0.52004,1.0137
0.512,0.31224,0.26025,0.6499,0.53519,1.0098
0.52,0.31615,0.25,0.64502,0.54008,1.0283
0.528,0.32006,0.20508,0.625,0.56989,1.0782
0.536,0.32421,0.16504,0.62012,0.60997,1.1691
0.544,0.32861,0.1001,0.60498,0.66031,1.3089
0.552,0.33301,0.080078,0.58984,0.67498,1.4966
0.56,0.33838,0.064941,0.59521,0.69013,1.7224
0.568,0.344,0.060059,0.58008,0.69501,1.9717
0.576,0.35011,0.060059,0.58984,0.70039,2.2248
0.584,0.35646,0.055176,0.58008,0.70039,2.435
0.592,0.36184,0.044922,0.5752,0.70528,2.6041
0.6,0.36721,0.10986,0.52979,0.67498,2.7576
0.608,0.37185,0.48486,0.5752,0.47019,2.8719
0.616,0.3765,1.2646,0.7002,-0.010264,2.9384
0.624,0.38041,1.5,1.085,-0.34066,2.957
0.632,0.38456,0.93506,1.3696,0.1999,2.9326
0.64,0.38774,-0.16504,1.1001,0.85044,2.8759
0.648,0.39091,-0.4248,0.7749,1.0005,2.7957
0.656,0.3914,-0.1748,0.6499,0.84018,2.7019
0.664,0.39189,-0.014648,0.6001,0.73509,2.6031
0.672,0.38993,0.015137,0.56982,0.71505,2.5064
0.68,0.38798,0.024902,0.54492,0.71017,2.4223
0.688,0.38505,0.035156,0.53516,0.70528,2.35
0.696,0.38236,0.040039,0.54004,0.70039,2.2815
0.704,0.3787,0.050293,0.52979,0.69013,2.2209
0.712,0.37503,0.060059,0.54492,0.68524,2.1701
0.72,0.36892,0.070312,0.52979,0.67498,2.1271
0.728,0.36306,0.080078,0.54004,0.67009,2.089
0.736,0.355,0.1001,0.52979,0.66031,2.0528
0.744,0.34693,0.11523,0.54492,0.65005,2.0166
0.752,0.33887,0.13525,0.53516,0.6349,1.9765
0.76,0.33081,0.1499,0.55518,0.62023,1.9335
0.768,0.32299,0.17529,0.54004,0.6002,1.8856
0.776,0.31517,0.19531,0.55518,0.58993,1.8348
0.784,0.30858,0.22021,0.54492,0.565,1.7889
0.792,0.30198,0.24512,0.55518,0.54985,1.7488
0.8,0.29636,0.27002,0.54004,0.52981,1.7077
0.808,0.29098,0.28516,0.55518,0.52004,1.6706
0.816,0.28708,0.30518,0.5498,0.49511,1.6393
0.824,0.28317,0.31982,0.56006,0.49022,1.6158
0.832,0.28072,0.33008,0.55518,0.47996,1.6002
0.84,0.27852,0.33984,0.58496,0.47019,1.5914
0.848,0.27779,0.3501,0.59521,0.47019,1.5894
0.856,0.27706,0.33984,0.60986,0.47996,1.5914
0.864,0.27779,0.31006,0.62012,0.50978,1.5953
0.872,0.27852,0.26514,0.62988,0.54008,1.6002
0.88,0.28121,0.21484,0.63477,0.58016,1.6051
0.888,0.2839,0.16504,0.625,0.60997,1.609
0.896,0.28805,0.125,0.63477,0.64516,1.6109
0.904,0.29221,0.095215,0.62012,0.66031,1.609
0.912,0.29612,0.080078,0.63477,0.67009,1.6031
0.92,0.30002,0.075195,0.625,0.67498,1.5934
0.928,0.30344,0.070312,0.64502,0.68524,1.5806
0.936,0.30711,0.075195,0.625,0.67498,1.565
0.944,0.31029,0.080078,0.63477,0.68035,1.5464
0.952,0.31346,0.080078,0.625,0.67498,1.5239
0.96,0.31639,0.080078,0.63477,0.67498,1.5005
0.968,0.31933,0.084961,0.625,0.67498,1.4751
0.976,0.32104,0.090332,0.64014,0.67009,1.4487
0.984,0.32275,0.095215,0.62988,0.67009,1.4272
0.992,0.32348,0.1001,0.64502,0.6652,1.4076
1,0.32421,0.10498,0.625,0.66031,1.3832
1.008,0.32397,0.10498,0.64014,0.66031,1.3568
1.016,0.32397,0.10498,0.625,0.65494,1.3294
1.024,0.32323,0.13525,0.64502,0.63001,1.3021
1.032,0.32275,0.20508,0.6499,0.58504,1.2757
1.04,0.32226,0.22998,0.6748,0.565,1.2483
1.048,0.32177,0.25488,0.6748,0.54497,1.2209
1.056,0.32128,0.24512,0.66992,0.54985,1.1935
1.064,0.32079,0.26514,0.69482,0.52981,1.1642
1.072,0.3203,0.2251,0.6748,0.54985,1.1339
1.08,0.31981,0.20508,0.66504,0.565,1.1124
1.088,0.31933,0.18506,0.66016,0.56989,1.0997
1.096,0.31908,0.1499,0.6499,0.60997,1.0978
1.104,0.31933,0.095215,0.64502,0.65005,1.1183
1.112,0.31957,0.040039,0.625,0.69501,1.175
1.12,0.3203,0.02002,0.61475,0.71017,1.2766
1.128,0.32104,0.010254,0.60986,0.71505,1.4262
1.136,0.32201,0.010254,0.6001,0.72532,1.6207
1.144,0.32323,0.010254,0.60498,0.72532,1.8495
1.152,0.32446,0.0048828,0.59521,0.73021,2.0948
1.16,0.32592,-0.0048828,0.6001,0.73998,2.3372
1.168,0.32739,0.12988,0.5498,0.67498,2.5562
1.176,0.3291,0.6499,0.61475,0.3651,2.7204
1.184,0.33056,1.395,0.7998,-0.11535,2.8348
1.192,0.33227,1.5,1.2646,-0.27077,2.9198
1.2,0.3335,0.29004,1.375,0.54985,2.9638
1.208,0.33496,-0.49463,0.95508,1.0303,2.9668
1.216,0.3357,-0.49951,0.68506,1.0406,2.9345
1.224,0.33667,-0.089844,0.6499,0.78543,2.8749
1.232,0.33667,-0.02002,0.56494,0.73509,2.7957
1.24,0.33692,-0.02002,0.5752,0.73998,2.7077
1.248,0.33618,-0.014648,0.5249,0.73021,2.6168
1.256,0.33545,-0.0097656,0.54492,0.73021,2.5269
1.264,0.33374,0,0.52002,0.71994,2.4438
1.272,0.33203,0.0048828,0.51514,0.72532,2.3695
1.28,0.32934,0.015137,0.5498,0.71017,2.3089
1.288,0.3269,0.030273,0.51514,0.70528,2.2571
1.296,0.3225,0.044922,0.55518,0.69013,2.2102
1.304,0.31835,0.064941,0.52002,0.68524,2.1662
1.312,0.31297,0.084961,0.56006,0.6652,2.1251
1.32,0.3076,0.10986,0.5249,0.64516,2.085
1.328,0.30222,0.12988,0.56006,0.6349,2.043
1.336,0.29685,0.15527,0.52979,0.61486,1.9971
1.344,0.29147,0.17529,0.56494,0.6002,1.9472
1.352,0.28634,0.20996,0.5249,0.57527,1.8944
1.36,0.2817,0.23486,0.55518,0.55523,1.8397
1.368,0.27706,0.26025,0.52979,0.53519,1.7849
1.376,0.2729,0.28027,0.56006,0.52004,1.738
1.384,0.269,0.30518,0.52979,0.49511,1.697
1.392,0.26582,0.31494,0.56006,0.48485,1.6569
1.4,0.26264,0.33496,0.53516,0.47019,1.6217
1.408,0.2602,0.33984,0.58008,0.47019,1.5914
1.416,0.258,0.3501,0.55518,0.47019,1.5689
1.424,0.25605,0.3252,0.60498,0.49511,1.5543
1.432,0.25434,0.28516,0.58496,0.52493,1.5464
1.44,0.25287,0.22998,0.625,0.565,1.5425
1.448,0.25165,0.18018,0.58984,0.6002,1.5406
1.456,0.25067,0.12988,0.62012,0.64027,1.5406
1.464,0.24969,0.095215,0.58984,0.66031,1.5406
1.472,0.24896,0.070312,0.61475,0.68035,1.5396
1.48,0.24823,0.060059,0.58496,0.68524,1.5367
1.488,0.24701,0.055176,0.60986,0.69013,1.5327
1.496,0.24603,0.055176,0.61475,0.68524,1.5259
1.504,0.24456,0.060059,0.58496,0.69013,1.5152
1.512,0.24334,0.060059,0.61475,0.68524,1.5005
1.52,0.24114,0.064941,0.58008,0.68524,1.4839
1.528,0.23919,0.064941,0.625,0.68524,1.4633
1.536,0.2365,0.075195,0.58984,0.67498,1.4409
1.544,0.23406,0.080078,0.625,0.67009,1.4164
1.552,0.23113,0.080078,0.58984,0.6652,1.39
1.56,0.22819,0.080078,0.625,0.67009,1.3627
1.568,0.22502,0.084961,0.58984,0.6652,1.3353
1.576,0.22184,0.090332,0.62012,0.6652,1.3118
1.584,0.21842,0.084961,0.58496,0.66031,1.2913
1.592,0.215,0.090332,0.61475,0.6652,1.2669
1.6,0.21158,0.10986,0.58008,0.64516,1.2405
1.608,0.20816,0.16016,0.63477,0.60997,1.2141
1.616,0.20498,0.20996,0.61475,0.565,1.1857
1.624,0.20205,0.23486,0.65479,0.54985,1.1544
1.632,0.19936,0.23486,0.61475,0.54008,1.1222
1.64,0.19692,0.25488,0.66992,0.52981,1.0899
1.648,0.19521,0.24023,0.625,0.53519,1.0616
1.656,0.1935,0.20508,0.64502,0.55523,1.0469
1.664,0.19252,0.18994,0.60986,0.565,1.0547
1.672,0.19155,0.14502,0.59521,0.59531,1.0968
1.68,0.19155,0.10986,0.60986,0.6349,1.1623
1.688,0.19155,0.050293,0.5752,0.69013,1.262
1.696,0.19228,0.030273,0.59521,0.71017,1.4174
1.704,0.19301,0.02002,0.5498,0.71017,1.6207
1.712,0.19423,0.015137,0.58008,0.71505,1.8573
1.72,0.1957,0.024902,0.53516,0.71017,2.1075
1.728,0.19741,0.015137,0.5752,0.71994,2.35
1.736,0.19912,0.010254,0.52979,0.72532,2.564
1.744,0.20059,0.070312,0.54492,0.73021,2.7351
1.752,0.20205,0.41504,0.5,0.50978,2.8543
1.76,0.20327,1.0898,0.69482,0.059629,2.9198
1.768,0.2045,1.5,1.0547,-0.2654,2.9365
1.776,0.20596,0.81494,1.3496,0.24487,2.9169
1.784,0.20767,-0.23486,1.0249,0.88514,2.8719
1.792,0.20938,-0.43994,0.72998,1.0103,2.8045
1.8,0.21134,-0.14502,0.58496,0.82014,2.7234
1.808,0.2128,0.0048828,0.58984,0.72532,2.6354
1.816,0.21451,0.02002,0.51514,0.71994,2.5464
1.824,0.21573,0.015137,0.52979,0.71017,2.4614
1.832,0.2172,0.024902,0.48486,0.70528,2.3842
1.84,0.21769,0.035156,0.51514,0.70528,2.3177
1.848,0.21842,0.055176,0.48486,0.69013,2.261
1.856,0.21818,0.060059,0.50977,0.69013,2.2121
1.864,0.21818,0.080078,0.47998,0.67498,2.1691
1.872,0.21769,0.095215,0.50977,0.66031,2.13
1.88,0.21744,0.10498,0.48486,0.65005,2.0948
1.888,0.21671,0.12988,0.47998,0.64027,2.0596
1.896,0.21598,0.1499,0.50977,0.62512,2.0176
1.904,0.215,0.16992,0.47998,0.61486,1.9687
1.912,0.21402,0.18994,0.50977,0.58993,1.915
1.92,0.21305,0.21484,0.48486,0.58016,1.8563
1.928,0.21207,0.22998,0.5249,0.565,1.7947
1.936,0.21183,0.26514,0.47998,0.54008,1.7341
1.944,0.21158,0.28516,0.50977,0.52004,1.6764
1.952,0.21207,0.31006,0.47021,0.49511,1.6256
1.96,0.21256,0.33496,0.50977,0.47996,1.5826
1.968,0.21305,0.35498,0.47998,0.46481,1.5474
1.976,0.21354,0.37012,0.52002,0.45015,1.522
1.984,0.21427,0.38525,0.5,0.43988,1.5064
1.992,0.21525,0.38525,0.54492,0.44477,1.4956
2,0.21696,0.39014,0.52979,0.43988,1.4897
2.008,0.21867,0.36523,0.56982,0.47019,1.4878
2.016,0.22086,0.3252,0.54004,0.50978,1.4878
2.024,0.22331,0.26514,0.58008,0.54497,1.4888
2.032,0.22575,0.21484,0.54004,0.58504,1.4888
2.04,0.22819,0.18018,0.5752,0.60997,1.4878
2.048,0.23039,0.14502,0.55518,0.6349,1.4839
2.056,0.23284,0.13525,0.58008,0.64516,1.478
2.064,0.23455,0.125,0.53516,0.65005,1.4692
2.072,0.2365,0.125,0.56982,0.64516,1.4575
2.08,0.23772,0.12988,0.54492,0.64027,1.4467
2.088,0.23919,0.12988,0.58496,0.64516,1.435
2.096,0.24017,0.12988,0.5498,0.64027,1.4194
2.104,0.24139,0.12988,0.54004,0.64027,1.3998
2.112,0.24212,0.14502,0.5752,0.62512,1.3773
2.12,0.2431,0.16504,0.54492,0.62023,1.3539
2.128,0.24359,0.17529,0.58008,0.61486,1.3284
2.136,0.24432,0.18018,0.54004,0.60508,1.3021
2.144,0.24481,0.17529,0.58008,0.61486,1.2747
2.152,0.2453,0.18018,0.54004,0.6002,1.2473
2.16,0.24554,0.17529,0.5752,0.60508,1.218
2.168,0.24603,0.18994,0.53516,0.59531,1.1887
2.176,0.24627,0.18994,0.56494,0.6002,1.1652
2.184,0.24676,0.18018,0.53516,0.6002,1.1447
2.192,0.24798,0.2002,0.56006,0.58504,1.1193
2.2,0.24921,0.25488,0.53516,0.54497,1.0909
2.208,0.25116,0.29004,0.60498,0.52004,1.0596
2.216,0.25336,0.3252,0.56982,0.49022,1.0283
2.224,0.25605,0.33008,0.60986,0.48485,1
2.232,0.25873,0.36523,0.6001,0.46481,0.9824
2.24,0.26191,0.3252,0.62012,0.47996,0.98436
2.248,0.26533,0.30029,0.56494,0.49511,1.0176
2.256,0.26948,0.2749,0.6001,0.51515,1.0938
2.264,0.27364,0.23486,0.54492,0.54008,1.218
2.272,0.27828,0.20508,0.5752,0.57527,1.392
2.28,0.28292,0.1499,0.54004,0.62023,1.5748
2.288,0.28659,0.125,0.55518,0.64516,1.7703
2.296,0.2905,0.10986,0.51514,0.66031,2.0059
2.304,0.29318,0.11523,0.50977,0.65494,2.2502
2.312,0.29612,0.10498,0.54492,0.6652,2.477
2.32,0.29807,0.1001,0.52002,0.67009,2.6657
2.328,0.30027,0.090332,0.52979,0.67498,2.8045
2.336,0.30173,0.20508,0.45508,0.61486,2.8895
2.344,0.3032,0.66504,0.54492,0.35484,2.9228
2.352,0.3032,1.4048,0.71484,-0.1305,2.912
2.36,0.30344,1.5,1.1797,-0.3304,2.8661
2.368,0.30198,0.75488,1.3096,0.31965,2.7957
2.376,0.30076,-0.13477,0.95996,0.85044,2.7195
2.384,0.29758,-0.32471,0.64014,0.94526,2.6403
2.392,0.29441,-0.094727,0.58008,0.78543,2.5543
2.4,0.28952,0.055176,0.52979,0.69013,2.4682
2.408,0.28463,0.064941,0.5249,0.68524,2.3881
2.416,0.2773,0.075195,0.45996,0.67498,2.3167
2.424,0.27022,0.080078,0.48486,0.67498,2.2551
2.432,0.26142,0.075195,0.45996,0.66031,2.2043
2.44,0.25287,0.090332,0.49512,0.66031,2.1603
2.448,0.24432,0.10498,0.45508,0.65494,2.1212
2.456,0.23601,0.11523,0.48486,0.65005,2.0841
2.464,0.22819,0.12988,0.47021,0.6349,2.045
2.472,0.22038,0.14502,0.50488,0.63001,2.001
2.48,0.21256,0.15527,0.45508,0.61486,1.958
2.488,0.20474,0.16504,0.49023,0.60997,1.914
2.496,0.19717,0.18018,0.49512,0.59531,1.8612
2.504,0.18959,0.18506,0.47998,0.58993,1.8025
2.512,0.18397,0.20996,0.49023,0.57527,1.7429
2.52,0.17835,0.2251,0.45508,0.55523,1.6852
2.528,0.17444,0.24512,0.5,0.54008,1.6325
2.536,0.17054,0.28027,0.45996,0.52004,1.5875
2.544,0.16834,0.30518,0.48486,0.49511,1.5503
2.552,0.16638,0.31982,0.45996,0.48485,1.523
2.56,0.16589,0.33008,0.49512,0.47019,1.5054
2.568,0.1654,0.34521,0.46484,0.45992,1.4946
2.576,0.16687,0.33984,0.50977,0.45992,1.4907
2.584,0.16834,0.37012,0.49023,0.45015,1.4907
2.592,0.17102,0.375,0.54004,0.45503,1.4936
2.6,0.17396,0.35986,0.52002,0.47019,1.4976
2.608,0.17713,0.33008,0.56006,0.50489,1.5005
2.616,0.18031,0.28027,0.54492,0.54008,1.5024
2.624,0.18324,0.23486,0.5752,0.57527,1.5024
2.632,0.18642,0.20508,0.52002,0.58993,1.4995
2.64,0.18886,0.2002,0.56494,0.60508,1.4946
2.648,0.19155,0.16992,0.54004,0.61486,1.4868
2.656,0.1935,0.1499,0.56494,0.6349,1.4741
2.664,0.1957,0.16992,0.52979,0.63001,1.4585
2.672,0.19741,0.14014,0.5752,0.64027,1.4389
2.68,0.19912,0.1499,0.53516,0.6349,1.4213
2.688,0.20034,0.15527,0.56006,0.63001,1.4027
2.696,0.20181,0.1499,0.54492,0.6349,1.3793
2.704,0.20254,0.17529,0.58008,0.62512,1.3529
2.712,0.20327,0.16504,0.58496,0.63001,1.3245
2.72,0.20327,0.15527,0.54004,0.6349,1.2942
2.728,0.20352,0.18018,0.56982,0.61486,1.2639
2.736,0.20327,0.16992,0.5498,0.61486,1.2326
2.744,0.20327,0.17529,0.58984,0.61486,1.2023
2.752,0.20279,0.18994,0.54492,0.60997,1.173
2.76,0.2023,0.19531,0.58008,0.60508,1.1447
2.768,0.20205,0.17529,0.55518,0.61486,1.1183
2.776,0.20181,0.17529,0.58008,0.60997,1.0978
2.784,0.20205,0.22021,0.54004,0.58016,1.0792
2.792,0.2023,0.26514,0.60986,0.54985,1.0567
2.8,0.20401,0.29004,0.58984,0.52004,1.0313
2.808,0.20596,0.30029,0.61475,0.52004,1.0049
2.816,0.20889,0.3252,0.58984,0.49511,0.9824
2.824,0.21207,0.33008,0.63477,0.50489,0.96872
2.832,0.21549,0.28516,0.58496,0.52004,0.97361
2.84,0.21915,0.26514,0.625,0.53519,1.0078
2.848,0.22306,0.2251,0.55518,0.55523,1.0821
2.856,0.22722,0.18994,0.58984,0.6002,1.2063
2.864,0.23186,0.13525,0.53516,0.6349,1.3803
2.872,0.2365,0.090332,0.56006,0.68035,1.5973
2.88,0.24163,0.080078,0.52002,0.68524,1.8074
2.888,0.24701,0.090332,0.54492,0.67498,2.0137
2.896,0.25263,0.075195,0.51514,0.69013,2.2434
2.904,0.25849,0.084961,0.52979,0.68524,2.4624
2.912,0.26435,0.064941,0.5,0.70039,2.6491
2.92,0.27046,0.10986,0.4751,0.67498,2.7879
2.928,0.2751,0.43018,0.48486,0.50489,2.8739
2.936,0.27999,1.21,0.62012,0.029814,2.9071
2.944,0.28341,1.5,0.96973,-0.3304,2.8954
2.952,0.28683,1.2197,1.3047,0.059629,2.8475
2.96,0.28879,0.075195,1.0747,0.73021,2.7742
2.968,0.29098,-0.38477,0.73486,0.98534,2.6843
2.976,0.29196,-0.23975,0.5752,0.88025,2.5973
2.984,0.29294,-0.02002,0.5249,0.73998,2.5132
2.992,0.29318,0.035156,0.52979,0.70528,2.4262
3,0.29343,0.044922,0.45996,0.70039,2.3441
3.008,0.29269,0.055176,0.48486,0.70528,2.2698
3.016,0.29196,0.035156,0.4502,0.70039,2.2053
3.024,0.28854,0.060059,0.48486,0.69013,2.1505
3.032,0.28537,0.060059,0.45996,0.68524,2.1046
3.04,0.28023,0.064941,0.49023,0.68524,2.0645
3.048,0.2751,0.10986,0.46484,0.66031,2.0264
3.056,0.26997,0.1001,0.5249,0.6652,1.9863
3.064,0.26484,0.10498,0.47998,0.65494,1.9443
3.072,0.25996,0.14502,0.5249,0.63001,1.9042
3.08,0.25507,0.12988,0.52002,0.63001,1.8622
3.088,0.25116,0.16504,0.5498,0.60997,1.8123
3.096,0.2475,0.18994,0.54004,0.58993,1.7586
3.104,0.24481,0.18506,0.58496,0.58993,1.7038
3.112,0.24237,0.22021,0.56982,0.565,1.651
3.12,0.24139,0.24023,0.60498,0.54985,1.6041
3.128,0.24041,0.23486,0.61475,0.54008,1.565
3.136,0.2409,0.28516,0.58984,0.52493,1.5347
3.144,0.24163,0.28027,0.64014,0.50978,1.5142
3.152,0.24359,0.31006,0.60498,0.49511,1.5034
3.16,0.24554,0.3252,0.62988,0.47507,1.4985
3.168,0.24872,0.33496,0.60498,0.47996,1.4995
3.176,0.25214,0.33008,0.65479,0.48485,1.5034
3.184,0.25727,0.34521,0.64502,0.49511,1.5073
3.192,0.26264,0.31494,0.68018,0.52004,1.5103
3.2,0.26948,0.28516,0.6499,0.54497,1.5122
3.208,0.27633,0.2251,0.70996,0.58016,1.5122
3.216,0.2839,0.18994,0.66992,0.60508,1.5093
3.224,0.29147,0.16016,0.71484,0.63001,1.5034
3.232,0.29929,0.14014,0.69482,0.6349,1.4936
3.24,0.30735,0.15527,0.71973,0.6349,1.4809
3.248,0.31395,0.14014,0.7002,0.6349,1.4653
3.256,0.32079,0.12988,0.74512,0.64516,1.4467
3.264,0.32641,0.125,0.69482,0.65005,1.4262
3.272,0.33203,0.14014,0.71973,0.6349,1.4076
3.28,0.33667,0.14014,0.68994,0.6349,1.3891
3.288,0.34156,0.1499,0.71484,0.64027,1.3656
3.296,0.34571,0.1499,0.68506,0.65005,1.3392
3.304,0.34987,0.15527,0.6748,0.60997,1.3109
3.312,0.35304,0.18018,0.64014,0.6002,1.2825
3.32,0.35622,0.16016,0.68018,0.63001,1.2542
3.328,0.35866,0.16016,0.64014,0.60997,1.2278
3.336,0.36135,0.16504,0.625,0.6002,1.2023
3.344,0.36477,0.16992,0.6499,0.59531,1.1799
3.352,0.36819,0.19531,0.62012,0.58016,1.1593
3.36,0.37259,0.24512,0.64014,0.54008,1.1398
3.368,0.37723,0.27002,0.61475,0.52493,1.1212
3.376,0.38383,0.2749,0.68018,0.54008,1.1075
3.384,0.39042,0.28516,0.64502,0.51515,1.0948
3.392,0.39873,0.31006,0.66992,0.48485,1.0772
3.4,0.40728,0.31494,0.63477,0.47507,1.0577
3.408,0.41656,0.28027,0.64014,0.5,1.042
3.416,0.42585,0.28516,0.61475,0.49511,1.0381
3.424,0.43635,0.2251,0.625,0.53519,1.0557
3.432,0.44686,0.21484,0.56494,0.54985,1.1036
3.44,0.46176,0.12988,0.58496,0.60997,1.1906
3.448,0.47691,0.1001,0.54492,0.62512,1.3206
3.456,0.49524,0.090332,0.55518,0.6349,1.4917
3.464,0.5138,0.10986,0.5,0.61486,1.695
3.472,0.53213,0.11523,0.54492,0.62512,1.8866
3.48,0.5507,0.095215,0.50488,0.63001,2.0665
3.488,0.56926,0.084961,0.51514,0.64027,2.26
3.496,0.58808,0.14502,0.4502,0.64516,2.4389
3.504,0.61129,0.52979,0.5,0.40469,2.5846
3.512,0.63474,1.3848,0.58008,-0.1002,2.6872
3.52,0.66211,1.5,0.93506,-0.4306,2.7449
3.528,0.68971,1.1348,1.2646,0.059629,2.7615
3.536,0.72025,-0.014648,1.0601,0.71017,2.7458
3.544,0.75104,-0.36475,0.71973,0.91544,2.7077
3.552,0.78329,-0.1499,0.58008,0.78543,2.6559
3.56,0.81578,0.015137,0.52979,0.68035,2.5982
3.568,0.84583,0.064941,0.4751,0.65494,2.5367
3.576,0.87613,0.075195,0.48486,0.6652,2.477
3.584,0.90447,0.064941,0.44482,0.66031,2.4135
3.592,0.93306,0.090332,0.4502,0.62512,2.3333
3.6,0.96237,0.11523,0.41504,0.60997,2.2326
3.608,0.99169,0.10986,0.43994,0.61486,2.1105
3.616,0.99585,0.12988,0.41992,0.62512,1.9677
3.624,1,0.1499,0.43994,0.58993,1.8074
3.632,1,0.14502,0.41016,0.58016,1.6344
3.64,1,0.18018,0.45996,0.58993,1.4545
3.648,1,0.20996,0.43018,0.58504,1.2717
3.656,1,0.21484,0.45508,0.56012,1.088
3.664,1,0.23486,0.4248,0.52004,0.9042
3.672,1,0.29004,0.45996,0.50978,0.74878
3.68,1,0.30518,0.4248,0.47507,0.61095
3.688,1,0.33008,0.4502,0.47019,0.46139
3.696,1,0.34521,0.41504,0.45992,0.31476
3.704,1,0.35986,0.43994,0.43988,0.1828
3.712,1,0.38525,0.41504,0.42473,0.090909
3.72,1,0.40479,0.45996,0.41496,0.044966
3.728,1,0.43018,0.4751,0.42473,0.022483
3.736,1,0.43018,0.44482,0.39003,0.010753
3.744,1,0.4751,0.45508,0.3348,0.0048876
3.752,1,0.4248,0.50488,0.39492,0.001955
3.76,1,0.39502,0.5498,0.45503,0.00097752
3.768,1,0.37988,0.52002,0.46481,0
3.776,1,0.33008,0.52979,0.43988,0
3.784,1,0.30029,0.54004,0.49511,0
3.792,1,0.25,0.5498,0.53519,0
3.8,1,0.22021,0.53516,0.55523,0
3.808,1,0.2251,0.58496,0.54985,0
3.816,1,0.16992,0.5752,0.6002,0
3.824,1,0.2002,0.60498,0.58016,0
3.832,1,0.16992,0.58008,0.59531,0
3.84,1,0.18994,0.60498,0.57527,0
3.848,1,0.21484,0.58984,0.565,0
3.856,1,0.18506,0.6499,0.58504,0
3.864,1,0.22021,0.6001,0.56012,0
3.872,1,0.21484,0.63477,0.565,0
3.88,1,0.2251,0.62988,0.56989,0.0078201
3.888,1,0.25488,0.6499,0.54497,0.028348
3.896,1,0.24023,0.62012,0.56012,0.048876
3.904,1,0.24512,0.64502,0.565,0.057674
3.912,1,0.25488,0.62012,0.54008,0.052786
3.92,0.99389,0.28027,0.61475,0.52004,0.038123
3.928,0.98778,0.33008,0.64502,0.49511,0.021505
3.936,0.94991,0.36523,0.63477,0.47019,0.010753
3.944,0.91204,0.38525,0.68018,0.44477,0.0048876
3.952,0.87613,0.43018,0.64014,0.41496,0.001955
3.96,0.84022,0.46484,0.70996,0.3998,0.00097752
3.968,0.8065,0.40479,0.69482,0.44477,0
3.976,0.77278,0.43506,0.6748,0.41984,0
3.984,0.73931,0.375,0.68018,0.46481,0
3.992,0.70608,0.35498,0.66016,0.49022,0
4,0.67359,0.35986,0.62012,0.52493,0
4.008,0.64109,0.23486,0.6499,0.58993,0
4.016,0.613,0.20508,0.62988,0.57527,0
4.024,0.58515,0.24512,0.6499,0.54985,0.37732
4.032,0.56169,0.22021,0.625,0.58504,0.96481
4.04,0.53824,0.20996,0.64502,0.57527,1.306
4.048,0.51991,0.24023,0.59521,0.56012,1.5318
4.056,0.50159,0.2251,0.6001,0.57527,1.7038
4.064,0.48742,0.39014,0.55518,0.49511,1.8465
4.072,0.47349,1.0947,0.6499,0.11486,1.9589
4.08,0.46372,1.5,0.79492,-0.30547,2.0489
4.088,0.45395,1.5,1.27,-0.47556,2.129
4.096,0.44735,0.49512,1.3799,0.38514,2.1926
4.104,0.44075,-0.22998,1.04,0.82014,2.2375
4.112,0.43513,-0.32959,0.76514,0.89541,2.2649
4.12,0.42976,0.024902,0.69482,0.68035,2.2757
4.128,0.42463,0.16504,0.62012,0.6002,2.2698
4.136,0.4195,0.17529,0.58984,0.58993,2.2483
4.144,0.4129,0.18506,0.60986,0.58504,2.2092
4.152,0.4063,0.21484,0.58008,0.58504,2.1496
4.16,0.39824,0.24023,0.62988,0.6002,2.0674
4.168,0.39018,0.22998,0.60498,0.58504,1.9629
4.176,0.38114,0.24023,0.625,0.54008,1.8602
4.184,0.3721,0.26514,0.58008,0.50489,1.7546
4.192,0.36233,0.31006,0.58496,0.46481,1.6256
4.2,0.3528,0.31494,0.58008,0.48485,1.4848
4.208,0.34449,0.3252,0.62012,0.49022,1.3402
4.216,0.33643,0.33984,0.58984,0.45992,1.1975
4.224,0.32983,0.35986,0.625,0.45992,1.0606
4.232,0.32348,0.3999,0.6001,0.44477,0.93255
4.24,0.31981,0.39014,0.62988,0.46481,0.81623
4.248,0.31615,0.4502,0.5752,0.38514,0.71457
4.256,0.31517,0.46484,0.62988,0.42473,0.62659
4.264,0.31444,0.48486,0.58008,0.43988,0.55327
4.272,0.31639,0.50977,0.56494,0.32991,0.50538
4.28,0.31859,0.52002,0.52979,0.32991,0.4741
4.288,0.32372,0.56494,0.56006,0.30987,0.44379
4.296,0.3291,0.55518,0.50977,0.28495,0.42131
4.304,0.34107,0.5752,0.5249,0.28983,0.41153
4.312,0.35304,0.58984,0.50977,0.28495,0.41935
4.32,0.37112,0.53516,0.58496,0.33969,0.44673
4.328,0.3892,0.47998,0.59521,0.37488,0.49462
4.336,0.41314,0.44482,0.55518,0.38514,0.56109
4.344,0.43709,0.375,0.58008,0.45992,0.64125
4.352,0.46494,0.33008,0.5498,0.5,0.73021
4.36,0.49279,0.30029,0.52002,0.50978,0.82209
4.368,0.51918,0.29004,0.50488,0.49511,0.91202
4.376,0.54557,0.29492,0.58008,0.50978,0.99218
4.384,0.57049,0.30029,0.54004,0.48485,1.0645
4.392,0.59565,0.29492,0.58008,0.49511,1.1339
4.4,0.6213,0.31006,0.5752,0.51515,1.1994
4.408,0.64696,0.31006,0.58984,0.45992,1.26
4.416,0.67261,0.3252,0.54004,0.45503,1.3157
4.424,0.69851,0.30518,0.58008,0.50978,1.3675
4.432,0.72123,0.31494,0.56982,0.54008,1.4154
4.44,0.7442,0.3252,0.54492,0.43011,1.4585
4.448,0.76448,0.35498,0.5249,0.42473,1.4966
4.456,0.785,0.33496,0.56006,0.47996,1.5298
4.464,0.80454,0.35986,0.46484,0.41984,1.5562
4.472,0.82433,0.39014,0.52979,0.435,1.5787
4.48,0.84388,0.41504,0.5498,0.46481,1.5973
4.488,0.86343,0.47021,0.55518,0.32991,1.61
4.496,0.88297,0.49023,0.55518,0.3001,1.6188
4.504,0.90276,0.49512,0.6499,0.3348,1.6246
4.512,0.92231,0.4751,0.69482,0.34995,1.6285
4.52,0.9421,0.45508,0.73975,0.3651,1.6325
4.528,0.95993,0.44482,0.73486,0.39003,1.6383
4.536,0.97777,0.40479,0.7749,0.40469,1.6461
4.544,0.98876,0.35498,0.80469,0.42473,1.6549
4.552,1,0.2749,0.84473,0.54497,1.6647
4.56,1,0.26025,0.875,0.58504,1.6755
4.568,1,0.24023,0.75,0.48485,1.6862
4.576,1,0.23486,0.74512,0.52493,1.7009
4.584,1,0.2251,0.7998,0.61486,1.7214
4.592,1,0.23486,0.73975,0.49511,1.7546
4.6,1,0.24512,0.69482,0.49022,1.8065
4.608,1,0.29004,0.70996,0.56012,1.8827
4.616,1,0.73975,0.62012,0.2346,1.9814
4.624,1,1.5,0.85498,-0.25562,2.0978
4.632,1,1.5,1.2197,-0.50049,2.2219
4.64,1,1.0547,1.5,0.049853,2.3412
4.648,1,-0.19971,1.335,0.72532,2.4467
4.656,1,-0.37988,0.95996,0.8304,2.5308
4.664,1,0.080078,0.7749,0.58504,2.5904
4.672,1,0.25,0.77002,0.5,2.6256
4.68,1,0.28516,0.7002,0.47019,2.6422
4.688,1,0.29492,0.71973,0.47019,2.6452
4.696,1,0.30518,0.65479,0.45503,2.6383
4.704,1,0.31494,0.66992,0.45015,2.6227
4.712,1,0.33008,0.58984,0.47019,2.6022
4.72,0.97117,0.33984,0.56006,0.43988,2.5787
4.728,0.94234,0.33496,0.60986,0.46481,2.5543
4.736,0.9074,0.35498,0.66992,0.49511,2.5298
4.744,0.87271,0.38525,0.56982,0.35973,2.5073
4.752,0.83802,0.40479,0.60498,0.36999,2.4858
4.76,0.80332,0.43506,0.60986,0.37977,2.4643
4.768,0.76839,0.4502,0.49512,0.39492,2.4448
4.776,0.73369,0.47998,0.49023,0.33969,2.4252
4.784,0.69216,0.49512,0.54492,0.33969,2.4008
4.792,0.65087,0.52979,0.48486,0.32502,2.3724
4.8,0.60371,0.5498,0.45508,0.30987,2.3412
4.808,0.55656,0.56982,0.51514,0.29472,2.3069
4.816,0.50696,0.60986,0.49512,0.27468,2.2708
4.824,0.45737,0.60986,0.53516,0.28006,2.2336
4.832,0.40728,0.62988,0.49512,0.26002,2.1984
4.84,0.35744,0.64502,0.5752,0.3001,2.1652
4.848,0.31346,0.62988,0.52979,0.26491,2.1339
4.856,0.26973,0.62012,0.58008,0.23998,2.1065
4.864,0.23088,0.62012,0.58008,0.28006,2.0821
4.872,0.19204,0.5498,0.62012,0.28495,2.0645
4.88,0.15441,0.47021,0.58496,0.35484,2.0528
4.888,0.11703,0.39014,0.625,0.41007,2.042
4.896,0.08087,0.3252,0.58008,0.45992,2.0332
4.904,0.04471,0.28027,0.62012,0.49511,2.0274
4.912,0.021989,0.24512,0.56494,0.51515,2.0225
4.92,-0.00048864,0.2251,0.63477,0.52981,2.0186
4.928,-0.00048864,0.20996,0.60498,0.54008,2.0147
4.936,-0.00048864,0.22021,0.60986,0.54497,2.0088
4.944,-0.00048864,0.2002,0.58496,0.56012,2.001
4.952,-0.00048864,0.2002,0.64502,0.55523,1.9902
4.96,-0.00048864,0.19531,0.69482,0.565,1.9775
4.968,-0.00048864,0.21484,0.63477,0.54985,1.9658
4.976,-0.00048864,0.22021,0.65479,0.565,1.955
4.984,-0.00048864,0.20996,0.58496,0.56012,1.9384
4.992,-0.00048864,0.22021,0.62988,0.54985,1.9179
5,-0.00048864,0.2251,0.59521,0.54497,1.8944
5.008,-0.00048864,0.21484,0.6499,0.565,1.8661
5.016,-0.00048864,0.22998,0.63477,0.54497,1.8328
5.024,-0.00048864,0.28516,0.66016,0.50978,1.7918
5.032,-0.00048864,0.33496,0.54004,0.48485,1.74
5.04,-0.00048864,0.33984,0.66992,0.47996,1.6764
5.048,-0.00048864,0.3252,0.68994,0.47507,1.5982
5.056,-0.00048864,0.35498,0.74512,0.45503,1.5073
5.064,-0.00048864,0.33008,0.68994,0.47019,1.4066
5.072,-0.00048864,0.31494,0.69482,0.47996,1.3196
5.08,-0.00048864,0.29004,0.60986,0.49511,1.2414
5.088,-0.00048864,0.24512,0.66504,0.52981,1.1564
5.096,-0.00048864,0.20508,0.61475,0.565,1.0782
5.104,-0.00048864,0.14502,0.64502,0.60997,1.0147
5.112,-0.00048864,0.095215,0.58496,0.6349,0.96579
5.12,-0.00048864,0.084961,0.56494,0.64516,0.93157
5.128,-0.00048864,0.084961,0.48486,0.65005,0.90909
5.136,-0.00048864,0.070312,0.4751,0.66031,0.89736
5.144,-0.00048864,0.060059,0.43506,0.67498,0.89932
5.152,-0.00048864,0.044922,0.41504,0.68524,0.93842
5.16,-0.00048864,0.18994,0.40479,0.62023,0.9912
5.168,-0.00048864,0.80469,0.4502,0.3001,1.0352
5.176,-0.00048864,1.5,0.5249,-0.27077,1.1036
5.184,-0.00048864,1.5,1.0249,-0.4306,1.1975
5.192,-0.00048864,0.3999,1.2246,0.47019,1.303
5.2,-0.00048864,-0.49951,0.81006,0.9653,1.4076
5.208,-0.00048864,-0.40479,0.48486,0.9956,1.4985
5.216,-0.00048864,-0.089844,0.33496,0.75024,1.567
5.224,-0.00048864,0.0048828,0.27002,0.70039,1.6109
5.232,-0.00048864,0.02002,0.18994,0.69501,1.6325
5.24,-0.00048864,0.030273,0.22998,0.68524,1.6364
5.248,-0.00048864,0.035156,0.18994,0.68524,1.6276
5.256,-0.00048864,0.040039,0.20508,0.69013,1.6109
5.264,-0.00048864,0.060059,0.15527,0.68035,1.5904
5.272,-0.00048864,0.070312,0.14502,0.67009,1.5748
5.28,-0.00048864,0.084961,0.12012,0.6652,1.563
5.288,-0.00048864,0.10498,0.2002,0.65494,1.5474
5.296,-0.00048864,0.10986,0.18018,0.65005,1.5337
5.304,-0.00048864,0.13525,0.2251,0.64516,1.5239
5.312,-0.00048864,0.15527,0.16992,0.62512,1.52
5.32,-0.00048864,0.17529,0.19531,0.61486,1.523
5.328,-0.00048864,0.2002,0.16016,0.60997,1.5337
5.336,-0.00048864,0.22021,0.15527,0.59531,1.5503
5.344,-0.00048864,0.26025,0.19531,0.58016,1.5699
5.352,-0.00048864,0.27002,0.18506,0.565,1.5894
5.36,-0.00048864,0.30518,0.22021,0.54008,1.607
5.368,-0.00048864,0.33496,0.18018,0.52004,1.6217
5.376,-0.00048864,0.33984,0.20996,0.51515,1.6305
5.384,-0.00048864,0.35498,0.16992,0.5,1.6305
5.392,-0.00048864,0.36523,0.20508,0.5,1.6237
5.4,-0.00048864,0.375,0.2002,0.50978,1.61
5.408,-0.00048864,0.375,0.28027,0.48485,1.5914
5.416,-0.00048864,0.34521,0.26025,0.51515,1.567
5.424,-0.00048864,0.30029,0.31494,0.54008,1.5357
5.432,-0.00048864,0.24023,0.25488,0.565,1.4985
5.44,-0.00048864,0.16504,0.33984,0.62023,1.4536
5.448,-0.00048864,0.11523,0.36523,0.65494,1.4047
5.456,-0.00048864,0.075195,0.4248,0.68524,1.3548
5.464,-0.00048864,0.050293,0.39014,0.68524,1.3089
5.472,-0.00048864,0.044922,0.4248,0.69013,1.2786
5.48,-0.00048864,0.035156,0.375,0.69501,1.262
5.488,-0.00048864,0.02002,0.39502,0.71505,1.2532
5.496,-0.00048864,0.024902,0.35986,0.70528,1.2551
5.504,-0.00048864,0.030273,0.41016,0.70528,1.2698
5.512,-0.00048864,0.044922,0.36523,0.69501,1.2942
5.52,-0.00048864,0.035156,0.35498,0.70039,1.3245
5.528,-0.00048864,0.040039,0.35986,0.70528,1.3578
5.536,-0.00048864,0.044922,0.4502,0.69501,1.3891
5.544,-0.00048864,0.050293,0.47021,0.69501,1.4174
5.552,-0.00048864,0.044922,0.43506,0.70039,1.4399
5.56,-0.00048864,0.055176,0.45508,0.69013,1.4575
5.568,-0.00048864,0.1001,0.40479,0.6652,1.4741
5.576,-0.00048864,0.15527,0.43994,0.62512,1.4888
5.584,-0.00048864,0.16016,0.3999,0.63001,1.4995
5.592,-0.00048864,0.18506,0.47998,0.61486,1.5083
5.6,-0.00048864,0.2002,0.45996,0.59531,1.5161
5.608,-0.00048864,0.18018,0.50977,0.62512,1.5249
5.616,-0.00048864,0.1499,0.48486,0.67498,1.5376
5.624,-0.00048864,0.14014,0.4502,0.60508,1.5552
5.632,-0.00048864,0.095215,0.44482,0.73998,1.5816
5.64,-0.00048864,0.055176,0.48486,0.68524,1.6178
5.648,-0.00048864,0.015137,0.37988,0.64516,1.6647
5.656,-0.00048864,-0.02002,0.43506,0.68035,1.7224
5.664,-0.00048864,-0.029785,0.41016,0.70039,1.7928
5.672,-0.00048864,-0.034668,0.45508,0.72532,1.8641
5.68,-0.00048864,-0.049805,0.50488,0.73509,1.9394
5.688,-0.00048864,-0.054688,0.62012,0.74536,2.0342
5.696,-0.00048864,-0.044922,0.5752,0.73021,2.1447
5.704,-0.00048864,-0.060059,0.58008,0.76002,2.2678
5.712,-0.00048864,0.375,0.53516,0.54008,2.4018
5.72,-0.00048864,1.395,0.66992,-0.015152,2.5406
5.728,-0.00048864,1.5,0.94971,-0.45552,2.6804
5.736,-0.00048864,1.1396,1.4097,0.11975,2.8143
5.744,-0.00048864,-0.45459,1.1299,0.9653,2.9355
5.752,-0.00048864,-0.49951,0.76514,1.0855,3.042
5.76,-0.00048864,-0.2749,0.61475,0.88514,3.131
5.768,-0.00048864,-0.089844,0.55518,0.78006,3.1935
5.776,-0.00048864,-0.060059,0.45508,0.76002,3.2366
5.784,-0.00048864,-0.049805,0.3999,0.75513,3.2727
5.792,-0.00048864,-0.080078,0.375,0.77517,3.3011
5.8,-0.00048864,-0.064941,0.49023,0.76002,3.3216
5.808,-0.00048864,-0.029785,0.53516,0.73021,3.3333
5.816,-0.00048864,-0.029785,0.49023,0.74536,3.3372
5.824,-0.00048864,0.0048828,0.4502,0.72532,3.3333
5.832,-0.00048864,0.040039,0.41016,0.70528,3.3216
5.84,-0.00048864,0.035156,0.43994,0.70039,3.303
5.848,-0.00048864,0.084961,0.39014,0.69501,3.2766
5.856,-0.00048864,0.095215,0.40479,0.68035,3.2434
5.864,-0.00048864,0.12988,0.37012,0.65005,3.2053
5.872,-0.00048864,0.14502,0.40479,0.67498,3.1652
5.88,-0.00048864,0.18506,0.3252,0.58993,3.1232
5.888,-0.00048864,0.22998,0.36523,0.565,3.0762
5.896,-0.00048864,0.26025,0.34521,0.54985,3.0264
5.904,-0.00048864,0.28027,0.39014,0.54008,2.9746
5.912,-0.00048864,0.31006,0.3501,0.54497,2.9218
5.92,-0.00048864,0.34521,0.3999,0.50978,2.869
5.928,-0.00048864,0.375,0.39014,0.49511,2.8172
5.936,-0.00048864,0.39502,0.4502,0.48485,2.7683
5.944,-0.00048864,0.4248,0.43994,0.45503,2.7234
5.952,-0.00048864,0.41504,0.49512,0.47019,2.6843
5.96,-0.00048864,0.4248,0.53516,0.45992,2.65
5.968,-0.00048864,0.39502,0.66992,0.49511,2.6237
5.976,-0.00048864,0.31494,0.71484,0.53519,2.6031
5.984,-0.00048864,0.25488,0.7002,0.56012,2.5875
5.992,-0.00048864,0.2002,0.65479,0.60997,2.5767
6,-0.00048864,0.1499,0.625,0.6349,2.5709
6.008,-0.00048864,0.12012,0.63477,0.66031,2.5679
6.016,-0.00048864,0.10498,0.58984,0.68524,2.5679
6.024,-0.00048864,0.095215,0.59521,0.66031,2.5699
6.032,-0.00048864,0.1001,0.54004,0.66031,2.5718
6.04,-0.00048864,0.095215,0.55518,0.67009,2.5728
6.048,-0.00048864,0.10498,0.50488,0.65494,2.5718
6.056,-0.00048864,0.095215,0.54004,0.68035,2.5689
6.064,-0.00048864,0.11523,0.51514,0.66031,2.5621
6.072,-0.00048864,0.12012,0.5498,0.70039,2.5318
6.08,-0.00048864,0.13525,0.5,0.66031,2.4897
6.088,-0.00048864,0.13525,0.53516,0.65494,2.4624
6.096,-0.00048864,0.16504,0.45508,0.58504,2.4418
6.104,-0.00048864,0.17529,0.53516,0.57527,2.4242
6.112,-0.00048864,0.16504,0.60498,0.58993,2.4076
6.12,-0.00048864,0.20508,0.7002,0.60508,2.391
6.128,-0.00048864,0.27002,0.66992,0.55523,2.3744
6.136,-0.00048864,0.28027,0.6499,0.52981,2.3568
6.144,-0.00048864,0.31982,0.68018,0.50489,2.3392
6.152,-0.00048864,0.33984,0.72998,0.48485,2.3226
6.16,-0.00048864,0.31006,0.74512,0.56012,2.304
6.168,-0.00048864,0.29004,0.68994,0.51515,2.2874
6.176,-0.00048864,0.30029,0.6499,0.49022,2.2639
6.184,-0.00048864,0.25488,0.64014,0.56012,2.2405
6.192,-0.00048864,0.18994,0.64502,0.565,2.2229
6.2,-0.00048864,0.12012,0.58984,0.6652,2.2033
6.208,-0.00048864,0.090332,0.62012,0.67498,2.1867
6.216,-0.00048864,0.080078,0.5498,0.64027,2.1779
6.224,-0.00048864,0.064941,0.63477,0.71017,2.1808
6.232,-0.00048864,0.044922,0.625,0.74536,2.1984
6.24,-0.00048864,0.050293,0.68018,0.71505,2.2317
6.248,-0.00048864,0.060059,0.625,0.62512,2.2796
6.256,-0.00048864,0.040039,0.6748,0.64027,2.3372
6.264,-0.00048864,0.59521,0.73975,0.37977,2.3998
6.272,-0.00048864,1.5,0.96484,-0.15543,2.4545
6.28,-0.00048864,1.5,1.3647,-0.4609,2.5005
6.288,-0.00048864,0.7998,1.5,0.25464,2.5425
6.296,-0.00048864,-0.45996,1.4248,0.94526,2.5748
6.304,-0.00048864,-0.49951,1.105,1.0303,2.5934
6.312,-0.00048864,-0.14502,0.93506,0.78543,2.5992
6.32,-0.00048864,0.015137,0.91992,0.68524,2.5934
6.328,-0.00048864,0.035156,0.84473,0.67498,2.5787
6.336,-0.00048864,0.044922,0.87012,0.68524,2.5572
6.344,-0.00048864,0.055176,0.83008,0.70039,2.5308
6.352,-0.00048864,0.075195,0.81494,0.65494,2.5024
6.36,-0.00048864,0.070312,0.83496,0.68524,2.4731
6.368,-0.00048864,0.084961,0.79492,0.65005,2.4477
6.376,-0.00048864,0.11523,0.81494,0.62512,2.4242
6.384,-0.00048864,0.14014,0.77979,0.60997,2.3998
6.392,-0.00048864,0.15527,0.81494,0.6002,2.3754
6.4,-0.00048864,0.1499,0.7749,0.63001,2.3509
6.408,-0.00048864,0.2002,0.80469,0.58504,2.3275
6.416,-0.00048864,0.23486,0.76514,0.56989,2.303
6.424,-0.00048864,0.26514,0.79004,0.54985,2.2776
6.432,-0.00048864,0.26025,0.72998,0.565,2.2502
6.44,-0.00048864,0.29492,0.75977,0.52981,2.2209
6.448,-0.00048864,0.30518,0.70996,0.52981,2.1906
6.456,-0.00048864,0.31982,0.71973,0.52493,2.1584
6.464,-0.00048864,0.36523,0.6748,0.49511,2.1251
6.472,-0.00048864,0.36523,0.69482,0.5,2.0968
6.48,-0.00048864,0.375,0.6499,0.48485,2.0723
6.488,-0.00048864,0.36523,0.6748,0.47996,2.0459
6.496,-0.00048864,0.37988,0.64502,0.47019,2.0225
6.504,-0.00048864,0.35498,0.69482,0.5,2.0029
6.512,-0.00048864,0.35986,0.68506,0.51515,1.9892
6.52,-0.00048864,0.30518,0.71973,0.50489,1.9814
6.528,-0.00048864,0.25488,0.70996,0.56012,1.9785
6.536,-0.00048864,0.2002,0.75977,0.61486,1.9785
6.544,-0.00048864,0.14502,0.75488,0.65005,1.9814
6.552,-0.00048864,0.084961,0.78516,0.67498,1.9853
6.56,-0.00048864,0.050293,0.75,0.66031,1.9912
6.568,-0.00048864,0.040039,0.79492,0.67498,1.999
6.576,-0.00048864,0.035156,0.80469,0.68524,2.0098
6.584,-0.00048864,0.030273,0.77979,0.69501,2.0225
6.592,-0.00048864,0.035156,0.81006,0.68524,2.0391
6.6,-0.00048864,0.055176,0.76514,0.68524,2.0577
6.608,-0.00048864,0.030273,0.80469,0.71994,2.0762
6.616,-0.00048864,0.040039,0.76514,0.68524,2.0938
6.624,-0.00048864,0.060059,0.73486,0.65005,2.1085
6.632,-0.00048864,0.055176,0.70508,0.65005,2.1193
6.64,-0.00048864,0.075195,0.7251,0.64516,2.1241
6.648,-0.00048864,0.064941,0.66992,0.66031,2.1241
6.656,0.011239,0.15527,0.70508,0.59531,2.1183
6.664,0.022966,0.18506,0.68018,0.57527,2.1105
6.672,0.041534,0.2002,0.71484,0.58504,2.0987
6.68,0.060103,0.20996,0.66504,0.565,2.0792
6.688,0.078427,0.2251,0.70996,0.56012,2.0518
6.696,0.096995,0.19531,0.6499,0.58993,2.0156
6.704,0.11825,0.16504,0.66992,0.60508,1.9707
6.712,0.13975,0.1499,0.60498,0.58504,1.9169
6.72,0.16418,0.125,0.6001,0.60508,1.8563
6.728,0.18861,0.070312,0.55518,0.67009,1.7908
6.736,0.21573,0,0.56982,0.73509,1.7214
6.744,0.2431,-0.0097656,0.50488,0.74536,1.652
6.752,0.27168,-0.0097656,0.49023,0.70528,1.5865
6.76,0.30051,-0.029785,0.51514,0.73021,1.5298
6.768,0.32592,-0.034668,0.48486,0.73509,1.4936
6.776,0.35133,-0.034668,0.46484,0.71994,1.478
6.784,0.37356,-0.080078,0.47998,0.81036,1.4819
6.792,0.3958,0.10498,0.44482,0.81525,1.5132
6.8,0.41559,0.8999,0.41992,0.20479,1.5738
6.808,0.43538,1.5,0.72998,-0.36559,1.6608
6.816,0.45272,1.5,1.29,-0.50049,1.7674
6.824,0.47032,0.18994,1.4248,0.59531,1.8837
6.832,0.48326,-0.49951,0.85498,1.0254,2
6.84,0.49646,-0.31494,0.60986,0.91007,2.1075
6.848,0.50476,-0.099609,0.49512,0.78543,2.2004
6.856,0.51332,-0.060059,0.4248,0.70039,2.2757
6.864,0.51405,-0.084961,0.37988,0.73509,2.3294
6.872,0.51478,-0.099609,0.41992,0.77028,2.3666
6.88,0.50794,-0.089844,0.39014,0.79032,2.393
6.888,0.5011,-0.064941,0.38525,0.70528,2.4096
6.896,0.48424,-0.064941,0.35986,0.71505,2.4174
6.904,0.46738,-0.060059,0.40479,0.72532,2.4174
6.912,0.44271,-0.049805,0.37988,0.73021,2.4125
6.92,0.41828,-0.034668,0.41992,0.70528,2.4047
6.928,0.39189,-0.024902,0.41504,0.69501,2.3949
6.936,0.3655,-0.0097656,0.5249,0.69013,2.3842
6.944,0.33741,0.010254,0.51514,0.68524,2.3734
6.952,0.30931,0.024902,0.63477,0.68035,2.3627
6.96,0.27413,0.044922,0.79004,0.66031,2.3509
6.968,0.23919,0.075195,0.80469,0.6349,2.3402
6.976,0.19888,0.10986,0.72998,0.61486,2.3304
6.984,0.15881,0.14014,0.68994,0.6002,2.3187
6.992,0.12069,0.16992,0.63477,0.58993,2.305
7,0.08258,0.20508,0.60498,0.54497,2.2903
7.008,0.046176,0.22998,0.60986,0.52004,2.2747
7.016,0.0097728,0.25,0.56494,0.52004,2.259
7.024,0.0046421,0.26025,0.59521,0.52004,2.2434
7.032,-0.00048864,0.26514,0.5498,0.51515,2.2287
7.04,-0.00048864,0.24512,0.6001,0.54008,2.2151
7.048,-0.00048864,0.22021,0.58008,0.56989,2.2023
7.056,-0.00048864,0.16016,0.61475,0.61486,2.1916
7.064,-0.00048864,0.10986,0.60498,0.67009,2.1848
7.072,-0.00048864,0.050293,0.625,0.68035,2.1799
7.08,-0.00048864,-0.0048828,0.5498,0.67009,2.1769
7.088,-0.00048864,-0.029785,0.58984,0.71505,2.176
7.096,-0.00048864,-0.034668,0.5249,0.68524,2.1769
7.104,-0.00048864,-0.064941,0.58008,0.73021,2.1799
7.112,-0.00048864,-0.064941,0.55518,0.77028,2.1857
7.12,-0.00048864,-0.074707,0.58496,0.75513,2.1926
7.128,-0.00048864,-0.074707,0.58984,0.84018,2.2004
7.136,-0.00048864,-0.044922,0.5498,0.69013,2.2092
7.144,-0.00048864,-0.024902,0.49023,0.64027,2.218
7.152,-0.00048864,-0.034668,0.58984,0.77517,2.2268
7.16,-0.00048864,-0.034668,0.61475,0.82502,2.2346
7.168,-0.00048864,-0.034668,0.49512,0.66031,2.2414
7.176,-0.00048864,-0.049805,0.5249,0.71994,2.2473
7.184,-0.00048864,-0.060059,0.56982,0.81036,2.2542
7.192,-0.00048864,-0.040039,0.5752,0.76002,2.2639
7.2,-0.00048864,0.0048828,0.5249,0.71994,2.2854
7.208,-0.00048864,0.030273,0.58496,0.73509,2.3099
7.216,-0.00048864,0.044922,0.52002,0.64516,2.3294
7.224,-0.00048864,0.080078,0.6001,0.69501,2.348
7.232,-0.00048864,0.060059,0.60498,0.71017,2.3519
7.24,-0.00048864,0.050293,0.53516,0.61486,2.3226
7.248,-0.00048864,0.055176,0.52002,0.65005,2.2473
7.256,-0.00048864,0.015137,0.55518,0.71017,2.1232
7.264,-0.00048864,-0.024902,0.56006,0.82014,1.9883
7.272,-0.00048864,-0.094727,0.49512,0.73998,1.8485
7.28,-0.00048864,-0.1499,0.43994,0.78543,1.6931
7.288,-0.00048864,-0.16504,0.47998,0.82014,1.5621
7.296,-0.00048864,-0.16504,0.43994,0.83529,1.4829
7.304,-0.00048864,-0.18506,0.50488,0.91007,1.4673
7.312,-0.00048864,-0.18506,0.44482,0.92033,1.5132
7.32,-0.00048864,-0.1748,0.4502,0.81525,1.609
7.328,-0.00048864,-0.18994,0.39502,0.86022,1.7351
7.336,-0.00048864,-0.014648,0.43018,0.77517,1.8759
7.344,-0.00048864,0.61475,0.49023,0.43011,2.0176
7.352,-0.00048864,1.3496,0.81006,0.014663,2.1505
7.36,-0.00048864,1.5,1.27,-0.15543,2.2708
7.368,-0.00048864,0.044922,1.3096,0.73509,2.3646
7.376,-0.00048864,-0.49951,0.76514,1.1153,2.4389
7.384,-0.00048864,-0.46484,0.58008,1.0254,2.5054
7.392,-0.00048864,-0.21973,0.50977,0.88025,2.5611
7.4,-0.00048864,-0.1748,0.48486,0.84506,2.6041
7.408,-0.00048864,-0.16992,0.5,0.84018,2.6364
7.416,-0.00048864,-0.16504,0.45508,0.83529,2.6588
7.424,-0.00048864,-0.1499,0.49512,0.82014,2.6725
7.432,-0.00048864,-0.13477,0.45996,0.81525,2.6794
7.44,-0.00048864,-0.12988,0.50977,0.80499,2.6794
7.448,-0.00048864,-0.10986,0.48486,0.8001,2.6735
7.456,-0.00048864,-0.099609,0.53516,0.79032,2.6618
7.464,-0.00048864,-0.080078,0.50488,0.77517,2.6461
7.472,-0.00048864,-0.069824,0.55518,0.77517,2.6266
7.48,-0.00048864,-0.049805,0.52979,0.77028,2.6002
7.488,-0.00048864,-0.029785,0.56006,0.75024,2.5679
7.496,-0.00048864,-0.0048828,0.50977,0.71505,2.5318
7.504,-0.00048864,0.024902,0.5498,0.70528,2.4927
7.512,-0.00048864,0.050293,0.50977,0.69013,2.4536
7.52,-0.00048864,0.070312,0.54004,0.68524,2.4145
7.528,-0.00048864,0.1001,0.49512,0.66031,2.3793
7.536,-0.00048864,0.125,0.52002,0.6349,2.348
7.544,-0.00048864,0.15527,0.47998,0.60508,2.3226
7.552,-0.00048864,0.18018,0.51514,0.6002,2.3021
7.56,-0.00048864,0.20508,0.49023,0.58504,2.2864
7.568,-0.00048864,0.22998,0.51514,0.56012,2.2766
7.576,-0.00048864,0.25488,0.50488,0.54497,2.2717
7.584,-0.00048864,0.2749,0.54492,0.54497,2.2678
7.592,-0.00048864,0.26514,0.52979,0.54985,2.2659
7.6,-0.00048864,0.2251,0.56494,0.58504,2.2659
7.608,-0.00048864,0.16992,0.58008,0.62512,2.2659
7.616,-0.00048864,0.125,0.5498,0.66031,2.2659
7.624,-0.00048864,0.084961,0.58008,0.68524,2.2649
7.632,-0.00048864,0.060059,0.54492,0.70039,2.2639
7.64,-0.00048864,0.035156,0.58008,0.71994,2.263
7.648,-0.00048864,0.030273,0.5498,0.73021,2.262
7.656,-0.00048864,0.02002,0.58008,0.73998,2.26
7.664,-0.00048864,0.02002,0.5498,0.73998,2.259
7.672,-0.00048864,0.015137,0.5752,0.74536,2.2581
7.68,-0.00048864,0.02002,0.5498,0.73998,2.2561
7.688,-0.00048864,0.024902,0.58008,0.75024,2.2542
7.696,-0.00048864,0.030273,0.5498,0.74536,2.2512
7.704,-0.00048864,0.030273,0.5752,0.74536,2.2483
7.712,-0.00048864,0.035156,0.54492,0.73998,2.2454
7.72,-0.00048864,0.035156,0.58496,0.74536,2.2414
7.728,-0.00048864,0.035156,0.55518,0.73509,2.2366
7.736,-0.00048864,0.070312,0.6001,0.71017,2.2307
7.744,-0.00048864,0.125,0.58496,0.67498,2.2248
7.752,-0.00048864,0.14014,0.625,0.66031,2.218
7.76,-0.00048864,0.18018,0.60986,0.63001,2.2121
7.768,-0.00048864,0.22021,0.6748,0.60997,2.2072
7.776,-0.00048864,0.17529,0.63477,0.60508,2.2023
7.784,-0.00048864,0.16016,0.62012,0.62512,2.1975
7.792,-0.00048864,0.16504,0.65479,0.62512,2.1916
7.8,-0.00048864,0.12988,0.6001,0.64516,2.1857
7.808,-0.00048864,0.095215,0.60986,0.68035,2.1799
7.816,-0.00048864,0.024902,0.55518,0.73509,2.173
7.824,-0.00048864,-0.0097656,0.5752,0.76002,2.1672
7.832,-0.00048864,-0.02002,0.51514,0.77028,2.1632
7.84,-0.00048864,-0.024902,0.5498,0.77517,2.1623
7.848,-0.00048864,-0.034668,0.50488,0.77517,2.1672
7.856,-0.00048864,-0.034668,0.53516,0.77517,2.1789
7.864,-0.00048864,-0.040039,0.49512,0.78006,2.1945
7.872,-0.00048864,-0.060059,0.50977,0.79521,2.2141
7.88,-0.00048864,0.30029,0.45996,0.60508,2.2414
7.888,-0.00048864,1.04,0.6499,0.1349,2.2727
7.896,-0.00048864,1.5,1.0049,-0.23558,2.304
7.904,-0.00048864,0.94971,1.3848,0.22972,2.3333
7.912,-0.00048864,-0.16504,1.0547,0.88514,2.3578
7.92,-0.00048864,-0.46484,0.71973,1.0552,2.3763
7.928,-0.00048864,-0.21484,0.56982,0.89052,2.3891
7.936,-0.00048864,-0.080078,0.56494,0.8001,2.3949
7.944,-0.00048864,-0.064941,0.48486,0.79032,2.3959
7.952,-0.00048864,-0.060059,0.5,0.78543,2.3939
7.96,-0.00048864,-0.054688,0.45508,0.78006,2.39
7.968,-0.00048864,-0.049805,0.47998,0.77517,2.3861
7.976,-0.00048864,-0.040039,0.45508,0.77517,2.3812
7.984,-0.00048864,-0.034668,0.4751,0.7654,2.3754
7.992,-0.00048864,-0.014648,0.4502,0.75513,2.3675
8,-0.00048864,0.010254,0.43994,0.73998,2.3587
8.008,-0.00048864,0.024902,0.4751,0.73021,2.348
8.016,-0.00048864,0.035156,0.4502,0.71994,2.3353
8.024,-0.00048864,0.055176,0.47998,0.70528,2.3206
8.032,-0.00048864,0.075195,0.44482,0.69013,2.304
8.04,-0.00048864,0.084961,0.47998,0.68524,2.2845
8.048,-0.00048864,0.10498,0.4502,0.6652,2.2639
8.056,-0.00048864,0.12988,0.4751,0.64516,2.2414
8.064,-0.00048864,0.15527,0.44482,0.62023,2.2219
8.072,-0.00048864,0.17529,0.4751,0.60508,2.2053
8.08,-0.00048864,0.18994,0.43994,0.58993,2.1867
8.088,-0.00048864,0.20508,0.47021,0.58016,2.1681
8.096,-0.00048864,0.23486,0.4502,0.55523,2.1505
8.104,-0.00048864,0.25,0.49023,0.54985,2.1359
8.112,-0.00048864,0.27002,0.4751,0.53519,2.1241
8.12,-0.00048864,0.29004,0.51514,0.52493,2.1124
8.128,-0.00048864,0.31982,0.5,0.51515,2.1026
8.136,-0.00048864,0.29004,0.5498,0.54497,2.0968
8.144,-0.00048864,0.26025,0.5249,0.56989,2.0929
8.152,-0.00048864,0.24023,0.56982,0.58016,2.0909
8.16,-0.00048864,0.20508,0.54492,0.6002,2.0899
8.168,-0.00048864,0.18506,0.56982,0.62512,2.0909
8.176,-0.00048864,0.1499,0.54492,0.64516,2.0919
8.184,-0.00048864,0.12988,0.56982,0.66031,2.0909
8.192,-0.00048864,0.13525,0.54492,0.66031,2.089
8.2,-0.00048864,0.14014,0.54004,0.65494,2.085
8.208,-0.00048864,0.13525,0.56006,0.66031,2.0802
8.216,-0.00048864,0.16016,0.53516,0.6349,2.0733
8.224,-0.00048864,0.18506,0.5752,0.60508,2.0616
8.232,-0.00048864,0.2002,0.5498,0.6002,2.0499
8.24,-0.00048864,0.23486,0.58008,0.565,2.0401
8.248,-0.00048864,0.2749,0.56982,0.52493,2.0264
8.256,-0.00048864,0.29492,0.60986,0.50489,2.0117
8.264,-0.00048864,0.31494,0.58496,0.48485,2
8.272,-0.00048864,0.33496,0.61475,0.47019,1.9892
8.28,-0.00048864,0.37012,0.59521,0.44477,1.9756
8.288,-0.00048864,0.43018,0.65479,0.3998,1.9599
8.296,-0.00048864,0.43994,0.64502,0.38514,1.9433
8.304,-0.00048864,0.47998,0.69482,0.35973,1.9267
8.312,-0.00048864,0.5249,0.68018,0.32991,1.911
8.32,-0.00048864,0.47998,0.69482,0.34506,1.8954
8.328,-0.00048864,0.46484,0.6748,0.34995,1.8798
8.336,-0.00048864,0.45508,0.68994,0.3651,1.8641
8.344,-0.00048864,0.41504,0.62012,0.39003,1.8485
8.352,-0.00048864,0.39014,0.64502,0.41984,1.8348
8.36,-0.00048864,0.31006,0.58496,0.47507,1.827
8.368,-0.00048864,0.26514,0.59521,0.50978,1.826
8.376,-0.00048864,0.23486,0.56006,0.52981,1.8309
8.384,-0.00048864,0.22998,0.5498,0.53519,1.8465
8.392,-0.00048864,0.2251,0.56006,0.54497,1.8778
8.4,-0.00048864,0.21484,0.52979,0.54985,1.9277
8.408,-0.00048864,0.20996,0.56006,0.55523,1.9941
8.416,-0.00048864,0.20508,0.49023,0.56012,2.0733
8.424,-0.00048864,0.61475,0.53516,0.34506,2.1603
8.432,-0.00048864,1.335,0.68018,-0.11046,2.2493
8.44,-0.00048864,1.5,1.0898,-0.42571,2.3314
8.448,-0.00048864,1.1196,1.3198,0.07478,2.4018
8.456,-0.00048864,0.125,1.0449,0.67009,2.4565
8.464,-0.00048864,-0.22998,0.68506,0.86022,2.4936
8.472,-0.00048864,-0.054688,0.58496,0.73509,2.5152
8.48,-0.00048864,0.12012,0.52979,0.62023,2.5259
8.488,-0.00048864,0.14502,0.51514,0.60997,2.5269
8.496,-0.00048864,0.1499,0.45996,0.6002,2.5191
8.504,-0.00048864,0.15527,0.48486,0.59531,2.5044
8.512,-0.00048864,0.17529,0.45996,0.58993,2.4858
8.52,-0.00048864,0.16992,0.48486,0.58993,2.4643
8.528,-0.00048864,0.18018,0.43994,0.58504,2.4418
8.536,-0.00048864,0.19531,0.4751,0.58016,2.4194
8.544,-0.00048864,0.18994,0.43994,0.57527,2.3969
8.552,-0.00048864,0.22021,0.48486,0.56012,2.3754
8.56,-0.00048864,0.2251,0.45996,0.54985,2.3568
8.568,-0.00048864,0.23486,0.48486,0.54497,2.3402
8.576,-0.00048864,0.24023,0.45508,0.54008,2.3216
8.584,-0.00048864,0.26514,0.47998,0.52493,2.3021
8.592,-0.00048864,0.2749,0.47021,0.50978,2.2815
8.6,-0.00048864,0.29492,0.49512,0.5,2.259
8.608,-0.00048864,0.30029,0.46484,0.49511,2.2366
8.616,-0.00048864,0.31982,0.45508,0.47996,2.2131
8.624,-0.00048864,0.33496,0.48486,0.47019,2.1906
8.632,-0.00048864,0.3501,0.45996,0.45503,2.1691
8.64,-0.00048864,0.35498,0.49023,0.45015,2.1486
8.648,-0.00048864,0.36523,0.45996,0.43988,2.131
8.656,-0.00048864,0.38525,0.50977,0.43011,2.1173
8.664,-0.00048864,0.3999,0.49023,0.42473,2.1095
8.672,-0.00048864,0.41992,0.54004,0.41984,2.1046
8.68,-0.00048864,0.41016,0.52002,0.44477,2.1017
8.688,-0.00048864,0.37988,0.56494,0.47019,2.0997
8.696,-0.00048864,0.33984,0.52979,0.5,2.0997
8.704,-0.00048864,0.30029,0.5498,0.53519,2.1007
8.712,-0.00048864,0.28027,0.5249,0.54985,2.1017
8.72,-0.00048864,0.22998,0.5752,0.58504,2.1026
8.728,-0.00048864,0.22998,0.52002,0.58504,2.1026
8.736,-0.00048864,0.21484,0.55518,0.59531,2.1026
8.744,-0.00048864,0.21484,0.52979,0.58993,2.1017
8.752,-0.00048864,0.22021,0.56982,0.59531,2.0997
8.76,-0.00048864,0.2251,0.53516,0.58504,2.0978
8.768,-0.00048864,0.22998,0.56006,0.58993,2.0958
8.776,-0.00048864,0.20996,0.51514,0.59531,2.0919
8.784,-0.00048864,0.22021,0.54004,0.58993,2.087
8.792,-0.00048864,0.24512,0.52979,0.58016,2.0802
8.8,-0.00048864,0.23486,0.56006,0.58504,2.0723
8.808,-0.00048864,0.22021,0.52979,0.58993,2.0626
8.816,-0.00048864,0.2251,0.51514,0.58993,2.0528
8.824,-0.00048864,0.24512,0.55518,0.57527,2.042
8.832,-0.00048864,0.29492,0.53516,0.54008,2.0293
8.84,-0.00048864,0.30029,0.60498,0.53519,2.0176
8.848,-0.00048864,0.33984,0.56982,0.50489,2.0049
8.856,-0.00048864,0.41016,0.625,0.46481,1.9922
8.864,-0.00048864,0.41992,0.60498,0.45503,1.9824
8.872,-0.00048864,0.3501,0.63477,0.49022,1.9736
8.88,-0.00048864,0.35986,0.60986,0.47996,1.9619
8.888,-0.00048864,0.30518,0.625,0.52004,1.9472
8.896,-0.00048864,0.28516,0.5498,0.54497,1.9326
8.904,-0.00048864,0.20508,0.5752,0.60508,1.9198
8.912,-0.00048864,0.1499,0.52002,0.6349,1.912
8.92,-0.00048864,0.12988,0.5249,0.65494,1.913
8.928,-0.00048864,0.12988,0.48486,0.65005,1.9267
8.936,-0.00048864,0.10498,0.5249,0.67498,1.955
8.944,-0.00048864,0.10986,0.48486,0.6652,1.999
8.952,-0.00048864,0.084961,0.51514,0.68524,2.0577
8.96,-0.00048864,0.075195,0.41016,0.69013,2.1183
8.968,-0.00048864,0.4248,0.40479,0.50978,2.1808
8.976,0.016125,1.1948,0.56494,0.064516,2.2522
8.984,0.032739,1.5,0.91504,-0.33578,2.3226
8.992,0.05375,1.4546,1.3247,-0.34555,2.3861
9,0.075006,0.18506,1.1396,0.67009,2.437
9.008,0.093574,-0.34473,0.73975,0.96041,2.4731
9.016,0.11239,-0.25,0.58008,0.89052,2.4946
9.024,0.129,-0.034668,0.52979,0.75513,2.5024
9.032,0.14586,0.02002,0.49023,0.71994,2.4995
9.04,0.1615,0.035156,0.5,0.70528,2.4868
9.048,0.17713,0.040039,0.43994,0.70528,2.4692
9.056,0.19179,0.030273,0.47021,0.70528,2.4477
9.064,0.20645,0.060059,0.41992,0.69013,2.4282
9.072,0.21842,0.055176,0.45996,0.69501,2.4096
9.08,0.23039,0.084961,0.43018,0.68035,2.3881
9.088,0.24017,0.080078,0.47021,0.68524,2.3666
9.096,0.24994,0.084961,0.43506,0.67498,2.346
9.104,0.25776,0.080078,0.46484,0.67009,2.3275
9.112,0.26582,0.10986,0.43506,0.65494,2.3109
9.12,0.27242,0.11523,0.47998,0.65005,2.2952
9.128,0.27901,0.13525,0.43994,0.6349,2.2796
9.136,0.28463,0.1499,0.47998,0.62512,2.2639
9.144,0.29025,0.17529,0.43994,0.60508,2.2483
9.152,0.29514,0.19531,0.46484,0.58993,2.2326
9.16,0.30002,0.20508,0.43994,0.58016,2.2199
9.168,0.30467,0.21484,0.47998,0.565,2.2092
9.176,0.30955,0.2251,0.43994,0.56012,2.1975
9.184,0.31444,0.2251,0.46484,0.55523,2.1857
9.192,0.31933,0.22998,0.43994,0.54008,2.1769
9.2,0.32568,0.24023,0.47998,0.54008,2.1701
9.208,0.33227,0.27002,0.49512,0.52004,2.1652
9.216,0.33985,0.2749,0.49023,0.52493,2.1632
9.224,0.34767,0.28516,0.54004,0.53519,2.1623
9.232,0.35524,0.26514,0.51514,0.56012,2.1632
9.24,0.36281,0.23486,0.55518,0.58504,2.1662
9.248,0.37039,0.2002,0.52979,0.61486,2.1691
9.256,0.37796,0.16992,0.5752,0.6349,2.172
9.264,0.38578,0.1499,0.54004,0.64516,2.175
9.272,0.39384,0.12012,0.58008,0.6652,2.1769
9.28,0.40191,0.10986,0.54004,0.67498,2.1779
9.288,0.41021,0.10498,0.56982,0.68035,2.1779
9.296,0.41754,0.10986,0.54004,0.67498,2.1769
9.304,0.42512,0.11523,0.58008,0.68035,2.174
9.312,0.43171,0.12012,0.5498,0.67009,2.1691
9.32,0.43855,0.11523,0.58496,0.67009,2.1623
9.328,0.44417,0.125,0.54492,0.6652,2.1544
9.336,0.44979,0.12988,0.58008,0.6652,2.1457
9.344,0.45443,0.12988,0.5498,0.66031,2.1359
9.352,0.45908,0.13525,0.58984,0.65494,2.1251
9.36,0.46201,0.14502,0.55518,0.64027,2.1163
9.368,0.46518,0.17529,0.6001,0.62512,2.1095
9.376,0.46689,0.21484,0.58496,0.58993,2.0997
9.384,0.4686,0.22998,0.62012,0.58504,2.088
9.392,0.46958,0.28027,0.62988,0.54497,2.0762
9.4,0.4708,0.31494,0.68018,0.52981,2.0635
9.408,0.47129,0.2749,0.64014,0.54008,2.0508
9.416,0.47178,0.27002,0.62988,0.54008,2.0381
9.424,0.47105,0.25488,0.68018,0.54985,2.0244
9.432,0.47056,0.2251,0.61475,0.57527,2.0108
9.44,0.46885,0.16016,0.625,0.62023,1.9971
9.448,0.46714,0.084961,0.5752,0.68035,1.9853
9.456,0.46494,0.060059,0.58984,0.70039,1.9775
9.464,0.46299,0.035156,0.54004,0.71505,1.9765
9.472,0.46079,0.024902,0.56006,0.72532,1.9834
9.48,0.45859,0.010254,0.5249,0.73021,2.002
9.488,0.45663,0.0048828,0.5498,0.73509,2.0332
9.496,0.45492,-0.0048828,0.50977,0.73998,2.0802
9.504,0.45321,0.084961,0.5,0.70039,2.1408
9.512,0.45175,0.5752,0.49512,0.435,2.2111
9.52,0.4493,1.3296,0.71973,-0.030303,2.2864
9.528,0.4471,1.5,1.1299,-0.27566,2.3587
9.536,0.44393,0.60986,1.3496,0.40469,2.4242
9.544,0.441,-0.34473,0.98975,0.95552,2.478
9.552,0.43733,-0.49951,0.70996,1.0552,2.5171
9.56,0.43391,-0.19482,0.56982,0.85533,2.5406
9.568,0.42951,-0.060059,0.55518,0.77028,2.5513
9.576,0.42536,-0.044922,0.49023,0.76002,2.5513
9.584,0.41925,-0.049805,0.50488,0.75513,2.5425
9.592,0.41339,-0.040039,0.47021,0.76002,2.5269
9.6,0.40557,-0.034668,0.49023,0.75024,2.5064
9.608,0.39775,-0.02002,0.46484,0.73998,2.4829
9.616,0.38798,-0.0097656,0.45508,0.73509,2.4585
9.624,0.37821,0.0048828,0.49023,0.71994,2.435
9.632,0.36672,0.015137,0.45996,0.71505,2.4125
9.64,0.35524,0.035156,0.49512,0.70528,2.392
9.648,0.34327,0.050293,0.46484,0.69501,2.3734
9.656,0.33154,0.070312,0.50977,0.68035,2.3568
9.664,0.31933,0.080078,0.47998,0.67009,2.3441
9.672,0.30711,0.10498,0.50977,0.65494,2.3324
9.68,0.29294,0.12988,0.47998,0.6349,2.3196
9.688,0.27901,0.14502,0.50977,0.62512,2.306
9.696,0.26387,0.16504,0.49023,0.60508,2.2923
9.704,0.24872,0.18018,0.51514,0.58993,2.2776
9.712,0.23552,0.2002,0.49023,0.565,2.2639
9.72,0.22233,0.20996,0.5249,0.56012,2.2512
9.728,0.2106,0.2251,0.5,0.54985,2.2405
9.736,0.19912,0.22998,0.54004,0.54497,2.2317
9.744,0.18739,0.24512,0.5249,0.53519,2.2258
9.752,0.17591,0.26514,0.58008,0.52981,2.2219
9.76,0.16418,0.26025,0.56494,0.54008,2.2209
9.768,0.1527,0.23486,0.60986,0.565,2.2229
9.776,0.14219,0.18994,0.58984,0.6002,2.2248
9.784,0.13169,0.14014,0.62012,0.64027,2.2278
9.792,0.12216,0.1001,0.6001,0.6652,2.2317
9.8,0.11288,0.070312,0.61475,0.68524,2.2346
9.808,0.10506,0.050293,0.59521,0.69501,2.2375
9.816,0.097484,0.035156,0.60986,0.71505,2.2395
9.824,0.090887,0.035156,0.62012,0.71017,2.2405
9.832,0.08429,0.035156,0.58984,0.71505,2.2395
9.84,0.076472,0.030273,0.62012,0.71017,2.2375
9.848,0.068654,0.030273,0.58496,0.71505,2.2336
9.856,0.059858,0.035156,0.625,0.71017,2.2297
9.864,0.051063,0.035156,0.58984,0.70528,2.2258
9.872,0.042756,0.040039,0.625,0.70528,2.2219
9.88,0.034693,0.044922,0.59521,0.70528,2.216
9.888,0.026631,0.050293,0.625,0.70039,2.2092
9.896,0.018813,0.080078,0.6001,0.68035,2.2023
9.904,0.0090398,0.13525,0.6499,0.64027,2.1945
9.912,-0.00048864,0.16016,0.62988,0.60997,2.1867
9.92,-0.00048864,0.2002,0.6748,0.58504,2.1789
9.928,-0.00048864,0.23486,0.66504,0.565,2.1711
9.936,-0.00048864,0.24023,0.7002,0.56012,2.1632
9.944,-0.00048864,0.17529,0.65479,0.58016,2.1544
9.952,-0.00048864,0.18018,0.7002,0.58993,2.1457
9.96,-0.00048864,0.14502,0.64014,0.6002,2.1378
9.968,-0.00048864,0.11523,0.66016,0.63001,2.131
9.976,-0.00048864,0.050293,0.60986,0.68035,2.1222
9.984,-0.00048864,0,0.61475,0.72532,2.1124
9.992,-0.00048864,-0.029785,0.56982,0.74536,2.1046
10,-0.00048864,-0.034668,0.58008,0.75513,2.1017
10.008,-0.00048864,-0.044922,0.5498,0.75513,2.1065
10.016,-0.00048864,-0.049805,0.5752,0.7654,2.1232
10.024,-0.00048864,-0.054688,0.58008,0.77028,2.1525
10.032,-0.00048864,-0.060059,0.54004,0.77517,2.1965
10.04,-0.00048864,0.14502,0.53516,0.67009,2.2532
10.048,-0.00048864,0.75488,0.63477,0.29472,2.3187
10.056,-0.00048864,1.395,0.8999,-0.12023,2.3881
10.064,-0.00048864,1.5,1.3447,-0.21065,2.4477
10.072,-0.00048864,-0.044922,1.355,0.77028,2.4985
10.08,-0.00048864,-0.49951,0.81494,1.0855,2.5474
10.088,-0.00048864,-0.33984,0.66016,0.95015,2.5875
10.096,-0.00048864,-0.10498,0.58496,0.79521,2.6158
10.104,-0.00048864,-0.074707,0.56982,0.77517,2.6315
10.112,-0.00048864,-0.069824,0.51514,0.77028,2.6364
10.12,-0.00048864,-0.064941,0.53516,0.77028,2.6325
10.128,-0.00048864,-0.054688,0.49023,0.76002,2.6227
10.136,-0.00048864,-0.044922,0.52002,0.75513,2.608
10.144,-0.00048864,-0.034668,0.49023,0.75024,2.5924
10.152,-0.00048864,-0.02002,0.52002,0.74536,2.5758
10.16,-0.00048864,-0.0097656,0.49023,0.73021,2.5611
10.168,-0.00048864,0.010254,0.5249,0.71994,2.5953
10.176,-0.00048864,0.024902,0.49512,0.70528,2.6491
10.184,-0.00048864,0.044922,0.52979,0.69501,2.6637
10.192,-0.00048864,0.070312,0.50488,0.68035,2.6598
10.2,-0.00048864,0.084961,0.53516,0.66031,2.6481
10.208,-0.00048864,0.10986,0.50977,0.64516,2.6305
10.216,-0.00048864,0.13525,0.53516,0.63001,2.608
10.224,-0.00048864,0.16016,0.54004,0.60997,2.5826
10.232,-0.00048864,0.18018,0.50977,0.58993,2.5533
10.24,-0.00048864,0.20508,0.54004,0.565,2.52
10.248,-0.00048864,0.22998,0.50488,0.54497,2.4848
10.256,-0.00048864,0.24512,0.54004,0.52981,2.4536
10.264,-0.00048864,0.26025,0.50977,0.52004,2.4262
10.272,-0.00048864,0.2749,0.5498,0.50978,2.3891
10.28,-0.00048864,0.29004,0.52979,0.5,2.3568
10.288,-0.00048864,0.29492,0.58496,0.51515,2.3343
10.296,-0.00048864,0.27002,0.56982,0.52981,2.3128
10.304,-0.00048864,0.22998,0.61475,0.565,2.2952
10.312,-0.00048864,0.18018,0.59521,0.6002,2.2825
10.32,-0.00048864,0.14014,0.625,0.64027,2.2747
10.328,-0.00048864,0.10498,0.59521,0.6652,2.2708
10.336,-0.00048864,0.080078,0.62012,0.68524,2.2708
10.344,-0.00048864,0.070312,0.58008,0.68524,2.2717
10.352,-0.00048864,0.055176,0.62012,0.70039,2.2708
10.36,-0.00048864,0.060059,0.58008,0.69501,2.2698
10.368,-0.00048864,0.055176,0.62012,0.70039,2.2678
10.376,-0.00048864,0.060059,0.58008,0.69013,2.2659
10.384,-0.00048864,0.064941,0.62012,0.68524,2.263
10.392,-0.00048864,0.070312,0.58496,0.69501,2.2561
10.4,-0.00048864,0.080078,0.62012,0.68524,2.2454
10.408,-0.00048864,0.084961,0.58984,0.68035,2.2317
10.416,-0.00048864,0.090332,0.61475,0.68524,2.216
10.424,-0.00048864,0.080078,0.62012,0.68524,2.1926
10.432,-0.00048864,0.10986,0.58496,0.66031,2.1711
10.44,-0.00048864,0.16504,0.63477,0.62023,2.1535
10.448,-0.00048864,0.2002,0.625,0.59531,2.132
10.456,-0.00048864,0.22998,0.66016,0.56989,2.1085
10.464,-0.00048864,0.2749,0.64014,0.54008,2.0899
10.472,-0.00048864,0.29004,0.7002,0.53519,2.0733
10.48,-0.00048864,0.2251,0.64502,0.55523,2.0528
10.488,-0.00048864,0.22021,0.68018,0.56012,2.0225
10.496,-0.00048864,0.18994,0.625,0.58016,1.9941
10.504,-0.00048864,0.15527,0.64014,0.61486,1.9726
10.512,-0.00048864,0.1001,0.58984,0.66031,1.9492
10.52,-0.00048864,0.064941,0.60986,0.68524,1.9277
10.528,-0.00048864,0.050293,0.56006,0.68524,1.914
10.536,-0.00048864,0.040039,0.58496,0.70039,1.9169
10.544,-0.00048864,0.035156,0.54492,0.70039,1.9443
10.552,-0.00048864,0.024902,0.58008,0.70528,2.002
10.56,-0.00048864,0.030273,0.53516,0.70528,2.0762
10.568,-0.00048864,0.024902,0.5498,0.71505,2.172
10.576,-0.00048864,0.20996,0.50488,0.62023,2.304
10.584,-0.00048864,0.75,0.62988,0.28006,2.4594
10.592,-0.00048864,1.3696,0.84473,-0.14565,2.6237
10.6,-0.00048864,1.5,1.3599,-0.24536,2.784
10.608,-0.00048864,0.15527,1.3647,0.65005,2.9277
10.616,-0.00048864,-0.42969,0.83008,1.0152,3.0538
10.624,-0.00048864,-0.25977,0.625,0.90518,3.1466
10.632,-0.00048864,-0.034668,0.59521,0.75024,3.1955
10.64,-0.00048864,0.0048828,0.54004,0.72532,3.217
10.648,-0.00048864,0.010254,0.51514,0.73021,3.216
10.656,-0.00048864,0,0.52979,0.72532,3.2004
10.664,-0.00048864,0.015137,0.49023,0.71505,3.176
10.672,-0.00048864,0.02002,0.52002,0.71017,3.1437
10.68,-0.00048864,0.035156,0.48486,0.70039,3.0978
10.688,-0.00048864,0.050293,0.52002,0.69013,3.0567
10.696,-0.00048864,0.064941,0.48486,0.68035,3.0293
10.704,-0.00048864,0.080078,0.52002,0.67009,3.002
10.712,-0.00048864,0.1001,0.48486,0.66031,2.9726
10.72,-0.00048864,0.11523,0.52002,0.64516,2.9482
10.728,-0.00048864,0.14014,0.49512,0.6349,2.9306
10.736,-0.00048864,0.1499,0.52979,0.62512,2.911
10.744,-0.00048864,0.16992,0.49512,0.60997,2.8807
10.752,-0.00048864,0.18506,0.52979,0.59531,2.8456
10.76,-0.00048864,0.21484,0.49023,0.56989,2.8231
10.768,-0.00048864,0.23486,0.5249,0.54985,2.8025
10.776,-0.00048864,0.25,0.48486,0.53519,2.7722
10.784,-0.00048864,0.26514,0.52002,0.52981,2.737
10.792,-0.00048864,0.2749,0.48486,0.51515,2.6979
10.8,-0.00048864,0.29004,0.52002,0.50489,2.6588
10.808,-0.00048864,0.31006,0.49512,0.49511,2.6139
10.816,-0.00048864,0.31982,0.53516,0.49022,2.5758
10.824,-0.00048864,0.31006,0.5498,0.50978,2.5503
10.832,-0.00048864,0.26025,0.52979,0.56012,2.5279
10.84,-0.00048864,0.20508,0.55518,0.61486,2.5073
10.848,-0.00048864,0.15527,0.52002,0.66031,2.4927
10.856,-0.00048864,0.10498,0.55518,0.70528,2.4839
10.864,-0.00048864,0.064941,0.52002,0.73509,2.478
10.872,-0.00048864,0.035156,0.5498,0.75513,2.4712
10.88,-0.00048864,0.02002,0.50977,0.77028,2.4633
10.888,-0.00048864,0.010254,0.5498,0.78006,2.4585
10.896,-0.00048864,0.010254,0.51514,0.78006,2.4545
10.904,-0.00048864,0,0.54492,0.79032,2.4487
10.912,-0.00048864,0.0048828,0.51514,0.78543,2.4428
10.92,-0.00048864,0.010254,0.54492,0.78006,2.4379
10.928,-0.00048864,0.015137,0.50977,0.77517,2.4301
10.936,-0.00048864,0.015137,0.54004,0.78006,2.4145
10.944,-0.00048864,0.024902,0.50977,0.77517,2.3978
10.952,-0.00048864,0.030273,0.54004,0.77517,2.3851
10.96,-0.00048864,0.024902,0.5,0.77028,2.3724
10.968,-0.00048864,0.02002,0.52979,0.77517,2.3529
10.976,-0.00048864,0.044922,0.50488,0.76002,2.3333
10.984,-0.00048864,0.1001,0.56494,0.71994,2.3177
10.992,-0.00048864,0.14014,0.53516,0.68524,2.2981
11,-0.00048864,0.16016,0.58496,0.6652,2.2698
11.008,-0.00048864,0.20996,0.59521,0.6349,2.2366
11.016,-0.00048864,0.22021,0.61475,0.63001,2.2141
11.024,-0.00048864,0.18018,0.5752,0.64027,2.1955
11.032,-0.00048864,0.19531,0.6001,0.6349,2.1711
11.04,-0.00048864,0.15527,0.5498,0.65494,2.1427
11.048,-0.00048864,0.12012,0.52979,0.69501,2.1144
11.056,-0.00048864,0.055176,0.5498,0.73998,2.0929
11.064,-0.00048864,0,0.49023,0.78543,2.085
11.072,-0.00048864,-0.034668,0.52002,0.8001,2.0841
11.08,-0.00048864,-0.034668,0.47021,0.81036,2.0968
11.088,-0.00048864,-0.040039,0.49512,0.81036,2.1398
11.096,-0.00048864,-0.040039,0.45996,0.80499,2.2581
11.104,-0.00048864,-0.040039,0.49023,0.81036,2.391
11.112,-0.00048864,-0.034668,0.4248,0.81525,2.5034
11.12,-0.00048864,0.1499,0.43994,0.71505,2.651
11.128,-0.00048864,0.72998,0.50977,0.35973,2.8514
11.136,-0.00048864,1.3696,0.7998,-0.060606,3.0596
11.144,-0.00048864,1.5,1.2598,-0.17058,3.1926
11.152,-0.00048864,0.22021,1.2847,0.69013,3.2776
11.16,-0.00048864,-0.4248,0.75,1.0606,3.3412
11.168,-0.00048864,-0.44971,0.56494,1.0704,3.3812
11.176,-0.00048864,-0.11475,0.47998,0.84506,3.4057
11.184,-0.00048864,-0.044922,0.46484,0.8001,3.4125
11.192,-0.00048864,-0.029785,0.41016,0.78543,3.3939
11.2,-0.00048864,-0.024902,0.43018,0.79032,3.3675
11.208,-0.00048864,-0.029785,0.39502,0.77517,3.3451
11.216,-0.00048864,-0.014648,0.39014,0.77517,3.3157
11.224,-0.00048864,0.015137,0.41016,0.75513,3.2757
11.232,-0.00048864,0.02002,0.39502,0.75024,3.2405
11.24,-0.00048864,0.035156,0.41992,0.73509,3.2151
11.248,-0.00048864,0.055176,0.39014,0.72532,3.1906
11.256,-0.00048864,0.075195,0.4248,0.70528,3.1623
11.264,-0.00048864,0.095215,0.40479,0.69501,3.132
11.272,-0.00048864,0.1001,0.43994,0.68524,3.1114
11.28,-0.00048864,0.12012,0.3999,0.67009,3.0948
11.288,-0.00048864,0.14014,0.43506,0.65494,3.0743
11.296,-0.00048864,0.16016,0.41504,0.6349,3.0401
11.304,-0.00048864,0.18506,0.44482,0.62023,3.0068
11.312,-0.00048864,0.20508,0.41504,0.6002,2.9804
11.32,-0.00048864,0.24023,0.43994,0.57527,2.9374
11.328,-0.00048864,0.25488,0.41016,0.56012,2.8964
11.336,-0.00048864,0.26514,0.4502,0.54497,2.8671
11.344,-0.00048864,0.28027,0.4248,0.53519,2.8348
11.352,-0.00048864,0.29004,0.45996,0.52493,2.8006
11.36,-0.00048864,0.31494,0.4502,0.50489,2.7732
11.368,-0.00048864,0.33496,0.50977,0.50978,2.7546
11.376,-0.00048864,0.33984,0.48486,0.52004,2.738
11.384,-0.00048864,0.31006,0.5249,0.54008,2.7224
11.392,-0.00048864,0.27002,0.50977,0.56989,2.7087
11.4,-0.00048864,0.22021,0.53516,0.61486,2.7009
11.408,-0.00048864,0.19531,0.48486,0.6349,2.696
11.416,-0.00048864,0.16992,0.5249,0.65005,2.6891
11.424,-0.00048864,0.1499,0.50488,0.66031,2.6833
11.432,-0.00048864,0.13525,0.5249,0.67498,2.6794
11.44,-0.00048864,0.14502,0.52979,0.6652,2.6735
11.448,-0.00048864,0.1499,0.50488,0.66031,2.6628
11.456,-0.00048864,0.13525,0.52979,0.67009,2.653
11.464,-0.00048864,0.14502,0.50488,0.6652,2.6442
11.472,-0.00048864,0.1499,0.5249,0.65494,2.6325
11.48,-0.00048864,0.1499,0.5,0.65005,2.6139
11.488,-0.00048864,0.16992,0.54004,0.64516,2.5963
11.496,-0.00048864,0.16992,0.50977,0.64027,2.5758
11.504,-0.00048864,0.16504,0.53516,0.64516,2.5484
11.512,-0.00048864,0.15527,0.50488,0.64027,2.522
11.52,-0.00048864,0.16016,0.54004,0.65005,2.5024
11.528,-0.00048864,0.18018,0.52002,0.63001,2.48
11.536,-0.00048864,0.20996,0.55518,0.60997,2.4497
11.544,-0.00048864,0.26025,0.5498,0.57527,2.4203
11.552,-0.00048864,0.2749,0.5752,0.56012,2.3939
11.56,-0.00048864,0.33008,0.56006,0.52493,2.3695
11.568,-0.00048864,0.3501,0.6499,0.51515,2.349
11.576,-0.00048864,0.31494,0.59521,0.52004,2.3216
11.584,-0.00048864,0.3252,0.63477,0.51515,2.2835
11.592,-0.00048864,0.31006,0.59521,0.52004,2.2502
11.6,-0.00048864,0.27002,0.58008,0.55523,2.2268
11.608,-0.00048864,0.23486,0.54004,0.58504,2.217
11.616,-0.00048864,0.15527,0.52979,0.6349,2.2278
11.624,-0.00048864,0.125,0.5,0.66031,2.2688
11.632,-0.00048864,0.10498,0.50488,0.67498,2.3441
11.64,-0.00048864,0.090332,0.48486,0.68524,2.4555
11.648,-0.00048864,0.080078,0.47998,0.69501,2.5748
11.656,-0.00048864,0.084961,0.50488,0.69013,2.7038
11.664,-0.00048864,0.064941,0.46484,0.70039,2.8612
11.672,-0.00048864,0.12988,0.4248,0.70528,3.0274
11.68,-0.00048864,0.58008,0.41504,0.43011,3.1857
11.688,-0.00048864,1.3496,0.64502,-0.050342,3.3236
11.696,-0.00048864,1.5,1.0498,-0.34066,3.4321
11.704,-0.00048864,0.98975,1.2998,0.20479,3.5073
11.712,-0.00048864,-0.024902,0.98975,0.79521,3.5503
11.72,-0.00048864,-0.36475,0.66504,0.97019,3.566
11.728,-0.00048864,-0.15967,0.52002,0.83529,3.5572
11.736,-0.00048864,0.0048828,0.52979,0.72532,3.5318
11.744,-0.00048864,0.050293,0.43994,0.70039,3.4946
11.752,-0.00048864,0.050293,0.45996,0.70039,3.4536
11.76,-0.00048864,0.060059,0.41504,0.68524,3.4106
11.768,-0.00048864,0.060059,0.44482,0.68524,3.3656
11.776,-0.00048864,0.075195,0.41504,0.68035,3.3206
11.784,-0.00048864,0.080078,0.4502,0.67498,3.2786
11.792,-0.00048864,0.1001,0.41504,0.66031,3.2414
11.8,-0.00048864,0.10986,0.45508,0.65494,3.2072
11.808,-0.00048864,0.12988,0.43018,0.6349,3.176
11.816,-0.00048864,0.13525,0.46484,0.6349,3.1447
11.824,-0.00048864,0.15527,0.43506,0.61486,3.1124
11.832,-0.00048864,0.17529,0.46484,0.6002,3.0792
11.84,-0.00048864,0.18994,0.47021,0.58993,3.044
11.848,-0.00048864,0.20996,0.44482,0.57527,3.0088
11.856,-0.00048864,0.22998,0.47998,0.56012,2.9746
11.864,-0.00048864,0.24512,0.44482,0.54008,2.9374
11.872,-0.00048864,0.27002,0.48486,0.52004,2.8993
11.88,-0.00048864,0.28516,0.45508,0.50489,2.8631
11.888,-0.00048864,0.30518,0.49512,0.49022,2.8299
11.896,-0.00048864,0.31006,0.4502,0.47996,2.8006
11.904,-0.00048864,0.31494,0.49023,0.47019,2.7761
11.912,-0.00048864,0.33008,0.46484,0.46481,2.7566
11.92,-0.00048864,0.3501,0.5249,0.45503,2.741
11.928,-0.00048864,0.36523,0.50488,0.45992,2.7283
11.936,-0.00048864,0.37012,0.5498,0.47019,2.7185
11.944,-0.00048864,0.3252,0.53516,0.50489,2.7097
11.952,-0.00048864,0.29004,0.58008,0.53519,2.6999
11.96,-0.00048864,0.25488,0.54492,0.56012,2.6901
11.968,-0.00048864,0.2251,0.58008,0.58504,2.6804
11.976,-0.00048864,0.20996,0.5498,0.59531,2.6696
11.984,0.0041534,0.18506,0.58496,0.61486,2.6569
11.992,0.0090398,0.17529,0.55518,0.61486,2.6422
12,0.022477,0.17529,0.58984,0.61486,2.6276
12.008,0.035915,0.16992,0.55518,0.61486,2.6119
12.016,0.047642,0.17529,0.59521,0.61486,2.5943
12.024,0.059614,0.16504,0.56982,0.62023,2.5738
12.032,0.069875,0.17529,0.59521,0.61486,2.5503
12.04,0.080381,0.18018,0.56494,0.61486,2.5239
12.048,0.088932,0.17529,0.56006,0.61486,2.4995
12.056,0.097728,0.18018,0.58984,0.60997,2.4751
12.064,0.10506,0.18506,0.55518,0.60508,2.4457
12.072,0.11263,0.17529,0.6001,0.60997,2.4145
12.08,0.11898,0.18506,0.56494,0.60508,2.3822
12.088,0.12534,0.19531,0.60498,0.6002,2.3509
12.096,0.13071,0.22998,0.5752,0.57527,2.3196
12.104,0.13633,0.26514,0.62988,0.54497,2.2874
12.112,0.14097,0.28027,0.60498,0.53519,2.2542
12.12,0.14586,0.33008,0.66992,0.5,2.2199
12.128,0.15001,0.37012,0.66016,0.47507,2.1848
12.136,0.15441,0.31982,0.68994,0.49511,2.1476
12.144,0.15856,0.31494,0.66016,0.49511,2.1173
12.152,0.16272,0.29492,0.68506,0.52004,2.0919
12.16,0.16687,0.25,0.60498,0.54985,2.0694
12.168,0.17102,0.18506,0.625,0.60508,2.0606
12.176,0.17518,0.12012,0.55518,0.65005,2.0743
12.184,0.17933,0.080078,0.58008,0.68035,2.1212
12.192,0.18324,0.070312,0.52979,0.68524,2.2043
12.2,0.18739,0.055176,0.56006,0.70039,2.3245
12.208,0.19057,0.050293,0.52002,0.70039,2.2903
12.216,0.19399,0.044922,0.5498,0.70528,2.1935
12.224,0.19668,0.035156,0.49512,0.71017,2.2581
12.232,0.19961,0.14014,0.4751,0.67009,2.392
12.24,0.20156,0.6499,0.53516,0.37977,2.5415
12.248,0.20352,1.4097,0.74512,-0.095308,2.6598
12.256,0.2045,1.5,1.1797,-0.29081,2.7449
12.264,0.20572,0.625,1.335,0.3998,2.8113
12.272,0.20621,-0.2749,0.95996,0.92522,2.8485
12.28,0.20694,-0.44482,0.66504,1.0152,2.8553
12.288,0.20694,-0.16992,0.5752,0.83529,2.8368
12.296,0.20694,-0.040039,0.53516,0.74536,2.7986
12.304,0.20425,-0.02002,0.54004,0.73509,2.7478
12.312,0.20181,-0.0097656,0.48486,0.73021,2.6882
12.32,0.19717,-0.0097656,0.50488,0.73021,2.6256
12.328,0.19252,0.0048828,0.46484,0.71505,2.564
12.336,0.18593,0.015137,0.5,0.71017,2.5064
12.344,0.17933,0.035156,0.46484,0.70039,2.4555
12.352,0.17151,0.044922,0.5,0.69013,2.4106
12.36,0.16394,0.060059,0.47021,0.68035,2.3666
12.368,0.15612,0.075195,0.50488,0.67009,2.3236
12.376,0.14855,0.084961,0.4751,0.66031,2.2805
12.384,0.14097,0.1001,0.52002,0.65005,2.2375
12.392,0.1334,0.12012,0.49023,0.63001,2.1926
12.4,0.12534,0.14014,0.52979,0.62023,2.1457
12.408,0.11727,0.16016,0.49512,0.60508,2.0958
12.416,0.10897,0.17529,0.52979,0.58993,2.044
12.424,0.1009,0.19531,0.5,0.56989,1.9951
12.432,0.094796,0.20996,0.5249,0.56012,1.9492
12.44,0.088688,0.22998,0.50488,0.54497,1.9081
12.448,0.084535,0.24512,0.53516,0.54008,1.8739
12.456,0.080381,0.25,0.54004,0.52004,1.8475
12.464,0.077449,0.26025,0.51514,0.51515,1.824
12.472,0.074762,0.27002,0.56006,0.52004,1.8045
12.48,0.073052,0.28516,0.54004,0.50978,1.7889
12.488,0.071586,0.28027,0.59521,0.52004,1.7771
12.496,0.071097,0.25488,0.5752,0.54008,1.7664
12.504,0.070608,0.21484,0.61475,0.58016,1.7556
12.512,0.071097,0.16992,0.58984,0.60997,1.7439
12.52,0.07183,0.13525,0.625,0.6349,1.7312
12.528,0.073052,0.10498,0.6001,0.66031,1.7165
12.536,0.074273,0.080078,0.625,0.67498,1.6979
12.544,0.075739,0.080078,0.6001,0.68035,1.6794
12.552,0.077205,0.070312,0.62012,0.68524,1.6618
12.56,0.076961,0.064941,0.58984,0.68524,1.6403
12.568,0.076961,0.064941,0.625,0.69013,1.6139
12.576,0.075739,0.070312,0.6001,0.68524,1.5855
12.584,0.074517,0.064941,0.62988,0.68524,1.5562
12.592,0.073296,0.070312,0.60498,0.68524,1.5259
12.6,0.072074,0.070312,0.64014,0.68524,1.4956
12.608,0.070364,0.080078,0.6001,0.68035,1.4653
12.616,0.068898,0.080078,0.625,0.67498,1.434
12.624,0.064745,0.080078,0.60498,0.68035,1.4008
12.632,0.060836,0.080078,0.63477,0.67498,1.3666
12.64,0.054483,0.084961,0.61475,0.68035,1.3314
12.648,0.048375,0.125,0.60986,0.65005,1.3011
12.656,0.041046,0.16992,0.66016,0.60997,1.2727
12.664,0.03396,0.18994,0.64502,0.58993,1.2395
12.672,0.026387,0.22998,0.69482,0.565,1.2053
12.68,0.018813,0.26514,0.68018,0.54008,1.1681
12.688,0.012705,0.22998,0.72998,0.54985,1.129
12.696,0.006841,0.2251,0.6748,0.55523,1.0899
12.704,0.0031761,0.21484,0.71973,0.56012,1.0528
12.712,-0.00048864,0.18018,0.65479,0.58016,1.0225
12.72,-0.00048864,0.14014,0.6748,0.62023,1.0088
12.728,-0.00048864,0.060059,0.625,0.68035,1.0205
12.736,-0.00048864,0.02002,0.63477,0.70528,1.0684
12.744,-0.00048864,0.0048828,0.58984,0.71994,1.1398
12.752,-0.00048864,-0.0048828,0.60986,0.73021,1.2424
12.76,-0.00048864,-0.0097656,0.5752,0.73021,1.392
12.768,-0.00048864,-0.0097656,0.60498,0.73509,1.5787
12.776,-0.00048864,-0.014648,0.56982,0.73998,1.7889
12.784,-0.00048864,-0.02002,0.56494,0.74536,2.0049
12.792,-0.00048864,0.28516,0.54492,0.58016,2.2092
12.8,-0.00048864,0.93994,0.69482,0.1696,2.3871
12.808,-0.00048864,1.5,0.98975,-0.22043,2.5318
12.816,-0.00048864,1.0049,1.395,0.1349,2.6393
12.824,-0.00048864,-0.13965,1.125,0.82502,2.7077
12.832,-0.00048864,-0.49463,0.7998,1.0406,2.7429
12.84,-0.00048864,-0.23486,0.64014,0.88025,2.7507
12.848,-0.00048864,-0.060059,0.625,0.76002,2.738
12.856,-0.00048864,-0.029785,0.56982,0.73998,2.7107
12.864,-0.00048864,-0.029785,0.5498,0.74536,2.6725
12.872,-0.00048864,-0.02002,0.56494,0.73021,2.6295
12.88,-0.00048864,-0.0097656,0.5249,0.73021,2.5836
12.888,-0.00048864,0,0.55518,0.71994,2.5386
12.896,-0.00048864,0.010254,0.5249,0.71017,2.4956
12.904,-0.00048864,0.024902,0.55518,0.70528,2.4565
12.912,-0.00048864,0.044922,0.5249,0.69013,2.4203
12.92,-0.00048864,0.064941,0.55518,0.68035,2.3851
12.928,-0.00048864,0.080078,0.5249,0.6652,2.3509
12.936,-0.00048864,0.10498,0.56006,0.65494,2.3148
12.944,-0.00048864,0.12012,0.53516,0.6349,2.2796
12.952,-0.00048864,0.14014,0.56982,0.63001,2.2424
12.96,-0.00048864,0.16992,0.54492,0.60508,2.1994
12.968,-0.00048864,0.18506,0.56982,0.58993,2.1505
12.976,-0.00048864,0.20508,0.54004,0.56989,2.0987
12.984,-0.00048864,0.2251,0.5752,0.55523,2.045
12.992,-0.00048864,0.25,0.54004,0.52981,1.9922
13,-0.00048864,0.26514,0.56982,0.52004,1.9413
13.008,-0.00048864,0.2749,0.54492,0.50489,1.8944
13.016,-0.00048864,0.29004,0.5752,0.49511,1.8543
13.024,-0.00048864,0.30029,0.56006,0.48485,1.8211
13.032,-0.00048864,0.31494,0.60986,0.47996,1.7937
13.04,-0.00048864,0.31982,0.6001,0.48485,1.7713
13.048,-0.00048864,0.29492,0.63477,0.50978,1.7546
13.056,-0.00048864,0.25488,0.64014,0.54008,1.741
13.064,-0.00048864,0.20996,0.61475,0.58016,1.7273
13.072,-0.00048864,0.16504,0.64502,0.61486,1.7126
13.08,-0.00048864,0.13525,0.60986,0.64027,1.696
13.088,-0.00048864,0.10498,0.6499,0.65494,1.6784
13.096,-0.00048864,0.090332,0.62012,0.6652,1.6588
13.104,-0.00048864,0.084961,0.6499,0.67498,1.6383
13.112,-0.00048864,0.084961,0.61475,0.67009,1.6178
13.12,-0.00048864,0.084961,0.64502,0.67498,1.5953
13.128,-0.00048864,0.090332,0.62012,0.6652,1.5718
13.136,-0.00048864,0.095215,0.64502,0.6652,1.5474
13.144,-0.00048864,0.1001,0.62012,0.6652,1.5249
13.152,-0.00048864,0.1001,0.64502,0.66031,1.5024
13.16,-0.00048864,0.10498,0.62012,0.66031,1.4741
13.168,-0.00048864,0.10986,0.6499,0.66031,1.4418
13.176,-0.00048864,0.10986,0.61475,0.66031,1.4066
13.184,-0.00048864,0.11523,0.6499,0.65494,1.3695
13.192,-0.00048864,0.125,0.62012,0.64516,1.3333
13.2,-0.00048864,0.12012,0.6499,0.65005,1.2972
13.208,-0.00048864,0.12012,0.60986,0.65005,1.262
13.216,-0.00048864,0.10986,0.64502,0.65005,1.2278
13.224,-0.00048864,0.125,0.62012,0.6349,1.1926
13.232,-0.00048864,0.16504,0.66016,0.60997,1.1554
13.24,-0.00048864,0.22021,0.65479,0.56989,1.1153
13.248,-0.00048864,0.24512,0.68018,0.54985,1.0831
13.256,-0.00048864,0.2749,0.6748,0.52493,1.0547
13.264,-0.00048864,0.28516,0.70508,0.52004,1.0235
13.272,-0.00048864,0.26025,0.68018,0.52493,1
13.28,-0.00048864,0.23486,0.6748,0.53519,0.99609
13.288,-0.00048864,0.21484,0.68506,0.54497,1.0235
13.296,-0.00048864,0.18018,0.62988,0.58504,1.0919
13.304,-0.00048864,0.12012,0.66504,0.64027,1.2053
13.312,-0.00048864,0.064941,0.60986,0.68035,1.3627
13.32,-0.00048864,0.044922,0.625,0.70039,1.5582
13.328,-0.00048864,0.040039,0.58008,0.70528,1.7761
13.336,-0.00048864,0.035156,0.60498,0.70528,2.002
13.344,-0.00048864,0.035156,0.56982,0.70528,2.1926
13.352,-0.00048864,0.030273,0.59521,0.71994,2.3509
13.36,-0.00048864,0.030273,0.54492,0.71505,2.5015
13.368,-0.00048864,0.13525,0.55518,0.67498,2.6256
13.376,-0.00048864,0.59521,0.59521,0.39003,2.7146
13.384,-0.00048864,1.25,0.81006,-0.060606,2.7703
13.392,-0.00048864,1.5,1.2349,-0.23558,2.7947
13.4,-0.00048864,0.44482,1.3696,0.47019,2.7937
13.408,-0.00048864,-0.32959,0.9248,0.96041,2.7732
13.416,-0.00048864,-0.41455,0.70508,1.0054,2.74
13.424,-0.00048864,-0.064941,0.60986,0.77028,2.6999
13.432,-0.00048864,0.010254,0.6001,0.72532,2.6569
13.44,-0.00048864,0.024902,0.54004,0.71505,2.6139
13.448,-0.00048864,0.030273,0.5498,0.71017,2.5748
13.456,-0.00048864,0.035156,0.51514,0.70528,2.5376
13.464,-0.00048864,0.040039,0.53516,0.70039,2.5034
13.472,-0.00048864,0.050293,0.54492,0.68524,2.4702
13.48,-0.00048864,0.064941,0.50977,0.68524,2.4379
13.488,-0.00048864,0.080078,0.54004,0.67498,2.4027
13.496,-0.00048864,0.095215,0.50977,0.66031,2.3636
13.504,-0.00048864,0.10986,0.55518,0.65005,2.3196
13.512,-0.00048864,0.13525,0.50977,0.6349,2.2698
13.52,-0.00048864,0.1499,0.5498,0.62512,2.2141
13.528,-0.00048864,0.16504,0.51514,0.61486,2.1535
13.536,-0.00048864,0.18506,0.55518,0.6002,2.0899
13.544,-0.00048864,0.20996,0.5249,0.58016,2.0332
13.552,-0.00048864,0.22998,0.5498,0.565,1.9804
13.56,-0.00048864,0.25488,0.51514,0.54008,1.9267
13.568,-0.00048864,0.2749,0.5498,0.52004,1.8759
13.576,-0.00048864,0.29492,0.52002,0.5,1.8309
13.584,-0.00048864,0.31006,0.55518,0.49511,1.7937
13.592,-0.00048864,0.31982,0.52002,0.47507,1.7625
13.6,-0.00048864,0.33008,0.56494,0.47019,1.737
13.608,-0.00048864,0.33984,0.54004,0.45503,1.7146
13.616,-0.00048864,0.3501,0.59521,0.45992,1.696
13.624,-0.00048864,0.35498,0.5752,0.46481,1.6784
13.632,-0.00048864,0.31982,0.61475,0.5,1.6618
13.64,-0.00048864,0.28027,0.58984,0.52981,1.6461
13.648,-0.00048864,0.23486,0.62012,0.56989,1.6325
13.656,-0.00048864,0.19531,0.58984,0.58993,1.6188
13.664,-0.00048864,0.16504,0.60986,0.61486,1.6012
13.672,-0.00048864,0.1499,0.62012,0.6349,1.5806
13.68,-0.00048864,0.12988,0.58496,0.64516,1.5572
13.688,-0.00048864,0.12988,0.62012,0.65005,1.5318
13.696,-0.00048864,0.12988,0.58496,0.64516,1.5044
13.704,-0.00048864,0.125,0.62012,0.65494,1.477
13.712,-0.00048864,0.12988,0.58008,0.64027,1.4477
13.72,-0.00048864,0.14014,0.61475,0.64516,1.4154
13.728,-0.00048864,0.14502,0.58008,0.6349,1.3832
13.736,-0.00048864,0.14502,0.60498,0.6349,1.349
13.744,-0.00048864,0.1499,0.58008,0.6349,1.3196
13.752,-0.00048864,0.1499,0.60498,0.6349,1.2933
13.76,-0.00048864,0.15527,0.58008,0.63001,1.262
13.768,-0.00048864,0.15527,0.60498,0.63001,1.2258
13.776,-0.00048864,0.16016,0.5752,0.63001,1.1896
13.784,-0.00048864,0.15527,0.60498,0.6349,1.1535
13.792,-0.00048864,0.1499,0.5752,0.63001,1.1173
13.8,-0.00048864,0.1499,0.61475,0.6349,1.0821
13.808,-0.00048864,0.1499,0.58008,0.63001,1.045
13.816,-0.00048864,0.14014,0.60986,0.6349,1.0068
13.824,-0.00048864,0.14014,0.5752,0.6349,0.96676
13.832,-0.00048864,0.14014,0.60498,0.6349,0.92766
13.84,-0.00048864,0.15527,0.58008,0.62512,0.89932
13.848,-0.00048864,0.21484,0.64014,0.58504,0.8827
13.856,-0.00048864,0.24023,0.625,0.565,0.87683
13.864,-0.00048864,0.2749,0.66016,0.54008,0.89345
13.872,-0.00048864,0.33496,0.6748,0.49511,0.94721
13.88,-0.00048864,0.34521,0.68018,0.48485,1.0459
13.888,-0.00048864,0.30518,0.66504,0.5,1.1935
13.896,-0.00048864,0.31006,0.65479,0.49511,1.3851
13.904,-0.00048864,0.25,0.61475,0.52981,1.6119
13.912,-0.00048864,0.22021,0.59521,0.565,1.8573
13.92,-0.00048864,0.14502,0.625,0.62512,2.1026
13.928,-0.00048864,0.10498,0.56982,0.66031,2.3284
13.936,0.011483,0.084961,0.58008,0.67009,2.522
13.944,0.023455,0.080078,0.54492,0.67498,2.6598
13.952,0.034693,0.075195,0.56494,0.68524,2.7517
13.96,0.045932,0.075195,0.52979,0.68524,2.8182
13.968,0.055949,0.064941,0.55518,0.69501,2.8534
13.976,0.065966,0.064941,0.5,0.70039,2.8612
13.984,0.075006,0.24023,0.52002,0.60997,2.8465
13.992,0.08429,0.78516,0.58496,0.26002,2.8162
14,0.091864,1.4048,0.85986,-0.16031,2.7752
14.008,0.099682,1.5,1.2949,-0.27566,2.7302
14.016,0.10628,0.29004,1.3149,0.58016,2.6823
14.024,0.11288,-0.33496,0.80469,0.9653,2.6354
14.032,0.11825,-0.34473,0.63477,0.97019,2.5914
14.04,0.12387,-0.02002,0.56006,0.73998,2.5513
14.048,0.12827,0.035156,0.54492,0.70528,2.5152
14.056,0.13291,0.040039,0.49512,0.70528,2.478
14.064,0.1356,0.040039,0.50488,0.70528,2.4409
14.072,0.13828,0.055176,0.4751,0.69013,2.4027
14.08,0.13951,0.064941,0.46484,0.68524,2.3627
14.088,0.14073,0.080078,0.5,0.68035,2.3167
14.096,0.14097,0.090332,0.45996,0.6652,2.2659
14.104,0.14122,0.10986,0.5,0.66031,2.2092
14.112,0.14073,0.125,0.47021,0.65005,2.1476
14.12,0.14048,0.14014,0.5,0.6349,2.085
14.128,0.14122,0.15527,0.4751,0.62512,2.0235
14.136,0.14195,0.16992,0.50488,0.61486,1.9648
14.144,0.14342,0.18506,0.48486,0.6002,1.9159
14.152,0.14513,0.20996,0.51514,0.58016,1.8749
14.16,0.14708,0.23486,0.49023,0.565,1.8377
14.168,0.14903,0.25,0.51514,0.54985,1.8055
14.176,0.15099,0.27002,0.48486,0.52493,1.7771
14.184,0.15319,0.29004,0.51514,0.50978,1.7546
14.192,0.15612,0.30518,0.48486,0.49511,1.737
14.2,0.1593,0.31494,0.5249,0.48485,1.7224
14.208,0.16345,0.33008,0.49512,0.47019,1.7087
14.216,0.1676,0.33984,0.52979,0.47019,1.6931
14.224,0.17273,0.36523,0.51514,0.45015,1.6755
14.232,0.17786,0.37012,0.56494,0.45015,1.6588
14.24,0.18373,0.36523,0.5498,0.45992,1.6442
14.248,0.18959,0.33984,0.59521,0.49022,1.6295
14.256,0.19497,0.30518,0.5752,0.51515,1.6413
14.264,0.20034,0.26025,0.6001,0.56012,1.6647
14.272,0.20498,0.2251,0.58008,0.58504,1.6608
14.28,0.20987,0.19531,0.5752,0.60997,1.6422
14.288,0.21354,0.17529,0.59521,0.62023,1.6158
14.296,0.21744,0.15527,0.56494,0.63001,1.5846
14.304,0.22013,0.1499,0.58984,0.6349,1.5494
14.312,0.22306,0.1499,0.55518,0.64027,1.5122
14.32,0.2238,0.1499,0.58984,0.64516,1.4761
14.328,0.22453,0.15527,0.56006,0.6349,1.4399
14.336,0.22355,0.16016,0.58984,0.6349,1.4037
14.344,0.22258,0.16992,0.56006,0.63001,1.3744
14.352,0.22135,0.16504,0.58984,0.6349,1.348
14.36,0.22013,0.17529,0.56006,0.63001,1.3167
14.368,0.21867,0.16992,0.58496,0.63001,1.2825
14.376,0.2172,0.17529,0.56006,0.62023,1.2483
14.384,0.215,0.16992,0.58984,0.62512,1.216
14.392,0.2128,0.17529,0.55518,0.62023,1.1857
14.4,0.21011,0.17529,0.58496,0.62023,1.1574
14.408,0.20743,0.16992,0.55518,0.62023,1.129
14.416,0.20474,0.16992,0.58008,0.62512,1.1007
14.424,0.20205,0.16504,0.54492,0.62512,1.0714
14.432,0.19985,0.16016,0.58008,0.63001,1.0411
14.44,0.19765,0.16016,0.5498,0.62512,1.0176
14.448,0.19668,0.15527,0.58008,0.6349,0.99902
14.456,0.19594,0.15527,0.5498,0.63001,0.97849
14.464,0.19619,0.1499,0.5752,0.6349,0.96383
14.472,0.19643,0.1499,0.54492,0.6349,0.96676
14.48,0.19741,0.1499,0.54004,0.6349,0.99804
14.488,0.19839,0.1499,0.56982,0.63001,1.0684
14.496,0.19985,0.15527,0.54004,0.63001,1.1848
14.504,0.20156,0.19531,0.58496,0.60508,1.3519
14.512,0.20352,0.26514,0.58008,0.56012,1.563
14.52,0.20572,0.2749,0.625,0.54985,1.8055
14.528,0.20816,0.31982,0.6001,0.51515,2.0635
14.536,0.2106,0.375,0.65479,0.47507,2.3187
14.544,0.2128,0.33496,0.625,0.49022,2.5269
14.552,0.21525,0.33008,0.64502,0.48485,2.694
14.56,0.2172,0.30518,0.6001,0.50489,2.8456
14.568,0.2194,0.26514,0.58984,0.53519,2.9638
14.576,0.22111,0.22021,0.56006,0.58016,3.044
14.584,0.22306,0.1499,0.56982,0.63001,3.086
14.592,0.22453,0.12988,0.5249,0.64516,3.0958
14.6,0.22624,0.11523,0.54004,0.66031,3.0802
14.608,0.22722,0.10986,0.49512,0.6652,3.0469
14.616,0.22844,0.10498,0.5249,0.67498,3.001
14.624,0.22868,0.10498,0.48486,0.67009,2.9482
14.632,0.22917,0.095215,0.50977,0.68524,2.8944
14.64,0.22893,0.16504,0.44482,0.65005,2.8436
14.648,0.22868,0.50488,0.52002,0.45992,2.7977
14.656,0.22771,1.1997,0.66504,-0.010264,2.7546
14.664,0.22697,1.5,1.1299,-0.30547,2.7165
14.672,0.22575,0.94971,1.3296,0.1999,2.6794
14.68,0.22477,-0.034668,0.98975,0.8001,2.6422
14.688,0.22331,-0.30469,0.64014,0.95015,2.6022
14.696,0.22209,-0.094727,0.5498,0.8001,2.5591
14.704,0.22013,0.044922,0.50488,0.71017,2.5103
14.712,0.21842,0.070312,0.47021,0.69501,2.4565
14.72,0.21622,0.075195,0.47998,0.68524,2.3988
14.728,0.21427,0.084961,0.43506,0.68035,2.3382
14.736,0.21207,0.090332,0.45996,0.67009,2.2786
14.744,0.20987,0.095215,0.4248,0.6652,2.2268
14.752,0.20767,0.10498,0.4502,0.66031,2.1799
14.76,0.20547,0.12988,0.4248,0.64516,2.1339
14.768,0.2045,0.14014,0.45508,0.64027,2.0929
14.776,0.20352,0.15527,0.43506,0.63001,2.0587
14.784,0.20352,0.16992,0.45996,0.62023,2.0303
14.792,0.20376,0.18994,0.44482,0.60508,2.0068
14.8,0.2045,0.2002,0.49512,0.60508,1.9883
14.808,0.20523,0.21484,0.45996,0.58993,1.9726
14.816,0.20645,0.22998,0.47998,0.56989,1.9599
14.824,0.20792,0.26025,0.43994,0.54985,1.9472
14.832,0.21011,0.27002,0.48486,0.54008,1.9335
14.84,0.21231,0.29492,0.44482,0.52004,1.9198
14.848,0.21549,0.31494,0.47998,0.50489,1.9042
14.856,0.21867,0.33008,0.45508,0.49022,1.8856
14.864,0.22282,0.33984,0.49023,0.47996,1.8641
14.872,0.22722,0.3501,0.4751,0.47019,1.8407
14.88,0.23235,0.36523,0.5,0.45992,1.8143
14.888,0.23748,0.375,0.49023,0.45503,1.7849
14.896,0.24383,0.39502,0.52002,0.45015,1.7546
14.904,0.25018,0.38525,0.54492,0.45992,1.7214
14.912,0.25702,0.35986,0.5249,0.49022,1.6862
14.92,0.26387,0.31494,0.56494,0.52004,1.6481
14.928,0.27022,0.28516,0.53516,0.54497,1.608
14.936,0.27681,0.25,0.56494,0.57527,1.5689
14.944,0.28292,0.22021,0.52979,0.59531,1.5357
14.952,0.28903,0.2002,0.56006,0.61486,1.5054
14.96,0.29367,0.18018,0.52979,0.62512,1.4692
14.968,0.29856,0.17529,0.55518,0.6349,1.4311
14.976,0.30198,0.17529,0.5249,0.63001,1.392
14.984,0.3054,0.17529,0.55518,0.6349,1.3529
14.992,0.30735,0.18994,0.52979,0.62023,1.3148
15,0.30955,0.18506,0.56494,0.62023,1.2766
15.008,0.31053,0.2002,0.52979,0.61486,1.2424
15.016,0.31151,0.2002,0.56494,0.61486,1.2111
15.024,0.31102,0.20508,0.5249,0.60997,1.1818
15.032,0.31077,0.20996,0.55518,0.60997,1.1535
15.04,0.30931,0.2002,0.5249,0.61486,1.1329
15.048,0.30784,0.20996,0.55518,0.60997,1.1183
15.056,0.30613,0.19531,0.5249,0.61486,1.1017
15.064,0.30442,0.19531,0.55518,0.60997,1.086
15.072,0.30247,0.2002,0.5249,0.60508,1.0704
15.08,0.30051,0.20508,0.5498,0.60997,1.0528
15.088,0.2988,0.2002,0.55518,0.60997,1.0342
15.096,0.29734,0.19531,0.52002,0.60508,1.0137
15.104,0.29612,0.18506,0.56006,0.61486,0.9912
15.112,0.29514,0.18994,0.5249,0.61486,0.96774
15.12,0.29465,0.19531,0.56006,0.61486,0.95015
15.128,0.29441,0.18018,0.52979,0.61486,0.94624
15.136,0.29465,0.17529,0.56494,0.62023,0.96579
15.144,0.29489,0.18018,0.5249,0.61486,1.0059
15.152,0.29612,0.18506,0.56006,0.61486,1.0782
15.16,0.29734,0.18506,0.52979,0.61486,1.1994
15.168,0.29954,0.21484,0.56494,0.59531,1.3724
15.176,0.30173,0.28027,0.56006,0.54985,1.5914
15.184,0.30491,0.29492,0.60986,0.53519,1.8446
15.192,0.30833,0.33496,0.6001,0.51515,2.1144
15.2,0.31248,0.38525,0.65479,0.47019,2.3822
15.208,0.31688,0.35986,0.60498,0.47996,2.6305
15.216,0.32177,0.36523,0.64502,0.47019,2.8436
15.224,0.32666,0.33984,0.60498,0.48485,3.0108
15.232,0.33179,0.29492,0.6001,0.52004,3.129
15.24,0.33716,0.25,0.5498,0.565,3.1965
15.248,0.3418,0.18506,0.55518,0.61486,3.2239
15.256,0.34645,0.17529,0.50977,0.62512,3.2258
15.264,0.35035,0.14502,0.54004,0.6349,3.2053
15.272,0.35451,0.12988,0.5,0.65005,3.1672
15.28,0.35768,0.125,0.50488,0.66031,3.1163
15.288,0.36086,0.12988,0.47998,0.65494,3.0596
15.296,0.36306,0.10498,0.49023,0.6652,3
15.304,0.3655,0.17529,0.43018,0.64027,2.9413
15.312,0.36697,0.58496,0.48486,0.41007,2.8856
15.32,0.36868,1.335,0.64502,-0.065494,2.8328
15.328,0.36966,1.5,1.0649,-0.35582,2.783
15.336,0.37063,1.04,1.3047,0.15982,2.737
15.344,0.36966,0.070312,1.0049,0.73998,2.694
15.352,0.36892,-0.30469,0.66992,0.94037,2.653
15.36,0.36648,-0.12988,0.52979,0.81525,2.609
15.368,0.36404,0.040039,0.5498,0.70528,2.5611
15.376,0.36086,0.075195,0.4751,0.68524,2.5103
15.384,0.35793,0.080078,0.47998,0.68524,2.4555
15.392,0.35451,0.080078,0.43506,0.68035,2.3978
15.4,0.35109,0.084961,0.46484,0.67498,2.3421
15.408,0.34767,0.095215,0.43018,0.67009,2.2903
15.416,0.34425,0.10986,0.47021,0.66031,2.2424
15.424,0.34107,0.12988,0.43994,0.64516,2.1994
15.432,0.33814,0.12988,0.47998,0.64027,2.1632
15.44,0.33545,0.14014,0.43994,0.6349,2.1349
15.448,0.33301,0.16016,0.47998,0.62023,2.1134
15.456,0.33105,0.17529,0.46484,0.60508,2.0968
15.464,0.32934,0.2002,0.50488,0.59531,2.085
15.472,0.32837,0.20508,0.4751,0.58504,2.0762
15.48,0.32739,0.2251,0.49512,0.57527,2.0674
15.488,0.32739,0.22998,0.4751,0.565,2.0587
15.496,0.32739,0.25,0.47021,0.54985,2.0508
15.504,0.33008,0.27002,0.50488,0.53519,2.042
15.512,0.33276,0.29004,0.4751,0.52004,2.0303
15.52,0.33765,0.30518,0.50977,0.5,2.0147
15.528,0.34278,0.33008,0.4751,0.48485,1.9951
15.536,0.34987,0.33984,0.51514,0.47019,1.9726
15.544,0.35695,0.33984,0.49512,0.47019,1.9521
15.552,0.3655,0.3501,0.54004,0.46481,1.9306
15.56,0.3743,0.36523,0.52979,0.45992,1.9042
15.568,0.3826,0.35986,0.58008,0.47507,1.8749
15.576,0.39116,0.33984,0.56494,0.49511,1.8436
15.584,0.39946,0.31006,0.59521,0.52004,1.8094
15.592,0.40777,0.28027,0.5752,0.54985,1.7742
15.6,0.41608,0.22998,0.60498,0.58504,1.7361
15.608,0.42463,0.20996,0.56982,0.6002,1.696
15.616,0.43293,0.18994,0.6001,0.61486,1.654
15.624,0.44124,0.18018,0.56494,0.62512,1.6129
15.632,0.44784,0.17529,0.60498,0.63001,1.5718
15.64,0.45443,0.16016,0.5752,0.63001,1.5357
15.648,0.45908,0.16016,0.60498,0.6349,1.5034
15.656,0.46396,0.16504,0.5752,0.62512,1.4682
15.664,0.46641,0.17529,0.6001,0.62023,1.4321
15.672,0.46885,0.16992,0.5752,0.62512,1.3969
15.68,0.46934,0.18018,0.6001,0.62023,1.3627
15.688,0.47007,0.17529,0.58008,0.61486,1.3304
15.696,0.46934,0.18994,0.5752,0.61486,1.3011
15.704,0.4686,0.18506,0.6001,0.61486,1.2747
15.712,0.46689,0.18994,0.5752,0.61486,1.2512
15.72,0.46518,0.18018,0.60498,0.60997,1.2297
15.728,0.46372,0.18506,0.58008,0.61486,1.2102
15.736,0.46225,0.18018,0.60498,0.61486,1.1965
15.744,0.46079,0.17529,0.5752,0.61486,1.1838
15.752,0.45957,0.16992,0.60498,0.62023,1.1672
15.76,0.45859,0.17529,0.56982,0.61486,1.1476
15.768,0.45761,0.16992,0.6001,0.62512,1.1271
15.776,0.45688,0.16504,0.5752,0.63001,1.1056
15.784,0.45614,0.16016,0.6001,0.62512,1.085
15.792,0.45639,0.16992,0.58008,0.61486,1.0714
15.8,0.45663,0.21484,0.625,0.58993,1.0723
15.808,0.45785,0.25,0.62012,0.565,1.1007
15.816,0.45932,0.2749,0.66504,0.54497,1.1652
15.824,0.4625,0.33008,0.66016,0.50489,1.2757
15.832,0.46567,0.35986,0.71484,0.48485,1.435
15.84,0.47032,0.33984,0.66016,0.49511,1.6051
15.848,0.47496,0.31982,0.7002,0.49022,1.7947
15.856,0.48058,0.29492,0.63477,0.51515,2.0342
15.864,0.48644,0.25488,0.64502,0.54985,2.2962
15.872,0.49279,0.19531,0.59521,0.59531,2.5572
15.88,0.49914,0.13525,0.58008,0.6349,2.7967
15.888,0.50501,0.10986,0.58984,0.65494,3
15.896,0.51112,0.1001,0.5498,0.66031,3.1593
15.904,0.51674,0.1001,0.56494,0.66031,3.2708
15.912,0.52236,0.090332,0.53516,0.67009,3.3363
15.92,0.527,0.084961,0.56494,0.67498,3.3607
15.928,0.53188,0.090332,0.51514,0.68035,3.35
15.936,0.53579,0.22998,0.49512,0.60508,3.3167
15.944,0.5397,0.83984,0.5752,0.25464,3.2669
15.952,0.54215,1.5,0.78516,-0.1955,3.2014
15.96,0.54459,1.5,1.2598,-0.34066,3.1281
15.968,0.54532,0.53516,1.3496,0.45015,3.0508
15.976,0.5463,-0.21973,0.90967,0.88514,2.9746
15.984,0.5441,-0.35498,0.65479,0.96041,2.9032
15.992,0.5419,-0.089844,0.56494,0.77517,2.8387
16,0.53726,0.02002,0.58008,0.71017,2.7791
16.008,0.53262,0.035156,0.50977,0.69501,2.7253
16.016,0.52602,0.035156,0.5249,0.70528,2.6755
16.024,0.51942,0.044922,0.48486,0.68524,2.6256
16.032,0.51136,0.050293,0.50977,0.68524,2.5758
16.04,0.50354,0.060059,0.47998,0.68035,2.5279
16.048,0.49548,0.064941,0.50977,0.68035,2.4809
16.056,0.48742,0.080078,0.48486,0.66031,2.4301
16.064,0.47935,0.090332,0.51514,0.66031,2.3783
16.072,0.47154,0.10498,0.49512,0.65005,2.3275
16.08,0.46421,0.11523,0.52002,0.64516,2.2825
16.088,0.45688,0.14502,0.50488,0.62023,2.2454
16.096,0.45004,0.15527,0.52979,0.61486,2.2151
16.104,0.44344,0.17529,0.54004,0.58993,2.1935
16.112,0.43806,0.19531,0.50977,0.58016,2.1789
16.12,0.43293,0.22021,0.54492,0.56012,2.1691
16.128,0.42878,0.23486,0.52002,0.54985,2.1632
16.136,0.42487,0.25,0.54492,0.53519,2.1593
16.144,0.42194,0.27002,0.51514,0.52004,2.1535
16.152,0.41925,0.2749,0.5498,0.50489,2.1476
16.16,0.41779,0.29492,0.52979,0.49511,2.1427
16.168,0.41632,0.30518,0.5752,0.48485,2.1369
16.176,0.41608,0.31982,0.55518,0.47507,2.1281
16.184,0.41608,0.33008,0.6001,0.47507,2.1153
16.192,0.41681,0.31982,0.58984,0.48485,2.0997
16.2,0.41779,0.30518,0.625,0.50489,2.0792
16.208,0.41901,0.2749,0.60986,0.53519,2.0557
16.216,0.42023,0.22998,0.64014,0.57527,2.0293
16.224,0.42145,0.19531,0.60986,0.59531,1.999
16.232,0.42292,0.15527,0.64502,0.62512,1.9658
16.24,0.42341,0.12988,0.60986,0.64027,1.9335
16.248,0.42389,0.11523,0.63477,0.65005,1.9013
16.256,0.42341,0.10986,0.60498,0.65005,1.8641
16.264,0.42316,0.10498,0.62988,0.66031,1.824
16.272,0.42218,0.10498,0.6001,0.65494,1.783
16.28,0.42145,0.1001,0.63477,0.66031,1.7419
16.288,0.41974,0.10498,0.60986,0.65494,1.6999
16.296,0.41828,0.10986,0.625,0.65494,1.6588
16.304,0.41485,0.10986,0.62988,0.66031,1.607
16.312,0.41143,0.11523,0.60498,0.65005,1.5513
16.32,0.4063,0.10986,0.63477,0.65494,1.5083
16.328,0.40117,0.12012,0.60498,0.65005,1.4731
16.336,0.39433,0.125,0.62988,0.65494,1.4467
16.344,0.38774,0.12988,0.6001,0.64516,1.4242
16.352,0.37967,0.125,0.62988,0.65005,1.4008
16.36,0.37185,0.12012,0.59521,0.64516,1.3773
16.368,0.36428,0.12012,0.625,0.65494,1.3519
16.376,0.35695,0.125,0.60498,0.64516,1.3275
16.384,0.34987,0.11523,0.63477,0.65494,1.303
16.392,0.34302,0.11523,0.60986,0.65005,1.2776
16.4,0.33643,0.125,0.63477,0.65494,1.2512
16.408,0.33008,0.16504,0.60986,0.60997,1.2258
16.416,0.32421,0.2002,0.66504,0.58504,1.2043
16.424,0.31835,0.2251,0.64502,0.56012,1.1906
16.432,0.31346,0.27002,0.7002,0.53519,1.1916
16.44,0.30882,0.28027,0.68018,0.52004,1.2102
16.448,0.30516,0.26025,0.70996,0.52981,1.2502
16.456,0.30149,0.24512,0.68018,0.53519,1.3265
16.464,0.29856,0.22021,0.66992,0.55523,1.4418
16.472,0.29587,0.18506,0.62988,0.58504,1.5963
16.48,0.29367,0.12012,0.6499,0.6349,1.7849
16.488,0.29172,0.070312,0.6001,0.67498,1.9961
16.496,0.2905,0.050293,0.60498,0.69013,2.216
16.504,0.28927,0.035156,0.58008,0.70039,2.4282
16.512,0.28903,0.030273,0.56982,0.70528,2.6207
16.52,0.28879,0.030273,0.59521,0.70528,2.782
16.528,0.28903,0.02002,0.56006,0.71505,2.9052
16.536,0.28952,0.015137,0.58496,0.72532,2.9814
16.544,0.29001,0.14014,0.5249,0.6652,3.0215
16.552,0.29074,0.66992,0.60498,0.35484,3.0401
16.56,0.29025,1.375,0.79004,-0.10557,3.0362
16.568,0.28976,1.5,1.27,-0.2654,3.0117
16.576,0.28805,0.45996,1.3599,0.47507,2.9726
16.584,0.28659,-0.33496,0.96484,0.95015,2.9238
16.592,0.28463,-0.44482,0.68018,1.0103,2.868
16.6,0.28292,-0.11963,0.62988,0.8001,2.8094
16.608,0.28072,-0.024902,0.56006,0.73509,2.7517
16.616,0.27852,-0.0097656,0.56494,0.73021,2.695
16.624,0.27462,-0.0048828,0.50977,0.72532,2.6422
16.632,0.27095,-0.0097656,0.54004,0.73021,2.5943
16.64,0.26582,0.010254,0.50488,0.71505,2.5513
16.648,0.26069,0.02002,0.52979,0.71017,2.5112
16.656,0.25458,0.035156,0.50488,0.69501,2.4692
16.664,0.24847,0.044922,0.54492,0.69013,2.4262
16.672,0.24188,0.060059,0.51514,0.67498,2.3812
16.68,0.23528,0.075195,0.54004,0.67009,2.3333
16.688,0.22917,0.095215,0.52002,0.65494,2.2835
16.696,0.22306,0.10986,0.5498,0.64516,2.2336
16.704,0.21744,0.13525,0.52979,0.62512,2.1848
16.712,0.21207,0.1499,0.5249,0.61486,2.1378
16.72,0.20743,0.18018,0.55518,0.58993,2.0958
16.728,0.20303,0.2002,0.52979,0.57527,2.0606
16.736,0.19936,0.22021,0.56494,0.56012,2.0323
16.744,0.1957,0.23486,0.52979,0.54008,2.0098
16.752,0.19301,0.26025,0.56494,0.52493,1.9922
16.76,0.19057,0.2749,0.52979,0.50978,1.9795
16.768,0.18886,0.29004,0.56494,0.49511,1.9697
16.776,0.18739,0.30518,0.54492,0.49022,1.9629
16.784,0.18739,0.31006,0.58008,0.48485,1.958
16.792,0.18764,0.31494,0.56494,0.48485,1.9531
16.8,0.18886,0.30518,0.61475,0.49511,1.9472
16.808,0.19032,0.2749,0.6001,0.52493,1.9384
16.816,0.19204,0.22998,0.64014,0.56012,1.9267
16.824,0.19399,0.18506,0.61475,0.59531,1.912
16.832,0.19594,0.13525,0.64014,0.6349,1.8935
16.84,0.1979,0.1001,0.60498,0.65494,1.8739
16.848,0.19961,0.075195,0.64014,0.67498,1.8534
16.856,0.20156,0.064941,0.60498,0.68524,1.8289
16.864,0.20279,0.060059,0.64502,0.68524,1.8006
16.872,0.20401,0.060059,0.60986,0.68524,1.7703
16.88,0.20303,0.060059,0.63477,0.69013,1.739
16.888,0.2023,0.060059,0.60986,0.68524,1.7067
16.896,0.19961,0.064941,0.64014,0.68524,1.6745
16.904,0.19717,0.070312,0.64502,0.67498,1.6422
16.912,0.19423,0.080078,0.61475,0.67498,1.609
16.92,0.1913,0.080078,0.64014,0.67498,1.5767
16.928,0.18788,0.090332,0.61475,0.6652,1.5445
16.936,0.18471,0.090332,0.6499,0.6652,1.5181
16.944,0.17982,0.095215,0.62012,0.6652,1.4936
16.952,0.17518,0.090332,0.6499,0.66031,1.4673
16.96,0.16907,0.095215,0.60986,0.66031,1.4409
16.968,0.16321,0.095215,0.64502,0.6652,1.4145
16.976,0.15734,0.095215,0.61475,0.6652,1.3871
16.984,0.15148,0.090332,0.64502,0.6652,1.3597
16.992,0.14586,0.1001,0.61475,0.66031,1.3314
17,0.14048,0.1001,0.63477,0.65494,1.3021
17.008,0.13609,0.13525,0.61475,0.62023,1.2717
17.016,0.13193,0.19531,0.6748,0.58504,1.2414
17.024,0.12876,0.22021,0.64502,0.56012,1.216
17.032,0.12558,0.24512,0.68506,0.54008,1.2004
17.04,0.12338,0.27002,0.66992,0.52493,1.1994
17.048,0.12143,0.24512,0.69482,0.54008,1.218
17.056,0.12045,0.22021,0.64502,0.54497,1.2649
17.064,0.11947,0.2002,0.6748,0.56012,1.35
17.072,0.11972,0.16016,0.62012,0.58993,1.4751
17.08,0.11996,0.125,0.6499,0.63001,1.6413
17.088,0.12118,0.064941,0.6001,0.68035,1.8407
17.096,0.1224,0.040039,0.60986,0.70039,2.0616
17.104,0.12436,0.035156,0.58496,0.70528,2.2893
17.112,0.12631,0.030273,0.58008,0.71017,2.5073
17.12,0.12876,0.02002,0.6001,0.71505,2.7009
17.128,0.1312,0.024902,0.56982,0.71505,2.8612
17.136,0.1334,0.02002,0.6001,0.71994,2.9697
17.144,0.1356,0.044922,0.5498,0.72532,3.0362
17.152,0.1378,0.33984,0.5752,0.54985,3.0802
17.16,0.14,1.0146,0.7002,0.10459,3.0987
17.168,0.14195,1.5,1.04,-0.26051,3.0929
17.176,0.1439,1.0449,1.3647,0.11486,3.0684
17.184,0.14561,-0.084961,1.1147,0.81036,3.0293
17.192,0.14732,-0.41992,0.76514,1.0103,2.9814
17.2,0.14732,-0.18506,0.66016,0.85044,2.9286
17.208,0.14757,-0.014648,0.58496,0.73509,2.8739
17.216,0.14635,0.015137,0.58984,0.71994,2.8201
17.224,0.14537,0.02002,0.52979,0.71505,2.7693
17.232,0.14439,0.02002,0.55518,0.71505,2.7214
17.24,0.14342,0.030273,0.51514,0.70528,2.6784
17.248,0.14219,0.035156,0.5498,0.70039,2.6364
17.256,0.14122,0.050293,0.51514,0.69013,2.5943
17.264,0.13877,0.060059,0.5498,0.68524,2.5523
17.272,0.13633,0.075195,0.52002,0.67498,2.5073
17.28,0.13267,0.095215,0.5498,0.6652,2.4585
17.288,0.12925,0.11523,0.5249,0.64516,2.4066
17.296,0.12582,0.12988,0.55518,0.64027,2.3519
17.304,0.12265,0.1499,0.52979,0.62512,2.2962
17.312,0.11972,0.16992,0.5498,0.60997,2.2395
17.32,0.11678,0.18994,0.55518,0.58993,2.1857
17.328,0.11483,0.20508,0.5249,0.58504,2.1359
17.336,0.11312,0.22998,0.55518,0.56012,2.0938
17.344,0.11239,0.25488,0.5249,0.54008,2.0606
17.352,0.11165,0.2749,0.55518,0.52004,2.0303
17.36,0.11239,0.29492,0.5249,0.50489,2.0059
17.368,0.11336,0.31494,0.55518,0.49022,1.9873
17.376,0.11556,0.3252,0.52979,0.47996,1.9726
17.384,0.11776,0.33008,0.56982,0.47019,1.9599
17.392,0.12045,0.34521,0.5498,0.46481,1.9492
17.4,0.12338,0.33984,0.6001,0.47019,1.9384
17.408,0.12631,0.31982,0.58008,0.49022,1.9267
17.416,0.12949,0.28027,0.625,0.52981,1.914
17.424,0.13267,0.23486,0.6001,0.565,1.9003
17.432,0.13609,0.18994,0.625,0.60508,1.8847
17.44,0.13926,0.15527,0.59521,0.62512,1.869
17.448,0.14268,0.125,0.625,0.64516,1.8524
17.456,0.14513,0.10498,0.58984,0.66031,1.8328
17.464,0.14757,0.1001,0.625,0.66031,1.8104
17.472,0.14903,0.1001,0.58496,0.66031,1.7849
17.48,0.1505,0.095215,0.62012,0.67009,1.7566
17.488,0.15099,0.10498,0.6001,0.66031,1.7253
17.496,0.15148,0.10498,0.62012,0.66031,1.694
17.504,0.15075,0.11523,0.59521,0.65494,1.6608
17.512,0.15026,0.12012,0.62012,0.65005,1.6266
17.52,0.14806,0.125,0.625,0.65494,1.5924
17.528,0.1461,0.12988,0.59521,0.64516,1.5591
17.536,0.14268,0.12988,0.625,0.65005,1.5308
17.544,0.13951,0.13525,0.6001,0.64516,1.5054
17.552,0.13633,0.14014,0.62012,0.65005,1.4761
17.56,0.13315,0.13525,0.59521,0.64027,1.4457
17.568,0.12998,0.12988,0.625,0.64027,1.4145
17.576,0.12705,0.13525,0.59521,0.64027,1.3822
17.584,0.12411,0.12988,0.625,0.64516,1.3509
17.592,0.12118,0.12988,0.6001,0.64516,1.3196
17.6,0.11849,0.12012,0.62012,0.65005,1.2893
17.608,0.11581,0.12012,0.6001,0.65005,1.259
17.616,0.11459,0.11523,0.625,0.65494,1.2287
17.624,0.11361,0.125,0.6001,0.64516,1.2023
17.632,0.11385,0.14502,0.63477,0.63001,1.1848
17.64,0.1141,0.20996,0.62988,0.58504,1.1779
17.648,0.11532,0.2251,0.6748,0.56989,1.1867
17.656,0.11654,0.27002,0.66016,0.54008,1.2229
17.664,0.11849,0.31982,0.71484,0.50489,1.2962
17.672,0.12069,0.29004,0.6748,0.51515,1.4135
17.68,0.12363,0.28027,0.70508,0.51515,1.5758
17.688,0.1268,0.26514,0.65479,0.52004,1.7761
17.696,0.13047,0.22021,0.62988,0.56012,2.0039
17.704,0.13413,0.18018,0.64502,0.59531,2.2434
17.712,0.13731,0.11523,0.60498,0.65005,2.478
17.72,0.14073,0.080078,0.60986,0.67498,2.6911
17.728,0.14366,0.070312,0.56494,0.68524,2.8719
17.736,0.14659,0.060059,0.58496,0.69013,2.999
17.744,0.14952,0.055176,0.55518,0.69501,3.0821
17.752,0.1527,0.050293,0.5752,0.70528,3.1408
17.76,0.15563,0.050293,0.54004,0.70528,3.1701
17.768,0.15856,0.044922,0.5498,0.71017,3.172
17.776,0.16003,0.33496,0.50488,0.55523,3.1496
17.784,0.16174,0.9751,0.66504,0.1349,3.1095
17.792,0.16223,1.5,0.98975,-0.25562,3.0567
17.8,0.16272,1.1699,1.3696,0.044477,2.9961
17.808,0.16272,0.044922,1.1099,0.73509,2.9316
17.816,0.16296,-0.375,0.77002,0.98534,2.868
17.824,0.16272,-0.18506,0.60498,0.85533,2.8074
17.832,0.16247,-0.0097656,0.58984,0.73509,2.7527
17.84,0.16101,0.030273,0.5249,0.71505,2.7038
17.848,0.15954,0.024902,0.54004,0.71017,2.6569
17.856,0.15734,0.035156,0.5,0.70528,2.6109
17.864,0.15514,0.040039,0.52002,0.70528,2.565
17.872,0.15294,0.050293,0.48486,0.69501,2.5191
17.88,0.15099,0.060059,0.51514,0.69013,2.4702
17.888,0.14903,0.080078,0.49512,0.68035,2.4184
17.896,0.14732,0.084961,0.5249,0.67009,2.3646
17.904,0.14488,0.10498,0.50488,0.65494,2.3079
17.912,0.14244,0.125,0.5249,0.65005,2.2502
17.92,0.13951,0.14502,0.51514,0.63001,2.1945
17.928,0.13682,0.15527,0.53516,0.61486,2.1417
17.936,0.13486,0.18018,0.54492,0.60508,2.0968
17.944,0.13291,0.2002,0.51514,0.58993,2.0587
17.952,0.13193,0.2251,0.54492,0.56989,2.0244
17.96,0.13096,0.24512,0.51514,0.55523,1.9961
17.968,0.1312,0.26514,0.54492,0.53519,1.9736
17.976,0.13144,0.29492,0.50977,0.51515,1.956
17.984,0.13267,0.31006,0.5498,0.49511,1.9423
17.992,0.13389,0.3252,0.52002,0.48485,1.9326
18,0.13633,0.33984,0.55518,0.47019,1.9228
18.008,0.13877,0.3501,0.52979,0.45992,1.913
18.016,0.14195,0.35986,0.5752,0.45992,1.9032
18.024,0.14537,0.36523,0.55518,0.45992,1.8925
18.032,0.14928,0.34521,0.60498,0.47996,1.8798
18.04,0.15343,0.31006,0.58008,0.50489,1.8661
18.048,0.15783,0.26514,0.62012,0.54497,1.8485
18.056,0.16223,0.22021,0.58984,0.58016,1.828
18.064,0.16638,0.18018,0.625,0.61486,1.8035
18.072,0.17054,0.1499,0.59521,0.6349,1.7752
18.08,0.1742,0.12988,0.625,0.64516,1.7439
18.088,0.17786,0.12012,0.59521,0.65494,1.7107
18.096,0.17982,0.10498,0.62012,0.66031,1.6755
18.104,0.18202,0.10986,0.58984,0.6652,1.6393
18.112,0.18275,0.11523,0.60986,0.66031,1.6041
18.12,0.18348,0.11523,0.61475,0.66031,1.5699
18.128,0.18348,0.125,0.58496,0.66031,1.5367
18.136,0.18373,0.12988,0.62012,0.65005,1.5083
18.144,0.18324,0.12988,0.58496,0.65494,1.4819
18.152,0.183,0.12988,0.625,0.65005,1.4526
18.16,0.18104,0.13525,0.58984,0.64516,1.4213
18.168,0.17909,0.14014,0.625,0.64516,1.39
18.176,0.17567,0.14502,0.58496,0.6349,1.3607
18.184,0.17249,0.14014,0.60986,0.64027,1.3333
18.192,0.16956,0.14014,0.58496,0.64027,1.3079
18.2,0.16687,0.14014,0.60986,0.64027,1.2854
18.208,0.16443,0.13525,0.58496,0.64027,1.262
18.216,0.16223,0.12988,0.60986,0.64516,1.2385
18.224,0.16076,0.13525,0.58008,0.64027,1.2141
18.232,0.1593,0.12988,0.60986,0.64027,1.1926
18.24,0.15856,0.12988,0.5752,0.64027,1.173
18.248,0.15807,0.125,0.60498,0.65005,1.1515
18.256,0.15832,0.125,0.5752,0.65005,1.1339
18.264,0.15856,0.12012,0.60498,0.64516,1.129
18.272,0.15979,0.13525,0.58008,0.6349,1.1457
18.28,0.16101,0.18018,0.62988,0.60997,1.1935
18.288,0.16321,0.22998,0.625,0.565,1.2825
18.296,0.1654,0.26025,0.65479,0.54985,1.4174
18.304,0.16858,0.30518,0.64502,0.50978,1.5982
18.312,0.17176,0.33496,0.6748,0.49022,1.8192
18.32,0.17591,0.29492,0.63477,0.50489,2.0665
18.328,0.18006,0.29492,0.65479,0.5,2.3236
18.336,0.18495,0.25488,0.60498,0.52493,2.5415
18.344,0.18984,0.22021,0.58008,0.56012,2.7253
18.352,0.19423,0.16504,0.60986,0.60508,2.8534
18.36,0.19888,0.12012,0.56006,0.65494,2.9267
18.368,0.20279,0.090332,0.56982,0.6652,2.998
18.376,0.20694,0.080078,0.5249,0.67498,3.0469
18.384,0.21011,0.064941,0.5498,0.68524,3.0674
18.392,0.21354,0.060059,0.51514,0.69013,3.0596
18.4,0.21598,0.064941,0.53516,0.69013,3.0293
18.408,0.21842,0.060059,0.49023,0.70039,2.9824
18.416,0.21915,0.16016,0.48486,0.65005,2.9247
18.424,0.22013,0.62988,0.53516,0.35973,2.8612
18.432,0.21989,1.2749,0.75488,-0.085533,2.7977
18.44,0.21964,1.5,1.1948,-0.2654,2.737
18.448,0.21891,0.56982,1.335,0.41007,2.6764
18.456,0.21842,-0.22461,0.88477,0.90029,2.6188
18.464,0.2172,-0.34961,0.64502,0.97019,2.564
18.472,0.21598,-0.064941,0.54004,0.77028,2.5122
18.48,0.21329,0.02002,0.52979,0.71505,2.4633
18.488,0.2106,0.035156,0.4751,0.70528,2.4154
18.496,0.20645,0.040039,0.49023,0.70039,2.3675
18.504,0.20254,0.044922,0.45508,0.69501,2.3177
18.512,0.19863,0.050293,0.4751,0.69501,2.2649
18.52,0.19472,0.064941,0.4502,0.68035,2.2102
18.528,0.19081,0.080078,0.47021,0.67498,2.1535
18.536,0.1869,0.090332,0.4751,0.6652,2.1017
18.544,0.18324,0.10498,0.44482,0.65494,2.0528
18.552,0.17957,0.125,0.4751,0.64027,2.002
18.56,0.17591,0.14014,0.45508,0.63001,1.9541
18.568,0.17249,0.16016,0.49023,0.61486,1.911
18.576,0.16956,0.18506,0.45996,0.59531,1.8749
18.584,0.16663,0.20508,0.49512,0.58016,1.8465
18.592,0.16443,0.22021,0.46484,0.565,1.824
18.6,0.16223,0.24023,0.5,0.55523,1.8074
18.608,0.16125,0.26025,0.47021,0.53519,1.7947
18.616,0.16027,0.28516,0.49512,0.52004,1.7849
18.624,0.16052,0.30518,0.4751,0.49511,1.7761
18.632,0.16076,0.31494,0.50488,0.49022,1.7674
18.64,0.16223,0.33496,0.47998,0.47019,1.7586
18.648,0.16369,0.34521,0.51514,0.45992,1.7468
18.656,0.16614,0.35498,0.49512,0.45015,1.7322
18.664,0.16882,0.37012,0.5498,0.45015,1.7146
18.672,0.17151,0.375,0.52979,0.45015,1.6931
18.68,0.1742,0.34521,0.5752,0.47507,1.6686
18.688,0.17713,0.31006,0.5498,0.50978,1.6422
18.696,0.18031,0.26514,0.58008,0.54497,1.6139
18.704,0.18373,0.22021,0.5498,0.58016,1.5826
18.712,0.18739,0.17529,0.5752,0.60997,1.5503
18.72,0.19106,0.1499,0.5498,0.62512,1.5161
18.728,0.19472,0.14014,0.5752,0.64027,1.48
18.736,0.19692,0.14014,0.55518,0.64516,1.4477
18.744,0.19936,0.12988,0.5498,0.6349,1.4164
18.752,0.20034,0.13525,0.58008,0.64516,1.3812
18.76,0.20132,0.13525,0.5498,0.64516,1.3441
18.768,0.20181,0.14014,0.58008,0.6349,1.3069
18.776,0.2023,0.14502,0.54492,0.6349,1.2708
18.784,0.2023,0.14502,0.58008,0.64027,1.2366
18.792,0.2023,0.1499,0.54004,0.6349,1.2053
18.8,0.20059,0.15527,0.56982,0.6349,1.175
18.808,0.19912,0.15527,0.5498,0.63001,1.1457
18.816,0.19619,0.16016,0.5752,0.62512,1.1183
18.824,0.1935,0.16504,0.54492,0.62023,1.0938
18.832,0.19081,0.16992,0.56494,0.62023,1.0753
18.84,0.18813,0.17529,0.54492,0.61486,1.0606
18.848,0.18568,0.16016,0.5752,0.63001,1.043
18.856,0.18324,0.16504,0.54004,0.62023,1.0244
18.864,0.1808,0.15527,0.56982,0.63001,1.0039
18.872,0.1786,0.16016,0.54004,0.62512,0.9824
18.88,0.17664,0.16016,0.56982,0.63001,0.95894
18.888,0.17469,0.15527,0.53516,0.62512,0.93548
18.896,0.17396,0.16504,0.56006,0.61486,0.91593
18.904,0.17347,0.2002,0.55518,0.58993,0.90518
18.912,0.17396,0.25488,0.6001,0.54985,0.913
18.92,0.17469,0.28027,0.58008,0.52981,0.94917
18.928,0.17567,0.3252,0.61475,0.5,1.0225
18.936,0.17689,0.34521,0.63477,0.47996,1.1163
18.944,0.17835,0.31982,0.60986,0.49022,1.2385
18.952,0.17982,0.30518,0.625,0.49511,1.4145
18.96,0.18226,0.2749,0.58496,0.51515,1.6315
18.968,0.18471,0.24023,0.58984,0.55523,1.8739
18.976,0.18788,0.18994,0.55518,0.59531,2.1232
18.984,0.1913,0.14014,0.56494,0.6349,2.3627
18.992,0.19472,0.11523,0.52002,0.65494,2.5767
19,0.19814,0.095215,0.53516,0.67009,2.7537
19.008,0.20132,0.090332,0.50488,0.67498,2.8876
19.016,0.20474,0.095215,0.5249,0.67498,2.9765
19.024,0.20792,0.090332,0.50488,0.68035,3.0235
19.032,0.21109,0.080078,0.52002,0.69013,3.0342
19.04,0.21402,0.16016,0.4502,0.65005,3.0166
19.048,0.2172,0.56982,0.54004,0.41007,2.9795
19.056,0.21915,1.2847,0.69482,-0.070381,2.9267
19.064,0.22111,1.5,1.1597,-0.31574,2.8631
19.072,0.22209,0.83496,1.3198,0.26979,2.7937
19.08,0.22331,-0.080078,0.96484,0.8304,2.7234
19.088,0.22429,-0.29492,0.64014,0.94037,2.654
19.096,0.22526,-0.089844,0.56982,0.79521,2.5885
19.104,0.226,0.040039,0.50488,0.70528,2.5279
19.112,0.22673,0.060059,0.49512,0.69013,2.4712
19.12,0.226,0.060059,0.45508,0.69013,2.4184
19.128,0.22551,0.064941,0.47021,0.68524,2.3666
19.136,0.22355,0.080078,0.45508,0.67498,2.3196
19.144,0.22184,0.084961,0.44482,0.67009,2.2727
19.152,0.22013,0.1001,0.46484,0.66031,2.2209
19.16,0.21842,0.12012,0.43994,0.65494,2.1652
19.168,0.21696,0.12988,0.47021,0.64516,2.1065
19.176,0.21549,0.14014,0.44482,0.6349,2.0479
19.184,0.21354,0.15527,0.47998,0.62023,1.9892
19.192,0.21183,0.17529,0.4502,0.60508,1.9326
19.2,0.20987,0.19531,0.49023,0.59531,1.8807
19.208,0.20816,0.2002,0.47021,0.58504,1.8368
19.216,0.20718,0.2251,0.5,0.56989,1.7996
19.224,0.20645,0.24512,0.45996,0.54985,1.7703
19.232,0.20669,0.26025,0.48486,0.53519,1.7498
19.24,0.20718,0.28516,0.46484,0.51515,1.7351
19.248,0.20865,0.30029,0.49023,0.5,1.7234
19.256,0.21011,0.3252,0.46484,0.47996,1.7155
19.264,0.21256,0.34521,0.50488,0.46481,1.7097
19.272,0.21525,0.35986,0.47998,0.45503,1.7028
19.28,0.21867,0.36523,0.52002,0.45015,1.695
19.288,0.22233,0.375,0.50488,0.44477,1.6852
19.296,0.22648,0.38525,0.54004,0.45015,1.6745
19.304,0.23088,0.36523,0.52979,0.47019,1.6608
19.312,0.23528,0.3252,0.56494,0.5,1.6432
19.32,0.23992,0.29492,0.53516,0.53519,1.6217
19.328,0.24432,0.25,0.55518,0.56989,1.6012
19.336,0.24896,0.20508,0.53516,0.59531,1.5797
19.344,0.25238,0.17529,0.52979,0.61486,1.5523
19.352,0.2558,0.15527,0.56006,0.6349,1.521
19.36,0.25825,0.16504,0.52979,0.63001,1.4868
19.368,0.26093,0.1499,0.56006,0.6349,1.4506
19.376,0.26167,0.14014,0.52979,0.64027,1.4145
19.384,0.26264,0.13525,0.56494,0.64516,1.3793
19.392,0.26191,0.15527,0.52979,0.6349,1.3441
19.4,0.26142,0.16016,0.55518,0.63001,1.3089
19.408,0.25922,0.16016,0.52979,0.63001,1.2737
19.416,0.25727,0.16504,0.56006,0.63001,1.2385
19.424,0.25385,0.16504,0.52979,0.62512,1.2033
19.432,0.25067,0.18018,0.55518,0.62023,1.176
19.44,0.24603,0.17529,0.52979,0.62512,1.1515
19.448,0.24139,0.18018,0.55518,0.61486,1.1232
19.456,0.23601,0.18506,0.5249,0.61486,1.0948
19.464,0.23064,0.18018,0.56006,0.61486,1.0674
19.472,0.22624,0.16504,0.5249,0.61486,1.042
19.48,0.22209,0.16016,0.55518,0.62512,1.0166
19.488,0.21915,0.16992,0.5249,0.62023,0.9912
19.496,0.21622,0.16016,0.55518,0.63001,0.96579
19.504,0.21402,0.17529,0.5249,0.62023,0.93842
19.512,0.21207,0.16016,0.5498,0.62512,0.91105
19.52,0.21085,0.18994,0.5249,0.59531,0.88661
19.528,0.20963,0.25488,0.58008,0.55523,0.87292
19.536,0.20963,0.29004,0.5752,0.52493,0.87195
19.544,0.20987,0.31006,0.59521,0.50489,0.88759
19.552,0.21134,0.34521,0.6001,0.48485,0.93157
19.56,0.2128,0.35498,0.61475,0.47507,1.0156
19.568,0.215,0.30518,0.58496,0.5,1.1447
19.576,0.21744,0.28516,0.59521,0.51515,1.3187
19.584,0.22062,0.23486,0.56006,0.54008,1.5327
19.592,0.2238,0.20996,0.53516,0.58016,1.7752
19.6,0.22868,0.13525,0.56006,0.6349,2.0303
19.608,0.23381,0.125,0.5249,0.65005,2.2786
19.616,0.23992,0.12012,0.52979,0.66031,2.5064
19.624,0.24627,0.10498,0.50977,0.6652,2.7009
19.632,0.25189,0.1001,0.52979,0.67498,2.8387
19.64,0.25751,0.095215,0.5,0.67009,2.9296
19.648,0.26215,0.095215,0.52002,0.68524,2.9941
19.656,0.26704,0.084961,0.45996,0.6652,3.0254
19.664,0.27071,0.41504,0.51514,0.50489,3.0244
19.672,0.27437,1.1348,0.60986,0.054741,2.9941
19.68,0.27681,1.5,0.98486,-0.32063,2.9423
19.688,0.2795,1.2749,1.3096,0.024438,2.8759
19.696,0.27975,0.18994,1.1147,0.67498,2.8006
19.704,0.28023,-0.30957,0.70996,0.94526,2.7214
19.712,0.27877,-0.19482,0.58496,0.86022,2.6432
19.72,0.27755,0,0.5249,0.73021,2.5679
19.728,0.2751,0.055176,0.50488,0.70039,2.5024
19.736,0.2729,0.060059,0.46484,0.69013,2.4438
19.744,0.26997,0.070312,0.4751,0.68524,2.3881
19.752,0.26704,0.060059,0.44482,0.68035,2.3363
19.76,0.26264,0.075195,0.43994,0.68035,2.2854
19.768,0.25825,0.090332,0.47021,0.6652,2.2356
19.776,0.25287,0.10498,0.4502,0.66031,2.1848
19.784,0.2475,0.1001,0.48486,0.66031,2.131
19.792,0.24237,0.12012,0.4502,0.65005,2.0743
19.8,0.23723,0.125,0.47998,0.6349,2.0156
19.808,0.23235,0.1499,0.45996,0.62023,1.958
19.816,0.22771,0.16504,0.5,0.61486,1.9022
19.824,0.22404,0.17529,0.47998,0.60508,1.8514
19.832,0.22038,0.18994,0.5,0.58993,1.8104
19.84,0.21818,0.20508,0.47021,0.57527,1.7761
19.848,0.21598,0.22998,0.49512,0.55523,1.7458
19.856,0.21622,0.25,0.46484,0.54008,1.7214
19.864,0.21671,0.27002,0.5,0.52004,1.7028
19.872,0.21915,0.29492,0.47021,0.49511,1.6891
19.88,0.22184,0.30029,0.50977,0.5,1.6794
19.888,0.22477,0.31006,0.47998,0.47996,1.6735
19.896,0.22795,0.33008,0.50977,0.47019,1.6686
19.904,0.23186,0.3501,0.5,0.45992,1.6647
19.912,0.23577,0.3501,0.55518,0.46481,1.6598
19.92,0.24188,0.36523,0.53516,0.47507,1.654
19.928,0.24823,0.31982,0.5752,0.50489,1.6471
19.936,0.25605,0.28516,0.5498,0.53519,1.6383
19.944,0.26387,0.24512,0.56982,0.565,1.6266
19.952,0.27071,0.20508,0.5752,0.59531,1.6119
19.96,0.27755,0.16992,0.5498,0.61486,1.5914
19.968,0.28317,0.1499,0.58008,0.63001,1.567
19.976,0.28879,0.1499,0.54492,0.6349,1.5386
19.984,0.29318,0.14014,0.58496,0.64027,1.5064
19.992,0.29758,0.12988,0.5498,0.65005,1.4712
20,0.30051,0.12988,0.58008,0.64027,1.434
20.008,0.30369,0.13525,0.5498,0.64027,1.3959
20.016,0.30442,0.14502,0.58008,0.6349,1.3578
20.024,0.30516,0.1499,0.55518,0.6349,1.3196
20.032,0.30393,0.14502,0.58496,0.64027,1.2874
20.04,0.30296,0.15527,0.56006,0.63001,1.2571
20.048,0.30076,0.15527,0.58496,0.6349,1.2239
20.056,0.2988,0.15527,0.56006,0.62512,1.1887
20.064,0.29587,0.16504,0.58984,0.62512,1.1535
20.072,0.29318,0.16992,0.56006,0.62023,1.1193
20.08,0.28976,0.1499,0.59521,0.63001,1.087
20.088,0.28659,0.15527,0.56006,0.62023,1.0557
20.096,0.28292,0.15527,0.59521,0.62512,1.0244
20.104,0.2795,0.16016,0.56494,0.62023,0.99413
20.112,0.27657,0.16504,0.58496,0.62023,0.96383
20.12,0.27388,0.2002,0.56982,0.58504,0.93255
20.128,0.27193,0.24023,0.61475,0.56012,0.90616
20.136,0.26997,0.27002,0.6001,0.52981,0.88465
20.144,0.26997,0.28516,0.63477,0.52004,0.86022
20.152,0.26997,0.31494,0.64014,0.5,0.84164
20.16,0.27193,0.29004,0.6499,0.49511,0.83969
20.168,0.27388,0.27002,0.62012,0.52004,0.86706
20.176,0.27852,0.25,0.625,0.53519,0.93353
20.184,0.28341,0.20996,0.6001,0.56012,1.0479
20.192,0.29001,0.18506,0.58984,0.59531,1.2111
20.2,0.29685,0.11523,0.61475,0.64516,1.4203
20.208,0.3032,0.084961,0.5752,0.6652,1.6657
20.216,0.3098,0.080078,0.59521,0.68524,1.9306
20.224,0.31615,0.070312,0.56006,0.68524,2.1975
20.232,0.3225,0.064941,0.58984,0.69501,2.4194
20.24,0.32934,0.070312,0.55518,0.69013,2.6002
20.248,0.33643,0.055176,0.58008,0.70528,2.7703
20.256,0.34351,0.125,0.50977,0.67009,2.9062
20.264,0.35084,0.5498,0.58984,0.435,3
20.272,0.35646,1.3247,0.72998,-0.060606,3.0499
20.28,0.36233,1.5,1.165,-0.33578,3.0587
20.288,0.36648,0.88477,1.3496,0.24487,3.0332
20.296,0.37063,-0.10986,1.0649,0.84018,2.9814
20.304,0.37283,-0.375,0.71973,0.98045,2.911
20.312,0.37503,-0.16504,0.63477,0.83529,2.8289
20.32,0.37503,-0.0097656,0.56982,0.73509,2.7419
20.328,0.37527,0.015137,0.56006,0.71505,2.6628
20.336,0.3721,0.024902,0.5249,0.70528,2.5894
20.344,0.36892,0.030273,0.54004,0.70528,2.5161
20.352,0.36306,0.035156,0.51514,0.70528,2.4467
20.36,0.35744,0.040039,0.50977,0.70039,2.3822
20.368,0.35158,0.055176,0.53516,0.69013,2.3216
20.376,0.34571,0.060059,0.50977,0.68524,2.2649
20.384,0.33985,0.075195,0.54492,0.68035,2.2092
20.392,0.33398,0.090332,0.51514,0.6652,2.1525
20.4,0.32666,0.10498,0.55518,0.65494,2.1026
20.408,0.31957,0.125,0.5249,0.64516,2.0577
20.416,0.31151,0.13525,0.56006,0.63001,2.0098
20.424,0.30344,0.1499,0.52979,0.62023,1.9599
20.432,0.29636,0.16504,0.56006,0.60997,1.9159
20.44,0.28952,0.18018,0.53516,0.58993,1.8778
20.448,0.28366,0.2002,0.5498,0.57527,1.8397
20.456,0.27804,0.2251,0.53516,0.55523,1.8055
20.464,0.27388,0.24023,0.56494,0.54008,1.7781
20.472,0.26997,0.26025,0.54004,0.52004,1.7576
20.48,0.26753,0.27002,0.5752,0.50978,1.7419
20.488,0.26509,0.28027,0.55518,0.5,1.7331
20.496,0.26411,0.29492,0.58984,0.49511,1.7292
20.504,0.26338,0.31006,0.58008,0.49022,1.7283
20.512,0.26387,0.30029,0.62012,0.49511,1.7283
20.52,0.26435,0.29004,0.60498,0.52004,1.7273
20.528,0.26582,0.25,0.64014,0.54985,1.7253
20.536,0.26729,0.20508,0.62012,0.58504,1.7214
20.544,0.26924,0.15527,0.64014,0.62512,1.7146
20.552,0.27119,0.125,0.64502,0.65005,1.7048
20.56,0.27242,0.090332,0.62012,0.6652,1.6931
20.568,0.27364,0.075195,0.64502,0.68035,1.6774
20.576,0.27388,0.064941,0.61475,0.68524,1.6588
20.584,0.27413,0.064941,0.64502,0.68524,1.6364
20.592,0.27315,0.060059,0.61475,0.68524,1.6109
20.6,0.27217,0.060059,0.6499,0.69013,1.5826
20.608,0.26997,0.064941,0.60986,0.68524,1.5523
20.616,0.26802,0.070312,0.64502,0.68035,1.52
20.624,0.26411,0.075195,0.62012,0.67498,1.4868
20.632,0.26044,0.075195,0.6499,0.68035,1.4575
20.64,0.25507,0.080078,0.62012,0.67009,1.4301
20.648,0.24994,0.080078,0.64502,0.67009,1.3988
20.656,0.24334,0.090332,0.62012,0.6652,1.3656
20.664,0.23699,0.090332,0.64502,0.6652,1.3314
20.672,0.22966,0.095215,0.61475,0.66031,1.2981
20.68,0.22233,0.10498,0.64014,0.66031,1.2659
20.688,0.21549,0.12012,0.61475,0.6349,1.2346
20.696,0.20889,0.16992,0.66504,0.6002,1.2033
20.704,0.20303,0.20996,0.6499,0.565,1.173
20.712,0.19717,0.23486,0.69482,0.54985,1.1417
20.72,0.19252,0.2251,0.65479,0.54985,1.1095
20.728,0.18788,0.25488,0.70508,0.53519,1.0831
20.736,0.18397,0.22021,0.65479,0.54497,1.0616
20.744,0.18031,0.2002,0.6748,0.565,1.0401
20.752,0.17811,0.17529,0.64502,0.58016,1.0264
20.76,0.17615,0.13525,0.62988,0.60997,1.0303
20.768,0.17542,0.090332,0.6499,0.65494,1.0616
20.776,0.17493,0.035156,0.60986,0.70039,1.1281
20.784,0.17567,0.02002,0.625,0.71017,1.2366
20.792,0.17664,0.010254,0.58984,0.71994,1.3891
20.8,0.1786,0.0048828,0.60986,0.72532,1.5797
20.808,0.1808,0.010254,0.58008,0.72532,1.7996
20.816,0.18422,0,0.60498,0.73021,2.0342
20.824,0.18764,-0.0048828,0.56982,0.73509,2.2678
20.832,0.19179,0.090332,0.55518,0.73998,2.4585
20.84,0.19619,0.5498,0.5498,0.41984,2.6119
20.848,0.20083,1.2397,0.77979,-0.045455,2.7537
20.856,0.20547,1.5,1.21,-0.26051,2.8661
20.864,0.20987,0.49512,1.3696,0.43011,2.9413
