Time [s], RESP, PLETH, II, V, AVR
0,0.19648,0.41447,0.41569,0.48039,0.49412
0.008,0.18964,0.41153,0.41961,0.48431,0.4902
0.016,0.18377,0.40958,0.4,0.4902,0.5
0.024,0.17693,0.40762,0.38431,0.48431,0.5098
0.032,0.17107,0.40665,0.37451,0.48039,0.51961
0.04,0.16618,0.40665,0.37451,0.47451,0.51569
0.048,0.16031,0.40665,0.4,0.47451,0.52549
0.056,0.15445,0.40567,0.42549,0.47059,0.49412
0.064,0.14761,0.40567,0.42941,0.47451,0.5
0.072,0.14076,0.40567,0.4451,0.43922,0.4902
0.08,0.13392,0.40567,0.46078,0.40392,0.49412
0.088,0.12903,0.40469,0.50588,0.38039,0.46078
0.096,0.12317,0.40371,0.48431,0.35882,0.47451
0.104,0.11926,0.40078,0.43922,0.3451,0.4902
0.112,0.11535,0.39883,0.39412,0.3549,0.52549
0.12,0.11144,0.39687,0.38431,0.37059,0.52941
0.128,0.10753,0.39492,0.37451,0.3902,0.53922
0.136,0.10459,0.39296,0.3451,0.3902,0.55098
0.144,0.10166,0.39101,0.31373,0.3902,0.57451
0.152,0.098729,0.38905,0.30392,0.3902,0.57451
0.16,0.096774,0.38514,0.29412,0.3902,0.58431
0.168,0.094819,0.38221,0.27451,0.4098,0.5902
0.176,0.093842,0.37928,0.17843,0.50588,0.64118
0.184,0.092864,0.37732,0.14314,0.5902,0.6549
0.192,0.092864,0.37732,0.42941,0.62549,0.44902
0.2,0.093842,0.38123,0.89608,-0.031373,0.17843
0.208,0.094819,0.38905,1.2569,-0.48824,0.058824
0.216,0.097752,0.40274,1.102,-0.50196,0.22353
0.224,0.10068,0.42229,0.83529,-0.24314,0.37059
0.232,0.10557,0.44184,0.57451,0.094118,0.47059
0.24,0.10948,0.46334,0.3549,0.3098,0.57059
0.248,0.11437,0.48778,0.2451,0.40392,0.62549
0.256,0.11926,0.51222,0.2098,0.43529,0.63529
0.264,0.12512,0.53568,0.2,0.44902,0.6451
0.272,0.13099,0.55621,0.2098,0.44902,0.62549
0.28,0.13783,0.57478,0.2098,0.44902,0.63529
0.288,0.14467,0.58944,0.21373,0.4451,0.62549
0.296,0.15347,0.60117,0.2098,0.4451,0.63529
0.304,0.16129,0.60802,0.23333,0.4451,0.61569
0.312,0.17009,0.6129,0.22941,0.43922,0.61961
0.32,0.17889,0.61388,0.24902,0.43529,0.60588
0.328,0.18768,0.61193,0.23922,0.43922,0.61569
0.336,0.19648,0.60704,0.2549,0.42941,0.6
0.344,0.2043,0.60117,0.24902,0.42549,0.60588
0.352,0.21114,0.59335,0.26471,0.4098,0.59608
0.36,0.21799,0.58553,0.25882,0.4098,0.6
0.368,0.22385,0.57771,0.27451,0.39412,0.5902
0.376,0.22972,0.56989,0.26863,0.3902,0.58431
0.384,0.23656,0.56207,0.27843,0.38431,0.5902
0.392,0.24145,0.55132,0.2902,0.37451,0.57451
0.4,0.24731,0.53959,0.30392,0.36471,0.56471
0.408,0.2522,0.52688,0.32353,0.35882,0.56078
0.416,0.25611,0.51417,0.3451,0.3549,0.53922
0.424,0.25904,0.50147,0.36471,0.3549,0.52941
0.432,0.26197,0.48974,0.38039,0.35882,0.51961
0.44,0.26393,0.47898,0.39412,0.36471,0.5098
0.448,0.26491,0.46921,0.4,0.38039,0.50588
0.456,0.26491,0.45846,0.41569,0.39412,0.5
0.464,0.26491,0.44966,0.4098,0.4098,0.50588
0.472,0.26197,0.44086,0.41961,0.42941,0.4902
0.48,0.26002,0.435,0.41961,0.4451,0.49412
0.488,0.25513,0.43109,0.42941,0.46078,0.48039
0.496,0.25122,0.42815,0.41961,0.47451,0.4902
0.504,0.24633,0.42522,0.42549,0.48431,0.48039
0.512,0.24242,0.42229,0.41569,0.5,0.49412
0.52,0.23656,0.41935,0.41961,0.49412,0.48431
0.528,0.23167,0.4174,0.4,0.49412,0.50588
0.536,0.22483,0.41642,0.4,0.48431,0.50588
0.544,0.21799,0.41447,0.38039,0.48039,0.51961
0.552,0.21114,0.41349,0.4,0.48039,0.50588
0.56,0.20332,0.41153,0.41961,0.48039,0.5
0.568,0.19746,0.41056,0.43922,0.48039,0.48431
0.576,0.19062,0.40958,0.43922,0.47451,0.5
0.584,0.18475,0.40958,0.46078,0.42549,0.48431
0.592,0.17889,0.40958,0.4902,0.3902,0.47451
0.6,0.174,0.40762,0.50588,0.35882,0.46078
0.608,0.16911,0.40567,0.46078,0.3451,0.48431
0.616,0.16422,0.40371,0.41961,0.33922,0.5098
0.624,0.16031,0.40176,0.38431,0.35882,0.52941
0.632,0.1564,0.3998,0.37451,0.37451,0.53922
0.64,0.15152,0.39785,0.35882,0.3902,0.53529
0.648,0.14858,0.39589,0.32941,0.3902,0.56471
0.656,0.14467,0.39394,0.3098,0.3902,0.57059
0.664,0.14272,0.39101,0.3,0.3902,0.58039
0.672,0.14076,0.38807,0.30392,0.3902,0.57451
0.68,0.13978,0.38416,0.23333,0.44902,0.61961
0.688,0.13978,0.38025,0.1549,0.5451,0.6451
0.696,0.14076,0.37928,0.14902,0.61961,0.57451
0.704,0.14174,0.37928,0.6902,0.22353,0.3
0.712,0.14467,0.38319,1.1059,-0.30784,0.10392
0.72,0.14663,0.39394,1.2627,-0.50196,0.062745
0.728,0.14956,0.40665,0.94118,-0.42353,0.32941
0.736,0.15249,0.42424,0.72157,-0.056863,0.40392
0.744,0.15543,0.44673,0.4451,0.22353,0.53529
0.752,0.15836,0.47312,0.29412,0.37059,0.5902
0.76,0.16227,0.49951,0.22353,0.42549,0.63529
0.768,0.16618,0.52493,0.2098,0.43922,0.63529
0.776,0.17204,0.55718,0.19412,0.44902,0.6451
0.784,0.17693,0.5738,0.2098,0.44902,0.62941
0.792,0.1828,0.58651,0.20392,0.44902,0.64118
0.8,0.18866,0.6002,0.21961,0.4451,0.62549
0.808,0.1955,0.60411,0.22941,0.44902,0.61961
0.816,0.20332,0.60606,0.23333,0.4549,0.62549
0.824,0.20919,0.60704,0.23922,0.4451,0.6098
0.832,0.21603,0.60508,0.23333,0.43922,0.61569
0.84,0.22287,0.60215,0.2549,0.43529,0.6
0.848,0.22874,0.59824,0.24902,0.42941,0.6098
0.856,0.23558,0.59238,0.25882,0.41961,0.59608
0.864,0.24145,0.58162,0.25882,0.4098,0.6
0.872,0.24829,0.5738,0.26863,0.40392,0.5902
0.88,0.25415,0.565,0.26863,0.39412,0.6
0.888,0.25904,0.54839,0.27843,0.3902,0.58431
0.896,0.26491,0.53568,0.27843,0.38039,0.59608
0.904,0.26882,0.52199,0.30392,0.37059,0.57451
0.912,0.27273,0.51026,0.3098,0.36471,0.57059
0.92,0.27566,0.50049,0.33922,0.3549,0.5549
0.928,0.27957,0.49071,0.34902,0.34902,0.55098
0.936,0.2825,0.48192,0.37451,0.35882,0.52941
0.944,0.28543,0.47214,0.38039,0.36471,0.52941
0.952,0.28739,0.46237,0.40392,0.38039,0.50588
0.96,0.28935,0.45259,0.41569,0.3902,0.5098
0.968,0.29032,0.44379,0.42549,0.4098,0.4902
0.976,0.2913,0.43695,0.41961,0.42941,0.49412
0.984,0.29032,0.43109,0.42941,0.43922,0.48431
0.992,0.29032,0.42717,0.43529,0.4549,0.4902
1,0.28837,0.42522,0.42941,0.47059,0.48039
1.008,0.28641,0.42326,0.43922,0.48039,0.47451
1.016,0.2825,0.42131,0.43529,0.49412,0.48039
1.024,0.27859,0.41935,0.43922,0.5,0.48431
1.032,0.27273,0.41838,0.41961,0.50588,0.49412
1.04,0.26686,0.41838,0.4098,0.4902,0.4902
1.048,0.261,0.42033,0.4,0.48039,0.50588
1.056,0.25513,0.42229,0.3902,0.48039,0.5098
1.064,0.24927,0.42326,0.4098,0.48039,0.5
1.072,0.24438,0.42229,0.4451,0.47451,0.48431
1.08,0.23754,0.42033,0.4451,0.48039,0.4902
1.088,0.23069,0.41838,0.46078,0.43922,0.48039
1.096,0.22385,0.41642,0.4549,0.40392,0.48039
1.104,0.21603,0.41447,0.51569,0.38039,0.46078
1.112,0.20821,0.41349,0.50588,0.3549,0.46078
1.12,0.20137,0.41153,0.46078,0.3451,0.48039
1.128,0.19453,0.4086,0.40392,0.34902,0.5098
1.136,0.18768,0.40665,0.4,0.37059,0.51961
1.144,0.1828,0.40371,0.38431,0.38431,0.52941
1.152,0.17693,0.3998,0.35882,0.3902,0.5451
1.16,0.17302,0.39394,0.32353,0.3902,0.57059
1.168,0.16911,0.39003,0.31961,0.3902,0.57059
1.176,0.16618,0.38612,0.3098,0.3902,0.57451
1.184,0.16325,0.38514,0.29412,0.40392,0.58039
1.192,0.16129,0.38807,0.20392,0.4902,0.62941
1.2,0.15934,0.39687,0.15882,0.57451,0.6451
1.208,0.15934,0.40762,0.3902,0.61961,0.48039
1.216,0.15836,0.42229,0.87059,0.0078431,0.2
1.224,0.15934,0.44282,1.2667,-0.47843,0.052941
1.232,0.15934,0.47996,1.1471,-0.50196,0.2
1.24,0.16227,0.50538,0.86078,-0.28824,0.3549
1.248,0.16422,0.53177,0.61569,0.062745,0.44902
1.256,0.16813,0.56598,0.3902,0.28431,0.55098
1.264,0.17204,0.58358,0.26863,0.39412,0.60588
1.272,0.17693,0.59824,0.22941,0.42941,0.62549
1.28,0.1828,0.60899,0.2098,0.43529,0.63529
1.288,0.18866,0.61584,0.21373,0.43922,0.62549
1.296,0.19453,0.61877,0.2098,0.43922,0.63529
1.304,0.20039,0.61779,0.21961,0.43922,0.62549
1.312,0.20626,0.61584,0.21373,0.43529,0.62941
1.32,0.21114,0.61095,0.23333,0.43529,0.61569
1.328,0.21603,0.60508,0.22941,0.43529,0.62549
1.336,0.2219,0.59824,0.23922,0.42941,0.6098
1.344,0.22776,0.59042,0.23333,0.42941,0.61569
1.352,0.2346,0.58358,0.2549,0.42549,0.60588
1.36,0.24047,0.57576,0.24902,0.41961,0.60588
1.368,0.24633,0.56794,0.26471,0.4098,0.5902
1.376,0.2522,0.55914,0.2549,0.4,0.6
1.384,0.25709,0.54741,0.26863,0.39412,0.58431
1.392,0.26197,0.5347,0.27451,0.3902,0.59608
1.4,0.26588,0.52199,0.26863,0.38039,0.58431
1.408,0.27077,0.51026,0.28431,0.37451,0.5902
1.416,0.2737,0.49853,0.3098,0.36471,0.57059
1.424,0.27761,0.48778,0.32353,0.3549,0.56078
1.432,0.28055,0.47801,0.33922,0.34902,0.55098
1.44,0.28348,0.46823,0.34902,0.34902,0.5451
1.448,0.28641,0.45846,0.37451,0.35882,0.52549
1.456,0.28837,0.44868,0.4,0.36471,0.51569
1.464,0.28935,0.43988,0.40392,0.38039,0.50588
1.472,0.29032,0.43402,0.41961,0.39412,0.5
1.48,0.29032,0.43011,0.41961,0.4098,0.50588
1.488,0.29032,0.42717,0.42941,0.42941,0.48431
1.496,0.28935,0.42424,0.42549,0.4451,0.49412
1.504,0.28739,0.42424,0.43922,0.46078,0.48039
1.512,0.28446,0.42522,0.42941,0.47059,0.4902
1.52,0.28152,0.4262,0.43922,0.48039,0.48039
1.528,0.27859,0.4262,0.42549,0.4902,0.48431
1.536,0.27468,0.42717,0.42941,0.49412,0.48039
1.544,0.27077,0.4262,0.4098,0.48431,0.5
1.552,0.26686,0.42522,0.40392,0.48039,0.5
1.56,0.261,0.42326,0.38431,0.47451,0.51961
1.568,0.25611,0.41935,0.39412,0.47059,0.5098
1.576,0.24927,0.41544,0.4098,0.47059,0.50588
1.584,0.24242,0.41153,0.4451,0.46471,0.48431
1.592,0.2346,0.4086,0.44902,0.47059,0.48039
1.6,0.22776,0.40567,0.4451,0.42549,0.4902
1.608,0.21994,0.40371,0.48039,0.3902,0.48039
1.616,0.2131,0.40176,0.5098,0.36471,0.46078
1.624,0.20626,0.3998,0.48431,0.3451,0.4549
1.632,0.20039,0.39785,0.43529,0.33922,0.49412
1.64,0.1955,0.39687,0.39412,0.3451,0.51961
1.648,0.19062,0.39492,0.37451,0.35882,0.52941
1.656,0.18573,0.39198,0.38431,0.37451,0.52549
1.664,0.18182,0.39003,0.33529,0.38039,0.5549
1.672,0.17791,0.38807,0.31961,0.37451,0.57059
1.68,0.174,0.38612,0.30392,0.38431,0.58039
1.688,0.17107,0.38612,0.3098,0.38431,0.57451
1.696,0.16813,0.38905,0.25882,0.40392,0.59608
1.704,0.16618,0.39492,0.17843,0.5,0.64118
1.712,0.1652,0.40665,0.13922,0.5902,0.6549
1.72,0.1652,0.42229,0.50588,0.41569,0.4098
1.728,0.1652,0.44379,0.93137,-0.10196,0.17451
1.736,0.16618,0.46823,1.2725,-0.50196,0.068627
1.744,0.16813,0.49365,1.051,-0.50196,0.26863
1.752,0.17009,0.52102,0.81569,-0.21765,0.37451
1.76,0.17302,0.54545,0.53922,0.11961,0.49412
1.768,0.17595,0.56696,0.33922,0.3098,0.57451
1.776,0.17986,0.58456,0.23922,0.39412,0.62549
1.784,0.18377,0.59824,0.22353,0.42549,0.62941
1.792,0.18866,0.60802,0.2,0.43529,0.64118
1.8,0.19355,0.6129,0.2098,0.43922,0.62941
1.808,0.19844,0.61584,0.2,0.43529,0.64118
1.816,0.20528,0.61584,0.2098,0.43529,0.62941
1.824,0.21212,0.6129,0.21373,0.43529,0.62549
1.832,0.21994,0.60899,0.2098,0.42941,0.62941
1.84,0.22776,0.60508,0.23333,0.42941,0.61961
1.848,0.2346,0.6002,0.23333,0.42941,0.6098
1.856,0.24242,0.59335,0.2451,0.42941,0.60588
1.864,0.24927,0.58553,0.23333,0.41961,0.61569
1.872,0.25611,0.57674,0.2549,0.4098,0.6
1.88,0.26295,0.56696,0.2549,0.4,0.60588
1.888,0.27077,0.55523,0.26863,0.39412,0.59608
1.896,0.27859,0.5435,0.26471,0.3902,0.5902
1.904,0.28641,0.53079,0.28431,0.38431,0.58039
1.912,0.29326,0.51711,0.27843,0.38039,0.58431
1.92,0.3001,0.50342,0.30392,0.37059,0.57451
1.928,0.30694,0.48974,0.30392,0.36471,0.57451
1.936,0.31281,0.47605,0.32941,0.34902,0.5549
1.944,0.31769,0.46334,0.3451,0.3451,0.5549
1.952,0.32356,0.45259,0.37451,0.34902,0.52941
1.96,0.32649,0.44184,0.38431,0.35882,0.52941
1.968,0.3304,0.43304,0.4,0.36471,0.5098
1.976,0.33333,0.42717,0.4,0.38431,0.50588
1.984,0.33529,0.42326,0.41961,0.4,0.4902
1.992,0.33627,0.42033,0.42549,0.41569,0.5
2,0.33724,0.41935,0.41961,0.42941,0.48431
2.008,0.33724,0.4174,0.42941,0.4451,0.49412
2.016,0.33627,0.41642,0.42549,0.46078,0.48039
2.024,0.33529,0.41544,0.4451,0.47451,0.48039
2.032,0.33333,0.41447,0.42549,0.48431,0.4902
2.04,0.3304,0.41251,0.43529,0.5,0.48039
2.048,0.32649,0.41153,0.41961,0.5,0.49412
2.056,0.3216,0.41153,0.40392,0.49412,0.4902
2.064,0.31672,0.41056,0.3902,0.48039,0.5098
2.072,0.31085,0.4086,0.4,0.47451,0.50588
2.08,0.30401,0.40665,0.38431,0.47059,0.51961
2.088,0.29717,0.40469,0.41961,0.47059,0.50588
2.096,0.29032,0.40274,0.43529,0.47059,0.5
2.104,0.28446,0.40078,0.4451,0.47059,0.49412
2.112,0.27859,0.39883,0.43922,0.42549,0.5
2.12,0.2737,0.39687,0.4902,0.39412,0.47059
2.128,0.26882,0.39492,0.5098,0.36471,0.46471
2.136,0.26393,0.39296,0.49412,0.34902,0.46078
2.144,0.25904,0.39003,0.42941,0.33922,0.50588
2.152,0.25415,0.38807,0.4,0.3451,0.51569
2.16,0.24927,0.38514,0.37451,0.36471,0.53529
2.168,0.24633,0.38123,0.37451,0.3902,0.52941
2.176,0.2434,0.37928,0.32941,0.3902,0.56471
2.184,0.24145,0.37634,0.31373,0.3902,0.56471
2.192,0.24047,0.37537,0.3,0.3902,0.58431
2.2,0.24145,0.37634,0.30392,0.3902,0.58039
2.208,0.24242,0.38025,0.2451,0.42549,0.60588
2.216,0.24536,0.38905,0.16471,0.51961,0.64118
2.224,0.24829,0.40371,0.14902,0.6098,0.60588
2.232,0.25513,0.42229,0.61569,0.3549,0.34902
2.24,0.261,0.44477,1.0863,-0.17255,0.11373
2.248,0.26979,0.47019,1.3373,-0.50196,0.043137
2.256,0.27859,0.4956,1.051,-0.42353,0.27451
2.264,0.28837,0.52102,0.78039,-0.10588,0.38039
2.272,0.29814,0.5435,0.5098,0.17451,0.49412
2.28,0.3089,0.56305,0.31961,0.33922,0.58039
2.288,0.31965,0.57869,0.23922,0.4098,0.61961
2.296,0.33627,0.58847,0.2098,0.43529,0.62941
2.304,0.35191,0.59433,0.2098,0.43922,0.62549
2.312,0.37146,0.59922,0.2,0.4451,0.63529
2.32,0.39101,0.60117,0.2098,0.44902,0.62549
2.328,0.41153,0.60117,0.2098,0.4451,0.62549
2.336,0.43109,0.59824,0.22941,0.43922,0.6098
2.344,0.45161,0.59433,0.22353,0.43922,0.61569
2.352,0.47214,0.58847,0.23922,0.43922,0.60588
2.36,0.49658,0.58065,0.23922,0.43922,0.6098
2.368,0.52102,0.57283,0.2549,0.43529,0.6
2.376,0.54839,0.56403,0.2549,0.42941,0.60588
2.384,0.57576,0.55327,0.27451,0.41569,0.58431
2.392,0.60508,0.5435,0.26863,0.4098,0.59608
2.4,0.63539,0.53275,0.2902,0.4,0.57451
2.408,0.66569,0.52004,0.28431,0.3902,0.58431
2.416,0.69599,0.50733,0.3,0.3902,0.57059
2.424,0.72336,0.4956,0.30392,0.38431,0.56471
2.432,0.75073,0.48289,0.31961,0.37059,0.57059
2.44,0.77517,0.47019,0.32353,0.36471,0.5549
2.448,0.79961,0.45846,0.34902,0.34902,0.53922
2.456,0.82307,0.4477,0.37059,0.34902,0.53529
2.464,0.84653,0.43793,0.38431,0.34902,0.51961
2.472,0.86999,0.42913,0.4098,0.35882,0.50588
2.48,0.89345,0.42229,0.41961,0.36471,0.5
2.488,0.913,0.4174,0.43529,0.38431,0.48431
2.496,0.93255,0.41349,0.42941,0.4,0.4902
2.504,0.94819,0.41251,0.4451,0.41569,0.48039
2.512,0.96481,0.41056,0.4451,0.42549,0.48039
2.52,0.97849,0.40958,0.4549,0.43922,0.47059
2.528,0.99316,0.4086,0.4451,0.4549,0.48039
2.536,0.99609,0.40665,0.46078,0.46471,0.47059
2.544,1,0.40567,0.44902,0.48039,0.47451
2.552,1,0.40469,0.4549,0.48431,0.46471
2.56,1,0.40371,0.43529,0.4902,0.48431
2.568,1,0.40274,0.42941,0.4902,0.48039
2.576,1,0.40176,0.4098,0.48039,0.5
2.584,1,0.3998,0.41569,0.48039,0.5
2.592,1,0.39785,0.4,0.47451,0.5098
2.6,1,0.39687,0.43922,0.47059,0.48431
2.608,1,0.39492,0.4549,0.48039,0.48039
2.616,1,0.39198,0.47059,0.47451,0.47451
2.624,1,0.39101,0.47059,0.43529,0.48039
2.632,1,0.38905,0.5098,0.39412,0.46078
2.64,1,0.3871,0.53529,0.37451,0.44902
2.648,1,0.38514,0.5098,0.3549,0.4549
2.656,1,0.38319,0.4451,0.35882,0.4902
2.664,1,0.38025,0.40392,0.36471,0.5098
2.672,1,0.37732,0.39412,0.3902,0.51961
2.68,1,0.37341,0.38431,0.39412,0.52941
2.688,1,0.37048,0.34902,0.40392,0.55098
2.696,1,0.36755,0.31373,0.4,0.57059
2.704,1,0.36852,0.3098,0.40392,0.56471
2.712,1,0.37341,0.3,0.40392,0.57451
2.72,1,0.3783,0.2451,0.4451,0.6
2.728,1,0.38807,0.13922,0.53529,0.6549
2.736,1,0.40371,0.13333,0.60588,0.59608
2.744,1,0.42424,0.66078,0.29412,0.33529
2.752,1,0.4477,1.1059,-0.20784,0.10392
2.76,1,0.4741,1.3078,-0.50196,0.043137
2.768,1,0.50147,1.0216,-0.40196,0.27451
2.776,1,0.52786,0.77059,-0.092157,0.38431
2.784,1,0.5523,0.50588,0.17843,0.49412
2.792,1,0.56989,0.30392,0.32941,0.5902
2.8,1,0.5826,0.22941,0.40392,0.61961
2.808,1,0.59433,0.19412,0.42549,0.6451
2.816,1,0.60411,0.20392,0.43529,0.62941
2.824,1,0.60997,0.18824,0.43922,0.64118
2.832,1,0.61193,0.2,0.43922,0.62941
2.84,1,0.61193,0.2098,0.43922,0.64118
2.848,1,0.60899,0.2,0.43529,0.62941
2.856,1,0.60508,0.2098,0.43922,0.62941
2.864,1,0.60117,0.21961,0.43529,0.61961
2.872,1,0.59531,0.23333,0.43529,0.61569
2.88,1,0.58847,0.22941,0.42941,0.62549
2.888,1,0.58162,0.2451,0.42941,0.60588
2.896,1,0.57478,0.23922,0.4098,0.61569
2.904,1,0.56696,0.2549,0.4,0.6
2.912,1,0.55718,0.24902,0.3902,0.60588
2.92,1,0.54545,0.26471,0.3902,0.5902
2.928,1,0.53079,0.2549,0.38039,0.6
2.936,1,0.51711,0.27451,0.37451,0.58431
2.944,1,0.50342,0.27451,0.36471,0.59608
2.952,1,0.49169,0.30392,0.3549,0.57451
2.96,1,0.48094,0.30392,0.33922,0.57451
2.968,1,0.47019,0.32941,0.33922,0.5549
2.976,1,0.46139,0.33529,0.33922,0.5549
2.984,1,0.45357,0.36471,0.34902,0.53529
2.992,1,0.44868,0.37059,0.36471,0.53529
3,1,0.44379,0.3902,0.37451,0.51569
3.008,1,0.43988,0.38431,0.3902,0.52549
3.016,1,0.43695,0.4,0.39412,0.50588
3.024,1,0.43402,0.4,0.41569,0.5098
3.032,1,0.43206,0.4098,0.42941,0.50588
3.04,1,0.43206,0.41569,0.4451,0.50588
3.048,1,0.43304,0.40392,0.44902,0.5
3.056,1,0.43402,0.41569,0.46471,0.50588
3.064,1,0.43402,0.40392,0.47451,0.50588
3.072,1,0.43402,0.39412,0.48039,0.5098
3.08,1,0.43304,0.38431,0.47451,0.51961
3.088,1,0.43206,0.3902,0.47451,0.5098
3.096,1,0.43109,0.36471,0.46078,0.52941
3.104,1,0.43011,0.37451,0.46471,0.52941
3.112,1,0.42913,0.40392,0.46078,0.51569
3.12,1,0.42717,0.42941,0.46078,0.5
3.128,1,0.4262,0.42941,0.46471,0.50588
3.136,1,0.42424,0.4451,0.41961,0.5
3.144,0.98143,0.42229,0.46471,0.38431,0.50588
3.152,0.96188,0.42033,0.5,0.35882,0.47451
3.16,0.94233,0.4174,0.47059,0.33922,0.48431
3.168,0.92278,0.41447,0.42549,0.33529,0.50588
3.176,0.90225,0.41056,0.37451,0.33922,0.53922
3.184,0.88172,0.40665,0.37059,0.36471,0.53529
3.192,0.86315,0.40371,0.3451,0.38039,0.5549
3.2,0.8436,0.40176,0.31961,0.38431,0.57059
3.208,0.82698,0.39883,0.2902,0.38431,0.59608
3.216,0.80938,0.39785,0.27843,0.38039,0.5902
3.224,0.79472,0.40078,0.26863,0.3902,0.6
3.232,0.78006,0.40762,0.23333,0.41961,0.61961
3.24,0.76833,0.41838,0.13922,0.51961,0.67059
3.248,0.7566,0.435,0.11961,0.5902,0.61961
3.256,0.74682,0.45748,0.56471,0.37059,0.38039
3.264,0.73705,0.48289,1.002,-0.15686,0.14902
3.272,0.72923,0.50929,1.2314,-0.50196,0.07451
3.28,0.72141,0.5347,0.97647,-0.42353,0.3
3.288,0.71359,0.56012,0.75098,-0.11765,0.4
3.296,0.70674,0.57869,0.49412,0.15882,0.50588
3.304,0.70088,0.5914,0.30392,0.32941,0.5902
3.312,0.69404,0.60313,0.21373,0.40392,0.62941
3.32,0.68915,0.61193,0.19412,0.42941,0.64118
3.328,0.68328,0.61681,0.18431,0.43922,0.6451
3.336,0.6784,0.61975,0.18824,0.4451,0.6451
3.344,0.67351,0.62072,0.18431,0.43529,0.6451
3.352,0.6696,0.62072,0.18824,0.43529,0.64118
3.36,0.66569,0.61779,0.18431,0.43922,0.6451
3.368,0.66276,0.61486,0.2,0.43529,0.63529
3.376,0.65885,0.60997,0.19412,0.43529,0.64118
3.384,0.65591,0.60313,0.21373,0.43529,0.62549
3.392,0.65298,0.59629,0.21373,0.42941,0.62549
3.4,0.65005,0.58847,0.23333,0.42549,0.6098
3.408,0.64614,0.57967,0.23333,0.41961,0.61569
3.416,0.64321,0.56891,0.2451,0.4098,0.60588
3.424,0.64027,0.55718,0.23922,0.39412,0.6098
3.432,0.63636,0.54252,0.24902,0.38431,0.6
3.44,0.63343,0.52786,0.2549,0.38039,0.6
3.448,0.62952,0.51417,0.26471,0.36471,0.58431
3.456,0.62561,0.50147,0.26863,0.36471,0.5902
3.464,0.6217,0.48974,0.27843,0.3451,0.58039
3.472,0.61779,0.47996,0.3,0.33922,0.57451
3.48,0.61193,0.47019,0.31961,0.32941,0.56078
3.488,0.60704,0.46041,0.3451,0.33529,0.55098
3.496,0.60117,0.45259,0.35882,0.33922,0.52941
3.504,0.59531,0.4477,0.37451,0.34902,0.52549
3.512,0.58749,0.44184,0.38039,0.35882,0.52941
3.52,0.57869,0.43793,0.4,0.38039,0.5098
3.528,0.56891,0.435,0.39412,0.3902,0.51569
3.536,0.56012,0.43206,0.40392,0.41569,0.5
3.544,0.54936,0.42913,0.4,0.43529,0.50588
3.552,0.53959,0.42717,0.41569,0.4451,0.4902
3.56,0.52884,0.42424,0.40392,0.46471,0.49412
3.568,0.51906,0.42229,0.4098,0.48039,0.4902
3.576,0.50538,0.42033,0.38431,0.4902,0.50588
3.584,0.49169,0.41935,0.38431,0.49412,0.50588
3.592,0.47605,0.41935,0.36471,0.48431,0.52549
3.6,0.45943,0.41935,0.37059,0.48039,0.52549
3.608,0.44379,0.41935,0.34902,0.47451,0.53529
3.616,0.42913,0.41838,0.36471,0.46471,0.52549
3.624,0.41349,0.4174,0.38431,0.46078,0.51961
3.632,0.39883,0.41642,0.41569,0.46471,0.50588
3.64,0.38319,0.41447,0.41569,0.47059,0.5098
3.648,0.36657,0.41251,0.42941,0.4098,0.5
3.656,0.34995,0.41056,0.46471,0.38431,0.48039
3.664,0.33333,0.4086,0.4902,0.3549,0.46471
3.672,0.31672,0.40567,0.46078,0.3451,0.48431
3.68,0.3001,0.40371,0.4098,0.33922,0.50588
3.688,0.28348,0.40176,0.37059,0.35882,0.53529
3.696,0.26784,0.40078,0.3549,0.36471,0.55098
3.704,0.25415,0.39883,0.35882,0.3902,0.5451
3.712,0.24047,0.39687,0.30392,0.3902,0.57451
3.72,0.22972,0.39394,0.2902,0.3902,0.5902
3.728,0.21896,0.39296,0.27451,0.3902,0.6
3.736,0.20919,0.39296,0.27843,0.3902,0.5902
3.744,0.20039,0.39687,0.21961,0.43529,0.62549
3.752,0.19257,0.40567,0.14314,0.52941,0.65098
3.76,0.18573,0.41935,0.13333,0.61569,0.6549
3.768,0.17986,0.43891,0.62549,0.31373,0.33922
3.776,0.174,0.46237,1.0275,-0.20784,0.12941
3.784,0.17009,0.48778,1.2373,-0.50196,0.062745
3.792,0.16716,0.50929,0.96667,-0.44706,0.31373
3.8,0.1652,0.52981,0.74118,-0.11765,0.4
3.808,0.16325,0.55034,0.46471,0.17843,0.51961
3.816,0.16227,0.56794,0.3,0.33529,0.5902
3.824,0.16129,0.58162,0.21961,0.40392,0.62549
3.832,0.16227,0.5914,0.2098,0.42941,0.62941
3.84,0.16227,0.59824,0.19412,0.43529,0.64118
3.848,0.16422,0.6002,0.18824,0.43529,0.63529
3.856,0.1652,0.6002,0.19412,0.43922,0.64118
3.864,0.16716,0.59726,0.20392,0.43529,0.62549
3.872,0.16813,0.59238,0.2098,0.43529,0.62941
3.88,0.17107,0.58651,0.20392,0.43529,0.61961
3.888,0.17302,0.57967,0.22353,0.43529,0.61569
3.896,0.17595,0.57478,0.21373,0.43529,0.62549
3.904,0.17889,0.56891,0.23333,0.42941,0.60588
3.912,0.18182,0.56305,0.23922,0.42549,0.6098
3.92,0.18573,0.55523,0.24902,0.41961,0.6
3.928,0.18866,0.54643,0.2451,0.40392,0.60588
3.936,0.19159,0.53568,0.25882,0.4,0.59608
3.944,0.19355,0.52395,0.2549,0.3902,0.6
3.952,0.1955,0.51026,0.27451,0.3902,0.58039
3.96,0.19746,0.49658,0.26863,0.38039,0.58431
3.968,0.20039,0.48485,0.29412,0.37451,0.57451
3.976,0.20137,0.47312,0.30392,0.36471,0.57451
3.984,0.20332,0.46334,0.32353,0.34902,0.5549
3.992,0.2043,0.45455,0.33922,0.3451,0.55098
4,0.20528,0.44673,0.36471,0.3451,0.52941
4.008,0.20528,0.43891,0.37451,0.35882,0.52941
4.016,0.20528,0.43206,0.4,0.36471,0.5098
4.024,0.20528,0.42717,0.4,0.37451,0.51569
4.032,0.20528,0.42326,0.4098,0.3902,0.5
4.04,0.2043,0.42033,0.41961,0.4098,0.50588
4.048,0.2043,0.41838,0.42549,0.42549,0.4902
4.056,0.20137,0.41642,0.43529,0.43922,0.48431
4.064,0.19941,0.4174,0.42549,0.4549,0.4902
4.072,0.1955,0.41838,0.43529,0.47059,0.48039
4.08,0.19159,0.41838,0.41961,0.48039,0.4902
4.088,0.18768,0.41838,0.42941,0.49412,0.48039
4.096,0.18377,0.41838,0.4098,0.49412,0.49412
4.104,0.17889,0.41642,0.39412,0.5,0.4902
4.112,0.174,0.41447,0.38431,0.48039,0.51569
4.12,0.16813,0.41251,0.38039,0.48039,0.51569
4.128,0.16227,0.40958,0.37451,0.47451,0.52549
4.136,0.15543,0.40567,0.42941,0.47451,0.49412
4.144,0.14858,0.40176,0.43529,0.48039,0.5
4.152,0.14174,0.39785,0.4451,0.46471,0.48431
4.16,0.1349,0.39492,0.44902,0.41569,0.49412
4.168,0.12805,0.39296,0.5098,0.38431,0.46078
4.176,0.12121,0.39003,0.51569,0.35882,0.46078
4.184,0.11535,0.38807,0.47451,0.3451,0.47451
4.192,0.10948,0.38612,0.41569,0.3451,0.50588
4.2,0.10459,0.38416,0.3902,0.35882,0.51961
4.208,0.10068,0.38221,0.38039,0.38039,0.53529
4.216,0.096774,0.38025,0.37059,0.3902,0.5451
4.224,0.092864,0.3783,0.32353,0.3902,0.57059
4.232,0.089932,0.37634,0.31373,0.38431,0.57451
4.24,0.087977,0.37439,0.30392,0.38431,0.57451
4.248,0.086022,0.37634,0.29412,0.38039,0.58039
4.256,0.085044,0.38025,0.22353,0.4549,0.61961
4.264,0.085044,0.39003,0.14902,0.53922,0.65098
4.272,0.085044,0.40469,0.25882,0.61961,0.57059
4.28,0.086022,0.42326,0.71569,0.19412,0.28431
4.288,0.086999,0.44184,1.1412,-0.33725,0.088235
4.296,0.089932,0.46139,1.2667,-0.50196,0.068627
4.304,0.092864,0.48485,0.92549,-0.39804,0.33529
4.312,0.097752,0.50929,0.69608,-0.041176,0.41569
4.32,0.10264,0.53275,0.4451,0.22353,0.51961
4.328,0.10948,0.55425,0.28431,0.37059,0.6
4.336,0.11535,0.57087,0.22353,0.41961,0.62549
4.344,0.12219,0.58358,0.20392,0.43529,0.63529
4.352,0.12805,0.5914,0.2098,0.43922,0.62549
4.36,0.1349,0.59629,0.2098,0.4451,0.63529
4.368,0.14076,0.59824,0.21373,0.43529,0.62549
4.376,0.14858,0.59629,0.2098,0.43529,0.62941
4.384,0.1564,0.59335,0.22941,0.43529,0.61961
4.392,0.1652,0.58847,0.22353,0.43529,0.62549
4.4,0.174,0.5826,0.23333,0.43529,0.61569
4.408,0.18182,0.57674,0.23333,0.43922,0.61961
4.416,0.19062,0.56989,0.2451,0.42941,0.60588
4.424,0.19746,0.56207,0.23922,0.42549,0.6098
4.432,0.2043,0.5523,0.2549,0.41569,0.6
4.44,0.21114,0.54154,0.2549,0.40392,0.6
4.448,0.21799,0.52981,0.26471,0.39412,0.5902
4.456,0.22385,0.51808,0.26863,0.39412,0.6
4.464,0.23069,0.50538,0.27843,0.38431,0.5902
4.472,0.2346,0.49365,0.27843,0.38431,0.58431
4.48,0.23949,0.48094,0.29412,0.37059,0.57451
4.488,0.2434,0.47116,0.30392,0.36471,0.57451
4.496,0.24731,0.46237,0.31961,0.34902,0.56471
4.504,0.25024,0.45259,0.33922,0.34902,0.5549
4.512,0.25318,0.44477,0.35882,0.34902,0.5451
4.52,0.25415,0.43695,0.37451,0.36471,0.52941
4.528,0.25611,0.43206,0.3902,0.37059,0.51961
4.536,0.25611,0.42815,0.4098,0.3902,0.5098
4.544,0.25611,0.42424,0.4098,0.40392,0.51569
4.552,0.25513,0.42033,0.41961,0.42549,0.5
4.56,0.25318,0.41838,0.41569,0.43529,0.50588
4.568,0.25024,0.41544,0.42549,0.44902,0.4902
4.576,0.24829,0.41349,0.41961,0.46078,0.49412
4.584,0.24536,0.41349,0.42941,0.47059,0.4902
4.592,0.24242,0.41447,0.41961,0.48431,0.49412
4.6,0.23754,0.41642,0.41961,0.4902,0.4902
4.608,0.23265,0.41838,0.4,0.49412,0.50588
4.616,0.22581,0.42033,0.4,0.4902,0.50588
4.624,0.21994,0.42229,0.38039,0.48039,0.52549
4.632,0.21212,0.42229,0.37451,0.48039,0.51569
4.64,0.20528,0.42131,0.39412,0.47451,0.52549
4.648,0.19746,0.41935,0.41961,0.47059,0.50588
4.656,0.18964,0.41642,0.42549,0.47451,0.5098
4.664,0.1828,0.41349,0.43922,0.44902,0.5
4.672,0.17595,0.40958,0.4549,0.4098,0.5
4.68,0.16911,0.40665,0.4902,0.38039,0.47059
4.688,0.16325,0.40469,0.49412,0.35882,0.48039
4.696,0.15738,0.40274,0.43922,0.3451,0.50588
4.704,0.15249,0.40078,0.3902,0.34902,0.52549
4.712,0.14663,0.39883,0.37059,0.36471,0.53922
4.72,0.14174,0.39492,0.38039,0.38431,0.53529
4.728,0.13685,0.39101,0.33922,0.3902,0.56078
4.736,0.13294,0.3871,0.31373,0.3902,0.57059
4.744,0.13001,0.38319,0.29412,0.3902,0.58431
4.752,0.1261,0.38221,0.3,0.3902,0.58039
4.76,0.12414,0.38612,0.26863,0.3902,0.6
4.768,0.12219,0.39296,0.2098,0.47451,0.62941
4.776,0.12121,0.40567,0.13922,0.56078,0.66471
4.784,0.12121,0.42424,0.3451,0.6098,0.5098
4.792,0.12121,0.44184,0.79608,0.098039,0.24902
4.8,0.12219,0.46139,1.2078,-0.41176,0.068627
4.808,0.12414,0.48485,1.2569,-0.50196,0.18824
4.816,0.12708,0.50929,0.88039,-0.33725,0.34902
4.824,0.13001,0.53372,0.63529,0.023529,0.44902
4.832,0.13294,0.55523,0.4,0.26471,0.5451
4.84,0.13685,0.5738,0.26471,0.38431,0.61569
4.848,0.14076,0.58944,0.21961,0.42941,0.62549
4.856,0.14663,0.6002,0.20392,0.4451,0.64118
4.864,0.15249,0.60899,0.2098,0.4451,0.62941
4.872,0.15836,0.61486,0.20392,0.4549,0.64118
4.88,0.1652,0.61779,0.2098,0.4451,0.62941
4.888,0.17107,0.61779,0.21373,0.44902,0.62549
4.896,0.17791,0.61584,0.2098,0.4451,0.62941
4.904,0.18377,0.61193,0.22353,0.4451,0.62549
4.912,0.19062,0.60802,0.22941,0.43529,0.61961
4.92,0.19746,0.60117,0.23333,0.43529,0.61569
4.928,0.2043,0.59335,0.23922,0.43529,0.61961
4.936,0.21114,0.58553,0.24902,0.42941,0.6098
4.944,0.21896,0.57674,0.24902,0.41569,0.60588
4.952,0.22581,0.56696,0.25882,0.4098,0.6
4.96,0.23265,0.55621,0.2549,0.4,0.59608
4.968,0.23949,0.54448,0.27451,0.39412,0.5902
4.976,0.24536,0.53275,0.26471,0.38431,0.6
4.984,0.25122,0.52004,0.27843,0.38039,0.5902
4.992,0.25611,0.50831,0.2902,0.36471,0.58431
5,0.261,0.49853,0.31373,0.35882,0.56471
5.008,0.26588,0.4868,0.32353,0.34902,0.56078
5.016,0.26882,0.47507,0.34902,0.3451,0.55098
5.024,0.27175,0.46432,0.3549,0.3549,0.5451
5.032,0.2737,0.45455,0.38431,0.35882,0.52549
5.04,0.27566,0.44575,0.3902,0.37451,0.52549
5.048,0.27566,0.43891,0.40392,0.3902,0.50588
5.056,0.27664,0.43402,0.4098,0.4098,0.50588
5.064,0.27664,0.43011,0.40392,0.41569,0.49412
5.072,0.27664,0.42815,0.41569,0.43529,0.5
5.08,0.27468,0.42815,0.41961,0.44902,0.48431
5.088,0.27273,0.42815,0.41961,0.46078,0.4902
5.096,0.26979,0.42815,0.41961,0.47451,0.48039
5.104,0.26686,0.42815,0.41569,0.4902,0.4902
5.112,0.26197,0.42815,0.4,0.49412,0.5
5.12,0.25806,0.42913,0.3902,0.4902,0.5098
5.128,0.2522,0.43011,0.37451,0.49412,0.51961
5.136,0.24731,0.43109,0.37059,0.48039,0.51569
5.144,0.24145,0.43109,0.35882,0.47059,0.52941
5.152,0.23558,0.43011,0.39412,0.47451,0.51961
5.16,0.22972,0.42815,0.4098,0.47059,0.50588
5.168,0.22385,0.4262,0.42941,0.47451,0.5
5.176,0.21799,0.42424,0.42941,0.44902,0.50588
5.184,0.21212,0.42229,0.46471,0.40392,0.48431
5.192,0.20528,0.42033,0.4902,0.38039,0.47451
5.2,0.19941,0.41935,0.5,0.35882,0.46471
5.208,0.19453,0.4174,0.43529,0.34902,0.5
5.216,0.18964,0.41544,0.39412,0.3451,0.52549
5.224,0.18475,0.41349,0.37059,0.36471,0.55098
5.232,0.17986,0.41056,0.37059,0.38431,0.5451
5.24,0.17595,0.40665,0.32941,0.39412,0.57059
5.248,0.17204,0.40469,0.3098,0.3902,0.57451
5.256,0.16911,0.40176,0.2902,0.39412,0.59608
5.264,0.16618,0.40078,0.29412,0.39412,0.58431
5.272,0.16422,0.40371,0.26471,0.40392,0.6
5.28,0.16227,0.41056,0.19412,0.4902,0.63529
5.288,0.16227,0.41935,0.13922,0.58039,0.65098
5.296,0.16227,0.43304,0.38431,0.62549,0.48039
5.304,0.16325,0.45161,0.8451,0.033333,0.21961
5.312,0.16325,0.47507,1.2431,-0.46275,0.058824
5.32,0.1652,0.50147,1.1216,-0.50196,0.21373
5.328,0.16618,0.52884,0.83529,-0.27255,0.37059
5.336,0.16911,0.55425,0.59608,0.062745,0.46471
5.344,0.17302,0.57576,0.37059,0.28431,0.56078
5.352,0.17693,0.59238,0.2549,0.39412,0.61569
5.36,0.18084,0.60411,0.2098,0.42941,0.63529
5.368,0.18475,0.61388,0.2,0.43529,0.63529
5.376,0.18866,0.61975,0.19412,0.4451,0.6451
5.384,0.19257,0.62366,0.20392,0.44902,0.63529
5.392,0.19648,0.62463,0.2,0.4451,0.64118
5.4,0.20235,0.62463,0.2098,0.4451,0.62941
5.408,0.20723,0.62366,0.2098,0.43922,0.63529
5.416,0.21408,0.62072,0.22353,0.43922,0.62549
5.424,0.2219,0.61584,0.21961,0.4451,0.62549
5.432,0.22874,0.60899,0.23333,0.43529,0.6098
5.44,0.23656,0.60117,0.23333,0.43529,0.61569
5.448,0.2434,0.5914,0.2451,0.42549,0.60588
5.456,0.25024,0.58065,0.24902,0.41961,0.6098
5.464,0.25611,0.56989,0.25882,0.4098,0.6
5.472,0.26295,0.55914,0.26471,0.40392,0.6
5.48,0.26784,0.54741,0.26863,0.3902,0.5902
5.488,0.27273,0.53666,0.27451,0.3902,0.59608
5.496,0.27761,0.5259,0.28431,0.37451,0.58039
5.504,0.28152,0.51515,0.3,0.37451,0.57451
5.512,0.28543,0.5044,0.31373,0.35882,0.56471
5.52,0.28935,0.49267,0.33529,0.35882,0.5549
5.528,0.29228,0.48289,0.34902,0.34902,0.53529
5.536,0.29619,0.47312,0.37059,0.35882,0.52941
5.544,0.29814,0.46334,0.37451,0.36471,0.51961
5.552,0.3001,0.45552,0.39412,0.38431,0.5098
5.56,0.30108,0.44868,0.4,0.3902,0.5
5.568,0.30303,0.44379,0.41569,0.4098,0.49412
5.576,0.30303,0.43988,0.4098,0.41961,0.50588
5.584,0.30303,0.43793,0.41961,0.43529,0.4902
5.592,0.3001,0.43597,0.41961,0.4549,0.49412
5.6,0.29814,0.43402,0.42549,0.46078,0.48039
5.608,0.29423,0.43206,0.41961,0.47451,0.4902
5.616,0.29032,0.42913,0.41961,0.48039,0.48431
5.624,0.28543,0.42815,0.4,0.48431,0.5
5.632,0.28055,0.4262,0.4,0.48039,0.5
5.64,0.27566,0.42522,0.38039,0.48431,0.5098
5.648,0.26979,0.42424,0.37451,0.47059,0.5098
5.656,0.26393,0.42229,0.37059,0.47451,0.51961
5.664,0.25806,0.42229,0.4,0.46078,0.50588
5.672,0.25122,0.42131,0.41569,0.46471,0.50588
5.68,0.24438,0.42033,0.42549,0.46078,0.50588
5.688,0.23754,0.41935,0.43529,0.43922,0.50588
5.696,0.23167,0.41838,0.46078,0.39412,0.48431
5.704,0.22581,0.4174,0.4902,0.37059,0.47451
5.712,0.21994,0.41544,0.48431,0.3451,0.47059
5.72,0.21408,0.41251,0.42941,0.33922,0.50588
5.728,0.20919,0.41056,0.3902,0.33922,0.52941
5.736,0.20332,0.40762,0.36471,0.35882,0.53922
5.744,0.19746,0.40371,0.36471,0.38039,0.55098
5.752,0.19257,0.3998,0.32941,0.3902,0.56471
5.76,0.18866,0.39589,0.30392,0.38431,0.57451
5.768,0.18475,0.39394,0.29412,0.38431,0.58039
5.776,0.18084,0.39394,0.2902,0.3902,0.5902
5.784,0.17889,0.39687,0.26863,0.4,0.58431
5.792,0.17595,0.40371,0.18431,0.48431,0.64118
5.8,0.17498,0.41642,0.13922,0.57059,0.65098
5.808,0.17302,0.43402,0.3902,0.61961,0.47451
5.816,0.174,0.4565,0.85098,0.029412,0.20392
5.824,0.17498,0.48192,1.2471,-0.46275,0.058824
5.832,0.17693,0.50831,1.1275,-0.50196,0.2098
5.84,0.17986,0.5347,0.8451,-0.28824,0.36471
5.848,0.18182,0.55914,0.6,0.052941,0.44902
5.856,0.18475,0.57967,0.37059,0.27843,0.56471
5.864,0.18768,0.59726,0.2451,0.38039,0.61569
5.872,0.19062,0.61095,0.20392,0.42549,0.63529
5.88,0.1955,0.6217,0.20392,0.43529,0.62941
5.888,0.19941,0.62757,0.19412,0.4451,0.64118
5.896,0.20528,0.62952,0.20392,0.43922,0.62941
5.904,0.21114,0.62952,0.2,0.4451,0.63529
5.912,0.21896,0.62757,0.2098,0.43529,0.62549
5.92,0.22678,0.62366,0.21373,0.43922,0.62549
5.928,0.23558,0.61877,0.21373,0.43529,0.61961
5.936,0.24438,0.61095,0.22353,0.43529,0.62549
5.944,0.2522,0.60313,0.22941,0.43529,0.61961
5.952,0.26002,0.59433,0.23333,0.43529,0.61961
5.96,0.26588,0.58553,0.22941,0.42549,0.62549
5.968,0.27273,0.57771,0.2451,0.4098,0.60588
5.976,0.27957,0.56989,0.24902,0.40392,0.6098
5.984,0.28739,0.56109,0.2549,0.39412,0.6
5.992,0.29423,0.55132,0.2549,0.38431,0.60588
6,0.30205,0.53861,0.27451,0.38039,0.59608
6.008,0.30792,0.5259,0.26863,0.38431,0.6
6.016,0.31476,0.5132,0.2902,0.37059,0.58431
6.024,0.31965,0.50147,0.30392,0.36471,0.57451
6.032,0.32551,0.48974,0.32353,0.34902,0.56078
6.04,0.3304,0.47898,0.33922,0.3549,0.5549
6.048,0.33529,0.46823,0.36471,0.34902,0.53922
6.056,0.33822,0.45846,0.37451,0.36471,0.53529
6.064,0.34213,0.45064,0.39412,0.37451,0.51961
6.072,0.34409,0.44477,0.4,0.39412,0.51961
6.08,0.34604,0.43988,0.40392,0.4098,0.50588
6.088,0.34702,0.43793,0.4098,0.42941,0.50588
6.096,0.34702,0.43597,0.40392,0.43529,0.4902
6.104,0.34604,0.43402,0.41569,0.4549,0.49412
6.112,0.34506,0.43304,0.4098,0.46078,0.49412
6.12,0.34311,0.43304,0.41961,0.48039,0.5
6.128,0.34115,0.43402,0.4098,0.48431,0.50588
6.136,0.33724,0.435,0.39412,0.49412,0.5
6.144,0.33333,0.43402,0.38431,0.4902,0.51569
6.152,0.32845,0.43304,0.37451,0.48431,0.51961
6.16,0.32258,0.43109,0.37059,0.48039,0.52941
6.168,0.31672,0.42913,0.37451,0.48039,0.52549
6.176,0.31183,0.42717,0.37059,0.47059,0.52941
6.184,0.30499,0.42522,0.41961,0.46471,0.5
6.192,0.29912,0.42424,0.42941,0.47451,0.50588
6.2,0.29326,0.42229,0.43922,0.4549,0.49412
6.208,0.28739,0.42033,0.44902,0.4098,0.50588
6.216,0.28152,0.4174,0.5,0.38039,0.46471
6.224,0.27566,0.41349,0.51569,0.35882,0.46471
6.232,0.27077,0.41153,0.47059,0.3451,0.48039
6.24,0.26491,0.40762,0.4098,0.3549,0.51569
6.248,0.26002,0.40371,0.38431,0.37059,0.52941
6.256,0.25513,0.39883,0.37451,0.3902,0.53529
6.264,0.25122,0.39394,0.3549,0.39412,0.5451
6.272,0.24731,0.39003,0.31961,0.4,0.57059
6.28,0.24438,0.38612,0.30392,0.4,0.57451
6.288,0.24145,0.38416,0.2902,0.40392,0.58431
6.296,0.24047,0.38514,0.27451,0.40392,0.58431
6.304,0.23949,0.39003,0.19412,0.47451,0.62941
6.312,0.24047,0.3998,0.13333,0.55098,0.65098
6.32,0.24047,0.41544,0.31373,0.60588,0.51961
6.328,0.24242,0.43695,0.81569,0.12941,0.23333
6.336,0.24438,0.46237,1.2529,-0.36275,0.04902
6.344,0.24829,0.48974,1.3216,-0.50196,0.14902
6.352,0.25122,0.51613,0.90196,-0.30196,0.33922
6.36,0.25709,0.54154,0.66078,0.017647,0.43529
6.368,0.26295,0.56403,0.4,0.25882,0.5451
6.376,0.27077,0.5826,0.25882,0.38039,0.60588
6.384,0.27957,0.59531,0.2098,0.42941,0.62549
6.392,0.2913,0.60313,0.19412,0.43529,0.62941
6.4,0.30303,0.61095,0.2,0.43529,0.62549
6.408,0.31769,0.61584,0.19412,0.4451,0.63529
6.416,0.33236,0.61681,0.20392,0.43922,0.62549
6.424,0.34702,0.61486,0.20392,0.43922,0.62549
6.432,0.36168,0.61095,0.21961,0.43529,0.62549
6.44,0.37634,0.60313,0.21373,0.43529,0.61961
6.448,0.39198,0.59433,0.23333,0.43529,0.61569
6.456,0.41056,0.58456,0.23333,0.43529,0.60588
6.464,0.42913,0.57478,0.2451,0.42549,0.6
6.472,0.45064,0.56598,0.2549,0.41961,0.6
6.48,0.47214,0.55621,0.26471,0.4098,0.59608
6.488,0.49267,0.54839,0.26863,0.40392,0.59608
6.496,0.5132,0.53959,0.25882,0.3902,0.58431
6.504,0.53275,0.52981,0.27843,0.3902,0.5902
6.512,0.55327,0.51906,0.27451,0.38431,0.58039
6.52,0.57576,0.50929,0.2902,0.38039,0.58039
6.528,0.59824,0.49756,0.3,0.36471,0.57451
6.536,0.6217,0.48485,0.3098,0.36471,0.57451
6.544,0.64614,0.47312,0.32941,0.34902,0.56078
6.552,0.67155,0.46237,0.3451,0.3549,0.55098
6.56,0.69697,0.45161,0.37451,0.35882,0.52941
6.568,0.72239,0.44282,0.39412,0.3549,0.51961
6.576,0.74878,0.435,0.40392,0.38039,0.5098
6.584,0.77028,0.42913,0.41961,0.3902,0.50588
6.592,0.79179,0.4262,0.41961,0.4098,0.5
6.6,0.80938,0.42229,0.43529,0.42549,0.4902
6.608,0.82796,0.41935,0.43529,0.43922,0.48431
6.616,0.84262,0.41642,0.4451,0.4549,0.48039
6.624,0.85826,0.41447,0.43922,0.46471,0.48431
6.632,0.87097,0.41349,0.4451,0.47451,0.48039
6.64,0.88368,0.41447,0.4451,0.48431,0.48039
6.648,0.89247,0.41447,0.43922,0.4902,0.48039
6.656,0.90225,0.41349,0.41961,0.5,0.4902
6.664,0.90909,0.41251,0.41569,0.4902,0.49412
6.672,0.91593,0.41251,0.4,0.49412,0.50588
6.68,0.91984,0.41153,0.4,0.48039,0.50588
6.688,0.92375,0.41056,0.39412,0.48039,0.51569
6.696,0.92571,0.40958,0.43529,0.47059,0.49412
6.704,0.92766,0.40762,0.4451,0.48039,0.4902
6.712,0.92766,0.40567,0.4549,0.46471,0.48039
6.72,0.92864,0.40274,0.46471,0.42549,0.48431
6.728,0.92962,0.39883,0.5,0.39412,0.47059
6.736,0.92962,0.39296,0.51961,0.37451,0.46078
6.744,0.92962,0.38807,0.48039,0.35882,0.47451
6.752,0.92962,0.38416,0.42549,0.36471,0.50588
6.76,0.92962,0.38123,0.39412,0.37059,0.51961
6.768,0.92962,0.3783,0.38431,0.39412,0.52941
6.776,0.93157,0.37634,0.36471,0.4,0.53922
6.784,0.93255,0.37439,0.32353,0.40392,0.57059
6.792,0.93646,0.37341,0.30392,0.4,0.58039
6.8,0.93939,0.37243,0.3,0.40392,0.58039
6.808,0.9433,0.37537,0.28431,0.40392,0.5902
6.816,0.94721,0.38221,0.21961,0.46471,0.61569
6.824,0.9521,0.39296,0.12353,0.5549,0.66078
6.832,0.95699,0.40958,0.27843,0.60588,0.55098
6.84,0.96383,0.43109,0.73529,0.22941,0.2902
6.848,0.97067,0.4565,1.1922,-0.28235,0.07451
6.856,0.97947,0.48387,1.3216,-0.50196,0.052941
6.864,0.98925,0.51026,0.95686,-0.32745,0.31373
6.872,0.99413,0.5347,0.7,-0.0019608,0.41961
6.88,1,0.55523,0.4549,0.23922,0.51961
6.888,1,0.56989,0.27843,0.37451,0.60588
6.896,1,0.58065,0.2098,0.41961,0.62941
6.904,1,0.58847,0.18431,0.43922,0.6451
6.912,1,0.59433,0.18824,0.44902,0.64118
6.92,1,0.59726,0.18431,0.4549,0.6451
6.928,1,0.59824,0.18824,0.43922,0.63529
6.936,1,0.59629,0.19412,0.4451,0.64118
6.944,1,0.59238,0.20392,0.43922,0.62941
6.952,1,0.58944,0.2098,0.43922,0.63529
6.96,1,0.58456,0.2098,0.43529,0.62549
6.968,1,0.57967,0.21961,0.43529,0.62549
6.976,1,0.57478,0.22941,0.43529,0.61569
6.984,1,0.56891,0.23333,0.42941,0.6098
6.992,1,0.56207,0.23333,0.41569,0.61569
7,1,0.55327,0.24902,0.40392,0.60588
7.008,1,0.5435,0.2549,0.3902,0.6
7.016,1,0.53079,0.25882,0.3902,0.6
7.024,1,0.51808,0.2549,0.38431,0.6
7.032,1,0.50733,0.27451,0.37451,0.5902
7.04,1,0.4956,0.27843,0.36471,0.58039
7.048,1,0.48583,0.30392,0.3549,0.57059
7.056,1,0.47605,0.31373,0.3451,0.57451
7.064,1,0.46725,0.33922,0.33922,0.55098
7.072,1,0.45846,0.34902,0.33922,0.5451
7.08,1,0.44966,0.36471,0.3451,0.53529
7.088,1,0.44379,0.37451,0.36471,0.52941
7.096,1,0.43793,0.39412,0.37059,0.51569
7.104,1,0.43304,0.39412,0.39412,0.51961
7.112,1,0.43011,0.40392,0.40392,0.50588
7.12,1,0.42717,0.4,0.42549,0.50588
7.128,1,0.42522,0.40392,0.43529,0.5
7.136,1,0.42424,0.40392,0.4549,0.50588
7.144,1,0.42522,0.4098,0.46078,0.50588
7.152,1,0.4262,0.4,0.47451,0.50588
7.16,1,0.42717,0.4,0.48039,0.50588
7.168,1,0.42815,0.39412,0.48431,0.50588
7.176,1,0.42815,0.3902,0.48039,0.51569
7.184,1,0.42815,0.37451,0.48039,0.52549
7.192,1,0.42815,0.37059,0.46471,0.52941
7.2,1,0.42815,0.36471,0.46471,0.52941
7.208,1,0.42815,0.4,0.46078,0.51569
7.216,1,0.42717,0.41961,0.46471,0.50588
7.224,1,0.42522,0.42549,0.47059,0.5098
7.232,1,0.42424,0.42941,0.42549,0.50588
7.24,1,0.42229,0.46078,0.39412,0.5098
7.248,1,0.41935,0.49412,0.36471,0.48039
7.256,1,0.4174,0.47059,0.3451,0.48431
7.264,1,0.41544,0.41961,0.33922,0.5098
7.272,1,0.41349,0.37451,0.34902,0.53922
7.28,1,0.41153,0.37059,0.36471,0.5451
7.288,0.99609,0.41056,0.3451,0.3902,0.56078
7.296,0.99218,0.4086,0.31961,0.3902,0.57451
7.304,0.97752,0.40665,0.28431,0.3902,0.6
7.312,0.96383,0.40665,0.27843,0.38431,0.6
7.32,0.95015,0.4086,0.26863,0.3902,0.60588
7.328,0.93646,0.41349,0.22353,0.41961,0.62549
7.336,0.92278,0.42229,0.13333,0.51961,0.67059
7.344,0.91007,0.43597,0.11373,0.59608,0.67647
7.352,0.89736,0.45455,0.57059,0.37451,0.38039
7.36,0.88563,0.47898,0.99216,-0.12745,0.14902
7.368,0.87586,0.5044,1.2373,-0.50196,0.084314
7.376,0.8651,0.52981,0.99216,-0.43333,0.3
7.384,0.8563,0.55132,0.7549,-0.13137,0.4
7.392,0.84751,0.56794,0.4902,0.15882,0.51569
7.4,0.83969,0.5826,0.30392,0.32941,0.60588
7.408,0.83187,0.59531,0.2098,0.40392,0.6451
7.416,0.82502,0.60411,0.18431,0.42941,0.65098
7.424,0.81818,0.61095,0.18431,0.43922,0.6549
7.432,0.81232,0.61486,0.18431,0.43529,0.6451
7.44,0.80645,0.61681,0.18431,0.44902,0.65098
7.448,0.80156,0.61584,0.18824,0.43529,0.64118
7.456,0.79668,0.6129,0.19412,0.4451,0.6451
7.464,0.79277,0.60802,0.2098,0.43529,0.62941
7.472,0.78886,0.60117,0.20392,0.43922,0.63529
7.48,0.78592,0.59335,0.2098,0.43922,0.62549
7.488,0.78201,0.58651,0.21373,0.43529,0.62941
7.496,0.77908,0.57771,0.22941,0.42549,0.61961
7.504,0.77713,0.56989,0.22941,0.42549,0.62549
7.512,0.77224,0.56012,0.23922,0.4098,0.61569
7.52,0.76833,0.55034,0.23333,0.4098,0.61961
7.528,0.76344,0.53959,0.2451,0.39412,0.6098
7.536,0.75855,0.52884,0.2549,0.3902,0.6098
7.544,0.75367,0.51906,0.2549,0.38039,0.6
7.552,0.7478,0.50831,0.25882,0.37451,0.60588
7.56,0.74291,0.49853,0.27451,0.35882,0.59608
7.568,0.73705,0.48974,0.29412,0.34902,0.58431
7.576,0.72923,0.47898,0.3098,0.3451,0.57059
7.584,0.72239,0.46921,0.32353,0.34902,0.56078
7.592,0.71359,0.46139,0.34902,0.3549,0.5451
7.6,0.70577,0.45357,0.37451,0.34902,0.53529
7.608,0.69599,0.44575,0.37451,0.37451,0.52941
7.616,0.68719,0.44086,0.3902,0.3902,0.52549
7.624,0.67742,0.43695,0.38431,0.4098,0.52941
7.632,0.66764,0.43402,0.4,0.42549,0.51569
7.64,0.65494,0.43109,0.39412,0.43922,0.51961
7.648,0.64321,0.42913,0.4,0.46078,0.50588
7.656,0.62952,0.4262,0.4,0.47451,0.50588
7.664,0.61486,0.42424,0.40392,0.48431,0.50588
7.672,0.59824,0.42326,0.3902,0.5,0.5098
7.68,0.58162,0.42326,0.39412,0.50588,0.5098
7.688,0.56305,0.42326,0.37059,0.5,0.52941
7.696,0.54545,0.42229,0.35882,0.48431,0.52941
7.704,0.52786,0.42229,0.34902,0.48039,0.53922
7.712,0.51026,0.42131,0.3549,0.47059,0.53529
7.72,0.49365,0.42033,0.38039,0.47059,0.52941
7.728,0.47703,0.41838,0.40392,0.46471,0.51569
7.736,0.45943,0.4174,0.4098,0.47451,0.51961
7.744,0.44184,0.41544,0.41961,0.43529,0.5098
7.752,0.42326,0.41349,0.44902,0.4,0.5
7.76,0.40469,0.41056,0.48431,0.37059,0.48039
7.768,0.3871,0.4086,0.46471,0.3549,0.49412
7.776,0.37048,0.40665,0.41569,0.33922,0.5098
7.784,0.35386,0.40469,0.37059,0.34902,0.53529
7.792,0.33724,0.40371,0.35882,0.36471,0.55098
7.8,0.3216,0.40176,0.34902,0.38431,0.56078
7.808,0.30596,0.39883,0.31373,0.3902,0.57451
7.816,0.2913,0.39589,0.2902,0.3902,0.58431
7.824,0.27664,0.39394,0.27843,0.3902,0.6
7.832,0.26295,0.39492,0.26863,0.3902,0.59608
7.84,0.25024,0.39785,0.23922,0.4098,0.61569
7.848,0.23949,0.40567,0.15882,0.51569,0.65098
7.856,0.22776,0.41838,0.12353,0.59608,0.67059
7.864,0.21994,0.43597,0.47451,0.60588,0.42549
7.872,0.21114,0.45748,0.92157,-0.072549,0.17843
7.88,0.20528,0.47898,1.2529,-0.50196,0.07451
7.888,0.19941,0.49853,1.0373,-0.49804,0.26863
7.896,0.1955,0.52102,0.78039,-0.19608,0.3902
7.904,0.19159,0.54252,0.52549,0.11373,0.49412
7.912,0.18964,0.56109,0.32353,0.3098,0.58431
7.92,0.18768,0.57478,0.21373,0.40392,0.64118
7.928,0.18671,0.58456,0.18824,0.42549,0.6451
7.936,0.18475,0.59042,0.17843,0.43529,0.6549
7.944,0.18475,0.59238,0.18431,0.43922,0.6451
7.952,0.18377,0.5914,0.17843,0.4451,0.65098
7.96,0.18475,0.58847,0.18431,0.43529,0.64118
7.968,0.18573,0.58358,0.18824,0.43529,0.6451
7.976,0.18768,0.57869,0.20392,0.42941,0.62941
7.984,0.18964,0.57478,0.2098,0.43529,0.62549
7.992,0.19257,0.56989,0.21961,0.43529,0.62941
8,0.1955,0.56403,0.21961,0.42941,0.61961
8.008,0.19844,0.55718,0.22353,0.41961,0.62549
8.016,0.20137,0.54839,0.23333,0.41569,0.6098
8.024,0.2043,0.53861,0.2451,0.4098,0.6
8.032,0.20723,0.52786,0.2549,0.4,0.60588
8.04,0.20919,0.51613,0.24902,0.39412,0.6
8.048,0.21114,0.5044,0.2549,0.38431,0.6
8.056,0.2131,0.49365,0.2549,0.38431,0.6
8.064,0.21505,0.48192,0.27451,0.37059,0.5902
8.072,0.21603,0.47116,0.27843,0.36471,0.58431
8.08,0.21701,0.46139,0.29412,0.34902,0.57451
8.088,0.21799,0.45259,0.31373,0.33922,0.56471
8.096,0.21896,0.44379,0.3451,0.33922,0.5549
8.104,0.21896,0.43597,0.34902,0.3451,0.5451
8.112,0.21896,0.43011,0.37451,0.34902,0.52941
8.12,0.21799,0.42522,0.38039,0.36471,0.52549
8.128,0.21701,0.42131,0.4,0.37451,0.50588
8.136,0.21505,0.41838,0.39412,0.4,0.51569
8.144,0.2131,0.41544,0.4098,0.4098,0.50588
8.152,0.21017,0.41349,0.4098,0.43529,0.50588
8.16,0.20626,0.41153,0.41961,0.4451,0.49412
8.168,0.20235,0.4086,0.4098,0.46078,0.5
8.176,0.19746,0.40762,0.40392,0.47059,0.49412
8.184,0.19257,0.40665,0.4,0.48431,0.50588
8.192,0.18866,0.40665,0.3902,0.48431,0.51569
8.2,0.1828,0.40762,0.37451,0.4902,0.5098
8.208,0.17791,0.4086,0.37451,0.48431,0.52549
8.216,0.17204,0.40762,0.35882,0.48039,0.52941
8.224,0.16618,0.40762,0.3549,0.47059,0.53529
8.232,0.15836,0.40567,0.3902,0.46471,0.52549
8.24,0.15152,0.40371,0.40392,0.47059,0.51569
8.248,0.14565,0.40176,0.41961,0.47059,0.50588
8.256,0.13881,0.3998,0.42941,0.43529,0.5098
8.264,0.13294,0.39785,0.46078,0.3902,0.4902
8.272,0.1261,0.39589,0.48431,0.36471,0.48039
8.28,0.12023,0.39394,0.4902,0.33922,0.47451
8.288,0.11535,0.39296,0.41961,0.33922,0.5098
8.296,0.10948,0.39101,0.38431,0.33922,0.52549
8.304,0.10459,0.38905,0.36471,0.36471,0.5451
8.312,0.099707,0.3871,0.37059,0.37451,0.53922
8.32,0.095797,0.38416,0.31961,0.3902,0.56471
8.328,0.091887,0.38123,0.30392,0.38431,0.57451
8.336,0.087977,0.37928,0.29412,0.3902,0.5902
8.344,0.085044,0.3783,0.29412,0.3902,0.58039
8.352,0.083089,0.38123,0.2549,0.41569,0.60588
8.36,0.082111,0.38807,0.17843,0.5098,0.64118
8.368,0.081134,0.40078,0.14902,0.6,0.65098
8.376,0.080156,0.4174,0.4902,0.61961,0.41961
8.384,0.080156,0.43402,0.92157,-0.037255,0.17843
8.392,0.081134,0.45259,1.2765,-0.49804,0.052941
8.4,0.081134,0.4741,1.0863,-0.50196,0.23922
8.408,0.083089,0.49658,0.82157,-0.23137,0.37059
8.416,0.084066,0.51906,0.56078,0.10392,0.48039
8.424,0.086999,0.53861,0.34902,0.3,0.57059
8.432,0.088954,0.55425,0.23922,0.39412,0.62549
8.44,0.092864,0.56598,0.2098,0.42941,0.64118
8.448,0.095797,0.5738,0.2,0.43529,0.63529
8.456,0.10068,0.57869,0.18824,0.43922,0.6451
8.464,0.10459,0.58065,0.20392,0.43922,0.63529
8.472,0.11046,0.57967,0.2,0.43922,0.64118
8.48,0.11632,0.57771,0.21373,0.43922,0.62549
8.488,0.12317,0.57478,0.2098,0.43922,0.62549
8.496,0.13001,0.57283,0.22941,0.43529,0.61569
8.504,0.13587,0.56891,0.22353,0.43529,0.61961
8.512,0.14272,0.56305,0.23333,0.42941,0.61569
8.52,0.14761,0.55718,0.23333,0.42549,0.6098
8.528,0.15347,0.55034,0.24902,0.4098,0.6
8.536,0.16031,0.54057,0.24902,0.40392,0.60588
8.544,0.16618,0.53079,0.2549,0.4,0.6
8.552,0.17204,0.52004,0.2549,0.3902,0.6098
8.56,0.17889,0.50929,0.25882,0.3902,0.59608
8.568,0.18377,0.49853,0.26471,0.3902,0.6
8.576,0.18866,0.4868,0.28431,0.37451,0.58431
8.584,0.19257,0.47703,0.29412,0.37059,0.58039
8.592,0.19746,0.46725,0.31373,0.3549,0.56471
8.6,0.20039,0.4565,0.32941,0.3549,0.5549
8.608,0.20332,0.44673,0.34902,0.34902,0.53922
8.616,0.20626,0.43793,0.37059,0.3549,0.52941
8.624,0.20821,0.43011,0.38431,0.36471,0.51961
8.632,0.20919,0.42326,0.40392,0.37451,0.50588
8.64,0.21017,0.41935,0.4,0.3902,0.5
8.648,0.21017,0.4174,0.41569,0.40392,0.49412
8.656,0.21017,0.41544,0.41961,0.41961,0.5
8.664,0.20821,0.41447,0.42549,0.42941,0.48431
8.672,0.20723,0.41447,0.41961,0.44902,0.49412
8.68,0.20528,0.41642,0.42941,0.46078,0.48039
8.688,0.20332,0.41838,0.41961,0.47451,0.49412
8.696,0.19941,0.41935,0.42549,0.48039,0.48431
8.704,0.1955,0.41935,0.4098,0.49412,0.50588
8.712,0.19062,0.41935,0.4,0.48431,0.5
8.72,0.18475,0.41838,0.3902,0.48039,0.5098
8.728,0.17986,0.4174,0.39412,0.47059,0.50588
8.736,0.17498,0.41447,0.37451,0.47059,0.51961
8.744,0.17009,0.41056,0.41569,0.46078,0.5
8.752,0.16618,0.40762,0.42549,0.46471,0.5
8.76,0.16031,0.40469,0.4451,0.46471,0.4902
8.768,0.15445,0.40274,0.4451,0.43529,0.5
8.776,0.14761,0.3998,0.47451,0.39412,0.47451
8.784,0.14174,0.39883,0.5,0.36471,0.47059
8.792,0.1349,0.39785,0.49412,0.3451,0.46471
8.8,0.12903,0.39687,0.43529,0.33922,0.49412
8.808,0.12317,0.39492,0.4,0.3451,0.5098
8.816,0.1173,0.39296,0.38039,0.36471,0.52941
8.824,0.11339,0.39101,0.37451,0.38039,0.53529
8.832,0.1085,0.38905,0.3451,0.38431,0.5549
8.84,0.10557,0.3871,0.31961,0.3902,0.57059
8.848,0.10264,0.38612,0.3098,0.38431,0.57451
8.856,0.10068,0.38612,0.30392,0.3902,0.58039
8.864,0.098729,0.39003,0.27451,0.4,0.57451
8.872,0.097752,0.39687,0.18824,0.5,0.63529
8.88,0.096774,0.40665,0.15882,0.58039,0.6451
8.888,0.096774,0.41838,0.46471,0.6098,0.43922
8.896,0.096774,0.435,0.93137,-0.060784,0.16863
8.904,0.097752,0.4565,1.2765,-0.49804,0.062745
8.912,0.098729,0.47996,1.0961,-0.50196,0.22941
8.92,0.10068,0.5044,0.82549,-0.23725,0.37059
8.928,0.10362,0.52688,0.58431,0.088235,0.46471
8.936,0.10753,0.54741,0.3549,0.3,0.57059
8.944,0.11241,0.565,0.2549,0.3902,0.61569
8.952,0.1173,0.57869,0.21373,0.42549,0.63529
8.96,0.12317,0.58847,0.2098,0.43529,0.62549
8.968,0.13001,0.59433,0.20392,0.43529,0.64118
8.976,0.13685,0.59824,0.2098,0.43922,0.62941
8.984,0.1437,0.59922,0.2098,0.43922,0.63529
8.992,0.15054,0.59726,0.22353,0.43529,0.62549
9,0.15738,0.59335,0.22941,0.43529,0.62549
9.008,0.16422,0.58847,0.22353,0.43529,0.6098
9.016,0.17107,0.5826,0.23333,0.43529,0.61569
9.024,0.17889,0.57576,0.23922,0.43529,0.6
9.032,0.18573,0.56891,0.24902,0.43529,0.6
9.04,0.19355,0.56207,0.2549,0.42549,0.59608
9.048,0.20039,0.55327,0.26471,0.41961,0.6
9.056,0.20723,0.5435,0.25882,0.4098,0.59608
9.064,0.2131,0.53177,0.26863,0.39412,0.5902
9.072,0.21896,0.52004,0.26471,0.3902,0.6
9.08,0.22385,0.50929,0.27843,0.38039,0.58431
9.088,0.22972,0.50049,0.27843,0.37451,0.5902
9.096,0.2346,0.49071,0.30392,0.36471,0.57059
9.104,0.23949,0.47996,0.31961,0.3549,0.57451
9.112,0.2434,0.47019,0.3451,0.3451,0.55098
9.12,0.24829,0.46041,0.34902,0.34902,0.5549
9.128,0.25122,0.45161,0.37451,0.3549,0.52941
9.136,0.25415,0.44477,0.38431,0.37059,0.51961
9.144,0.25513,0.43793,0.40392,0.38039,0.50588
9.152,0.25611,0.43304,0.4098,0.4,0.50588
9.16,0.25611,0.42913,0.42549,0.4098,0.4902
9.168,0.25611,0.4262,0.41961,0.42941,0.5
9.176,0.25415,0.42424,0.42549,0.4451,0.4902
9.184,0.2522,0.42522,0.41961,0.46078,0.5
9.192,0.24927,0.4262,0.42941,0.47059,0.48039
9.2,0.24536,0.4262,0.42549,0.48039,0.4902
9.208,0.24242,0.4262,0.41961,0.4902,0.48431
9.216,0.23851,0.4262,0.4098,0.5,0.5
9.224,0.2346,0.4262,0.4,0.50588,0.50588
9.232,0.23069,0.42424,0.3902,0.4902,0.5098
9.24,0.22483,0.42326,0.38431,0.48039,0.51961
9.248,0.21896,0.42326,0.37451,0.48039,0.5098
9.256,0.21212,0.42229,0.4,0.47451,0.52549
9.264,0.2043,0.42033,0.42549,0.47059,0.5
9.272,0.19746,0.41838,0.43529,0.48039,0.49412
9.28,0.18964,0.41642,0.4451,0.44902,0.4902
9.288,0.18377,0.41544,0.47059,0.41569,0.5
9.296,0.17693,0.41349,0.5098,0.38431,0.46471
9.304,0.17107,0.41153,0.49412,0.36471,0.47059
9.312,0.16618,0.4086,0.44902,0.3549,0.4902
9.32,0.16227,0.40567,0.4,0.3549,0.51961
9.328,0.15836,0.40274,0.38431,0.37059,0.52941
9.336,0.15445,0.39883,0.37451,0.3902,0.5451
9.344,0.15152,0.39492,0.3451,0.3902,0.5549
9.352,0.14858,0.39198,0.3098,0.3902,0.57451
9.36,0.14663,0.39003,0.30392,0.3902,0.57451
9.368,0.14467,0.38807,0.29412,0.3902,0.5902
9.376,0.14272,0.38905,0.28431,0.4,0.58431
9.384,0.14272,0.39492,0.2,0.48431,0.64118
9.392,0.14174,0.40469,0.14902,0.56471,0.6549
9.4,0.14272,0.42131,0.37059,0.61961,0.4902
9.408,0.1437,0.44184,0.83529,0.058824,0.21961
9.416,0.14565,0.4653,1.2314,-0.43725,0.062745
9.424,0.14761,0.49071,1.2471,-0.50196,0.19412
9.432,0.15054,0.51515,0.86667,-0.29804,0.35882
9.44,0.15445,0.53959,0.62941,0.04902,0.4451
9.448,0.15738,0.55914,0.4,0.27451,0.5451
9.456,0.16129,0.57478,0.26863,0.3902,0.6098
9.464,0.16618,0.58749,0.21961,0.42941,0.62941
9.472,0.17009,0.59726,0.2098,0.43922,0.64118
9.48,0.17498,0.60313,0.21373,0.43922,0.62549
9.488,0.17986,0.60606,0.2098,0.4451,0.63529
9.496,0.18573,0.60704,0.21961,0.43922,0.62549
9.504,0.19159,0.60704,0.21373,0.43922,0.62941
9.512,0.19746,0.60508,0.22353,0.43922,0.62549
9.52,0.2043,0.6002,0.21961,0.43922,0.62549
9.528,0.21017,0.59433,0.23333,0.43529,0.62549
9.536,0.21701,0.58749,0.23333,0.43922,0.61961
9.544,0.22287,0.57869,0.24902,0.43529,0.6098
9.552,0.22874,0.56989,0.24902,0.42941,0.61569
9.56,0.2346,0.56012,0.26471,0.41961,0.6
9.568,0.24047,0.55034,0.2549,0.4098,0.60588
9.576,0.24536,0.54057,0.26863,0.4,0.59608
9.584,0.25122,0.53177,0.26863,0.39412,0.59608
9.592,0.25611,0.52199,0.27843,0.3902,0.58431
9.6,0.26197,0.51222,0.28431,0.38431,0.5902
9.608,0.26686,0.50147,0.30392,0.37059,0.57451
9.616,0.27175,0.49267,0.31373,0.36471,0.57059
9.624,0.27566,0.48289,0.33922,0.3549,0.5549
9.632,0.27957,0.4741,0.3549,0.3549,0.55098
9.64,0.2825,0.4653,0.37451,0.36471,0.52941
9.648,0.28543,0.45552,0.3902,0.36471,0.52549
9.656,0.28641,0.4477,0.40392,0.38431,0.5098
9.664,0.28739,0.44282,0.41961,0.39412,0.5
9.672,0.28739,0.43891,0.41569,0.41569,0.50588
9.68,0.28739,0.43597,0.42941,0.42941,0.49412
9.688,0.28641,0.43402,0.41961,0.43922,0.50588
9.696,0.28543,0.43206,0.42941,0.44902,0.49412
9.704,0.28348,0.43011,0.41961,0.46078,0.5
9.712,0.2825,0.42913,0.43529,0.47451,0.48039
9.72,0.27859,0.42815,0.41961,0.48431,0.49412
9.728,0.27468,0.42913,0.41961,0.4902,0.4902
9.736,0.26882,0.43011,0.4,0.49412,0.50588
9.744,0.26295,0.43011,0.4,0.48431,0.50588
9.752,0.25513,0.43109,0.38431,0.48431,0.51961
9.76,0.24731,0.43011,0.38431,0.47059,0.51569
9.768,0.23851,0.42913,0.37451,0.47059,0.52549
9.776,0.22972,0.42815,0.42549,0.46471,0.5
9.784,0.2219,0.4262,0.42941,0.47059,0.50588
9.792,0.21408,0.42424,0.4451,0.46078,0.4902
9.8,0.20723,0.42033,0.46078,0.4098,0.4902
9.808,0.20137,0.4174,0.5098,0.38039,0.46078
9.816,0.19453,0.41447,0.51569,0.35882,0.46471
9.824,0.18768,0.41251,0.47451,0.33922,0.48039
9.832,0.18182,0.40958,0.41569,0.33922,0.51569
9.84,0.17595,0.40762,0.4,0.3549,0.52941
9.848,0.17107,0.40567,0.3902,0.37451,0.53529
9.856,0.16618,0.40274,0.37059,0.3902,0.55098
9.864,0.16227,0.40078,0.33529,0.3902,0.57059
9.872,0.15836,0.39883,0.3098,0.3902,0.57451
9.88,0.15543,0.39687,0.30392,0.3902,0.58039
9.888,0.15347,0.39883,0.29412,0.3902,0.58431
9.896,0.15152,0.40274,0.23922,0.4451,0.61569
9.904,0.15054,0.41251,0.15882,0.53529,0.65098
9.912,0.15054,0.42717,0.2451,0.61961,0.57451
9.92,0.15152,0.44575,0.66471,0.26863,0.31373
9.928,0.15347,0.46921,1.0922,-0.26667,0.10392
9.936,0.15445,0.49365,1.2529,-0.50196,0.068627
9.944,0.15738,0.51808,0.95686,-0.42353,0.31373
9.952,0.16031,0.54154,0.72549,-0.082353,0.40392
9.96,0.16422,0.56207,0.47059,0.2,0.51961
9.968,0.16716,0.57967,0.29412,0.3451,0.60588
9.976,0.17204,0.5914,0.22941,0.40392,0.62549
9.984,0.17791,0.6002,0.20392,0.42941,0.64118
9.992,0.18377,0.60606,0.2098,0.43529,0.62941
10,0.18964,0.60997,0.19412,0.43529,0.64118
10.008,0.1955,0.61193,0.2098,0.43529,0.62941
10.016,0.20137,0.61193,0.2098,0.43529,0.63529
10.024,0.20723,0.61095,0.21961,0.43529,0.62549
10.032,0.2131,0.60802,0.22353,0.43529,0.62941
10.04,0.21994,0.60313,0.21961,0.43529,0.61961
10.048,0.22678,0.59531,0.23333,0.42941,0.61569
10.056,0.23363,0.58749,0.23333,0.42549,0.61961
10.064,0.24145,0.57869,0.2451,0.42549,0.6
10.072,0.24829,0.56891,0.24902,0.41569,0.6098
10.08,0.25513,0.55914,0.25882,0.4098,0.6
10.088,0.261,0.54936,0.26471,0.39412,0.59608
10.096,0.26686,0.53861,0.27451,0.38431,0.5902
10.104,0.27175,0.52688,0.26471,0.38039,0.6
10.112,0.27664,0.51515,0.28431,0.37451,0.58039
10.12,0.28055,0.5044,0.27843,0.36471,0.5902
10.128,0.28446,0.49267,0.3098,0.3549,0.57451
10.136,0.28739,0.48192,0.31961,0.33922,0.57059
10.144,0.2913,0.47214,0.3451,0.33922,0.5549
10.152,0.29423,0.46237,0.34902,0.3451,0.55098
10.16,0.29717,0.45455,0.38039,0.3549,0.52549
10.168,0.29912,0.4477,0.38431,0.36471,0.52549
10.176,0.30205,0.44379,0.40392,0.37451,0.50588
10.184,0.30303,0.44184,0.40392,0.39412,0.5098
10.192,0.30499,0.43891,0.41961,0.4098,0.5
10.2,0.30499,0.43695,0.41569,0.42549,0.50588
10.208,0.30499,0.435,0.41961,0.43529,0.49412
10.216,0.30401,0.43206,0.41569,0.44902,0.5
10.224,0.30303,0.43011,0.41961,0.46078,0.48431
10.232,0.3001,0.42815,0.41569,0.48039,0.49412
10.24,0.29814,0.42717,0.41569,0.48039,0.5
10.248,0.29423,0.42522,0.4,0.48431,0.49412
10.256,0.29032,0.42522,0.4,0.48039,0.5098
10.264,0.28641,0.42424,0.38039,0.47451,0.51961
10.272,0.2825,0.42326,0.37059,0.46471,0.52941
10.28,0.27859,0.42229,0.37451,0.46078,0.51961
10.288,0.2737,0.42229,0.39412,0.46078,0.52549
10.296,0.26882,0.42131,0.42549,0.46078,0.5
10.304,0.26295,0.41935,0.42941,0.46078,0.50588
10.312,0.25709,0.41838,0.43922,0.42941,0.5
10.32,0.25122,0.4174,0.4549,0.3902,0.50588
10.328,0.24633,0.41642,0.5,0.36471,0.46471
10.336,0.24047,0.41544,0.48431,0.3451,0.48039
10.344,0.23656,0.41349,0.43922,0.33922,0.49412
10.352,0.23167,0.41153,0.3902,0.33922,0.52941
10.36,0.22776,0.4086,0.37451,0.35882,0.52941
10.368,0.22287,0.40469,0.35882,0.37451,0.55098
10.376,0.21896,0.40078,0.33529,0.38431,0.5549
10.384,0.21505,0.39687,0.30392,0.3902,0.57451
10.392,0.21212,0.39492,0.30392,0.38039,0.58039
10.4,0.20919,0.39296,0.28431,0.38431,0.59608
10.408,0.20723,0.39492,0.27843,0.3902,0.5902
10.416,0.20528,0.40274,0.19412,0.48039,0.64118
10.424,0.2043,0.41544,0.14902,0.56078,0.65098
10.432,0.20332,0.435,0.3902,0.6098,0.47451
10.44,0.2043,0.45846,0.87647,0.029412,0.2
10.448,0.2043,0.48387,1.2627,-0.44314,0.052941
10.456,0.20626,0.51026,1.1569,-0.50196,0.19412
10.464,0.20821,0.5347,0.86667,-0.26667,0.3549
10.472,0.21114,0.55621,0.61961,0.062745,0.4451
10.48,0.21408,0.57087,0.38039,0.28431,0.5549
10.488,0.21799,0.58162,0.25882,0.3902,0.6098
10.496,0.22287,0.58944,0.22353,0.42941,0.62549
10.504,0.22776,0.59531,0.2098,0.43529,0.62941
10.512,0.23265,0.59726,0.20392,0.4451,0.62549
10.52,0.23949,0.59824,0.18824,0.44902,0.63529
10.528,0.24536,0.59726,0.2,0.4451,0.62549
10.536,0.25318,0.59433,0.20392,0.4451,0.62941
10.544,0.26197,0.59042,0.21373,0.43922,0.61569
10.552,0.27077,0.58651,0.2098,0.43529,0.62549
10.56,0.28055,0.5826,0.21961,0.43529,0.61569
10.568,0.2913,0.57771,0.21373,0.43529,0.62549
10.576,0.30108,0.57283,0.22941,0.43529,0.60588
10.584,0.31085,0.56696,0.23333,0.43529,0.6098
10.592,0.32063,0.55816,0.2451,0.41961,0.6
10.6,0.32845,0.54741,0.2451,0.4098,0.6
10.608,0.33724,0.53568,0.25882,0.4098,0.58431
10.616,0.34604,0.52493,0.26471,0.4,0.59608
10.624,0.35386,0.51515,0.27451,0.3902,0.58039
10.632,0.36266,0.50538,0.27843,0.3902,0.58431
10.64,0.37146,0.49462,0.3,0.38039,0.56471
10.648,0.37928,0.48387,0.31373,0.36471,0.56471
10.656,0.3871,0.4741,0.3451,0.36471,0.53922
10.664,0.39394,0.4653,0.35882,0.35882,0.52941
10.672,0.40176,0.45552,0.38039,0.36471,0.51961
10.68,0.4086,0.44868,0.3902,0.36471,0.5098
10.688,0.41642,0.44282,0.4,0.38039,0.50588
10.696,0.42424,0.43891,0.41961,0.3902,0.49412
10.704,0.43304,0.43597,0.41961,0.40392,0.4902
10.712,0.44184,0.43304,0.43529,0.41961,0.48431
10.72,0.45064,0.43011,0.42549,0.43529,0.5
10.728,0.46041,0.42815,0.43922,0.4451,0.48039
10.736,0.46921,0.42717,0.42941,0.46078,0.4902
10.744,0.47801,0.42717,0.4451,0.47059,0.48039
10.752,0.48778,0.4262,0.42549,0.48039,0.4902
10.76,0.49658,0.42522,0.42941,0.4902,0.48039
10.768,0.50538,0.42326,0.4098,0.4902,0.5
10.776,0.51515,0.42131,0.41569,0.48039,0.5
10.784,0.5259,0.42033,0.39412,0.48039,0.51569
10.792,0.53763,0.41838,0.4,0.47451,0.5098
10.8,0.54936,0.41642,0.39412,0.47059,0.51961
10.808,0.56012,0.41447,0.43529,0.46471,0.49412
10.816,0.57087,0.41153,0.4451,0.47059,0.5
10.824,0.58162,0.40958,0.46471,0.46078,0.48431
10.832,0.59335,0.40762,0.47059,0.41569,0.4902
10.84,0.60508,0.40567,0.5098,0.3902,0.46471
10.848,0.61681,0.40274,0.52941,0.36471,0.4549
10.856,0.6305,0.40078,0.49412,0.3549,0.47059
10.864,0.64321,0.39883,0.42941,0.35882,0.5
10.872,0.65689,0.39589,0.4,0.37059,0.51569
10.88,0.6696,0.39296,0.39412,0.3902,0.52549
10.888,0.68231,0.39101,0.38039,0.40392,0.53529
10.896,0.69599,0.38612,0.34902,0.40392,0.5549
10.904,0.70674,0.38025,0.32353,0.4,0.56471
10.912,0.71848,0.37732,0.31373,0.4,0.56078
10.92,0.72825,0.37732,0.30392,0.4098,0.57451
10.928,0.73803,0.38123,0.2451,0.46471,0.6
10.936,0.7478,0.39003,0.1549,0.5549,0.6451
10.944,0.75758,0.40567,0.26863,0.61961,0.55098
10.952,0.76735,0.4262,0.72157,0.24902,0.2902
10.96,0.7781,0.44966,1.1824,-0.26275,0.068627
10.968,0.7869,0.47605,1.3275,-0.50196,0.039216
10.976,0.79668,0.49951,0.97059,-0.33725,0.3
10.984,0.80547,0.52004,0.72157,-0.015686,0.40392
10.992,0.81427,0.54154,0.47059,0.22941,0.50588
11,0.826,0.56207,0.28431,0.37451,0.6
11.008,0.83675,0.57967,0.21961,0.42941,0.62549
11.016,0.85044,0.59238,0.18431,0.4549,0.64118
11.024,0.86413,0.6002,0.19412,0.46078,0.63529
11.032,0.87977,0.60313,0.18431,0.46471,0.64118
11.04,0.89541,0.60313,0.2,0.46078,0.62941
11.048,0.91202,0.6002,0.19412,0.46078,0.63529
11.056,0.92766,0.59531,0.20392,0.4549,0.62549
11.064,0.9433,0.59042,0.2098,0.46078,0.62549
11.072,0.95894,0.58553,0.2098,0.4549,0.61961
11.08,0.97361,0.57967,0.21373,0.44902,0.62549
11.088,0.98729,0.57283,0.2098,0.44902,0.6098
11.096,0.99413,0.56598,0.23333,0.43922,0.60588
11.104,1,0.55914,0.23922,0.43529,0.6098
11.112,1,0.55034,0.24902,0.42549,0.6
11.12,1,0.53959,0.24902,0.41569,0.60588
11.128,1,0.52884,0.2549,0.4098,0.59608
11.136,1,0.51711,0.2549,0.4,0.6
11.144,1,0.50635,0.26863,0.39412,0.58431
11.152,1,0.49365,0.26471,0.3902,0.59608
11.16,1,0.48094,0.29412,0.38039,0.57451
11.168,1,0.47019,0.30392,0.36471,0.57059
11.176,1,0.46041,0.33529,0.35882,0.55098
11.184,1,0.45259,0.3451,0.3549,0.55098
11.192,1,0.44477,0.37059,0.36471,0.52549
11.2,1,0.43891,0.37451,0.37059,0.52941
11.208,1,0.435,0.39412,0.38039,0.5098
11.216,1,0.43109,0.3902,0.3902,0.5098
11.224,1,0.42815,0.40392,0.40392,0.5
11.232,1,0.4262,0.4,0.41961,0.5098
11.24,1,0.42326,0.4098,0.43529,0.5
11.248,1,0.42131,0.41569,0.44902,0.50588
11.256,1,0.42131,0.4098,0.46078,0.4902
11.264,1,0.42131,0.41569,0.47059,0.5
11.272,1,0.42229,0.40392,0.48039,0.49412
11.28,1,0.42229,0.4098,0.48039,0.50588
11.288,1,0.42229,0.3902,0.48039,0.51569
11.296,1,0.42131,0.38039,0.47059,0.5098
11.304,1,0.42033,0.37059,0.46471,0.52941
11.312,1,0.4174,0.37451,0.46078,0.52941
11.32,1,0.41544,0.37059,0.46078,0.51961
11.328,1,0.41349,0.42549,0.4549,0.5
11.336,1,0.41056,0.41961,0.46078,0.50588
11.344,1,0.4086,0.4451,0.43922,0.49412
11.352,1,0.40567,0.43922,0.4,0.5
11.36,1,0.40371,0.50588,0.37059,0.47059
11.368,1,0.40274,0.4902,0.34902,0.47451
11.376,1,0.40274,0.44902,0.33922,0.4902
11.384,1,0.40176,0.39412,0.3451,0.52549
11.392,1,0.3998,0.38431,0.36471,0.52941
11.4,1,0.39785,0.36471,0.38431,0.5451
11.408,1,0.39589,0.34902,0.3902,0.55098
11.416,1,0.39296,0.3098,0.39412,0.57451
11.424,1,0.39198,0.3,0.3902,0.58039
11.432,1,0.39198,0.28431,0.3902,0.59608
11.44,1,0.39589,0.26471,0.4,0.59608
11.448,1,0.40469,0.18431,0.4902,0.64118
11.456,1,0.42033,0.14314,0.56078,0.6549
11.464,1,0.44086,0.41569,0.60588,0.47059
11.472,1,0.46237,0.86667,0.068627,0.20392
11.48,1,0.48387,1.2529,-0.41176,0.058824
11.488,1,0.50733,1.1216,-0.50196,0.2098
11.496,1,0.53372,0.85098,-0.25686,0.36471
11.504,1,0.55816,0.60588,0.052941,0.46078
11.512,1,0.58065,0.38431,0.26471,0.5549
11.52,1,0.6002,0.2451,0.37451,0.62549
11.528,1,0.61388,0.20392,0.41569,0.64118
11.536,1,0.62463,0.18824,0.42941,0.6451
11.544,1,0.6305,0.19412,0.43529,0.64118
11.552,1,0.63343,0.18431,0.43529,0.65098
11.56,1,0.63245,0.19412,0.43529,0.63529
11.568,1,0.6305,0.18824,0.43529,0.6451
11.576,1,0.62659,0.2098,0.42941,0.62549
11.584,1,0.62072,0.20392,0.42941,0.62941
11.592,1,0.6129,0.21961,0.42549,0.62549
11.6,1,0.60411,0.21373,0.41961,0.62549
11.608,1,0.59531,0.23333,0.41961,0.6098
11.616,1,0.58651,0.23333,0.41569,0.61569
11.624,1,0.57674,0.24902,0.4,0.6
11.632,1,0.565,0.2451,0.3902,0.60588
11.64,1,0.55327,0.2549,0.38431,0.59608
11.648,1,0.54154,0.2549,0.37451,0.6
11.656,1,0.52884,0.26471,0.37059,0.5902
11.664,1,0.51711,0.27451,0.35882,0.5902
11.672,1,0.50831,0.26863,0.34902,0.57451
11.68,1,0.49951,0.30392,0.33922,0.57451
11.688,1,0.49071,0.32353,0.33529,0.56078
11.696,1,0.48192,0.3451,0.33529,0.5451
11.704,0.99218,0.47507,0.35882,0.33529,0.52941
11.712,0.98436,0.46921,0.37451,0.3451,0.52941
11.72,0.97458,0.46334,0.38039,0.35882,0.52549
11.728,0.96481,0.4565,0.4,0.36471,0.5098
11.736,0.95308,0.45064,0.4,0.38431,0.51569
11.744,0.94233,0.44477,0.41569,0.40392,0.5
11.752,0.92864,0.43988,0.40392,0.42549,0.50588
11.76,0.91593,0.43695,0.41961,0.43922,0.4902
11.768,0.90225,0.43402,0.40392,0.46078,0.5
11.776,0.88856,0.43304,0.41569,0.47451,0.4902
11.784,0.87488,0.43206,0.4,0.48431,0.50588
11.792,0.86119,0.43109,0.4,0.49412,0.49412
11.8,0.84555,0.43011,0.38039,0.5,0.51961
11.808,0.82991,0.42815,0.38039,0.49412,0.5098
11.816,0.81329,0.42522,0.35882,0.48039,0.52941
11.824,0.7957,0.42326,0.36471,0.47451,0.52549
11.832,0.77713,0.42033,0.3549,0.46078,0.52941
11.84,0.75953,0.41838,0.40392,0.46078,0.50588
11.848,0.74096,0.41544,0.41961,0.46471,0.5
11.856,0.72239,0.41349,0.42549,0.46078,0.50588
11.864,0.70479,0.41056,0.43529,0.41569,0.49412
11.872,0.68817,0.4086,0.47451,0.38431,0.5
11.88,0.67253,0.40762,0.4902,0.35882,0.46471
11.888,0.65689,0.40762,0.4549,0.3451,0.48039
11.896,0.64027,0.40665,0.39412,0.3451,0.52549
11.904,0.62463,0.40469,0.35882,0.34902,0.5451
11.912,0.60899,0.40274,0.3549,0.37451,0.55098
11.92,0.59238,0.3998,0.32941,0.38431,0.56078
11.928,0.57869,0.39492,0.3,0.3902,0.58039
11.936,0.565,0.39198,0.27451,0.3902,0.6
11.944,0.55327,0.39003,0.27451,0.3902,0.6
11.952,0.54057,0.39003,0.25882,0.39412,0.60588
11.96,0.52981,0.39589,0.2098,0.4451,0.62941
11.968,0.51808,0.40762,0.11961,0.5451,0.67647
11.976,0.50635,0.42131,0.19412,0.62549,0.60588
11.984,0.4956,0.43793,0.61569,0.31373,0.3549
11.992,0.48583,0.46139,1.0314,-0.19608,0.12941
12,0.47605,0.48974,1.2118,-0.50196,0.078431
12.008,0.46725,0.51808,0.94706,-0.40196,0.32353
12.016,0.45846,0.54545,0.7098,-0.092157,0.41961
12.024,0.45161,0.56989,0.4549,0.19412,0.52549
12.032,0.44379,0.58847,0.26863,0.34902,0.61569
12.04,0.43793,0.60215,0.20392,0.41961,0.64118
12.048,0.43109,0.60997,0.17451,0.43922,0.66078
12.056,0.42522,0.61486,0.16471,0.44902,0.66471
12.064,0.41935,0.61681,0.17451,0.46078,0.6549
12.072,0.41349,0.61486,0.16471,0.4549,0.66471
12.08,0.40762,0.61095,0.18431,0.4549,0.6451
12.088,0.40274,0.60704,0.17843,0.44902,0.65098
12.096,0.39785,0.60215,0.19412,0.44902,0.64118
12.104,0.39296,0.59726,0.18824,0.4451,0.6451
12.112,0.38807,0.59042,0.20392,0.4451,0.62941
12.12,0.38416,0.58358,0.2,0.43529,0.64118
12.128,0.38025,0.57674,0.2098,0.43529,0.62941
12.136,0.37634,0.56794,0.21373,0.41961,0.64118
12.144,0.37243,0.55718,0.22941,0.4098,0.62549
12.152,0.36852,0.54545,0.21961,0.4,0.62941
12.16,0.36461,0.53177,0.23333,0.39412,0.61569
12.168,0.35973,0.51808,0.23922,0.3902,0.61569
12.176,0.35582,0.50635,0.2549,0.38431,0.60588
12.184,0.35191,0.49658,0.24902,0.37451,0.6098
12.192,0.348,0.48583,0.27843,0.36471,0.5902
12.2,0.34409,0.47605,0.27843,0.34902,0.59608
12.208,0.34018,0.46628,0.3098,0.3451,0.57451
12.216,0.33627,0.4565,0.31961,0.3451,0.57059
12.224,0.33236,0.44673,0.34902,0.3549,0.5451
12.232,0.32845,0.43891,0.34902,0.35882,0.5451
12.24,0.32454,0.43109,0.38039,0.37059,0.52549
12.248,0.31965,0.42424,0.38431,0.3902,0.52941
12.256,0.31574,0.42033,0.38039,0.4,0.51569
12.264,0.31085,0.4174,0.4,0.42549,0.51961
12.272,0.30596,0.41642,0.39412,0.43529,0.50588
12.28,0.29912,0.4174,0.4098,0.4549,0.5098
12.288,0.29326,0.41838,0.4,0.46471,0.50588
12.296,0.28446,0.41838,0.4098,0.47451,0.50588
12.304,0.27664,0.41838,0.4,0.4902,0.5098
12.312,0.26686,0.4174,0.3902,0.49412,0.50588
12.32,0.25611,0.41544,0.37451,0.4902,0.51961
12.328,0.24438,0.41251,0.37059,0.4902,0.5098
12.336,0.23265,0.41056,0.35882,0.48039,0.52941
12.344,0.2219,0.4086,0.36471,0.48039,0.52549
12.352,0.21114,0.40567,0.3902,0.47451,0.5098
12.36,0.20235,0.40274,0.41961,0.47059,0.5
12.368,0.19257,0.39883,0.41961,0.47451,0.50588
12.376,0.1828,0.39589,0.4451,0.42941,0.49412
12.384,0.17302,0.39296,0.46471,0.4,0.5
12.392,0.16422,0.39101,0.5,0.37451,0.46471
12.4,0.15445,0.38807,0.46078,0.3549,0.4902
12.408,0.14663,0.38612,0.42549,0.34902,0.50588
12.416,0.13881,0.38319,0.37451,0.35882,0.52941
12.424,0.13196,0.38123,0.37059,0.37451,0.53529
12.432,0.1261,0.3783,0.3451,0.3902,0.5549
12.44,0.11926,0.37634,0.31961,0.3902,0.56471
12.448,0.11339,0.37341,0.2902,0.3902,0.5902
12.456,0.1085,0.37146,0.27843,0.3902,0.59608
12.464,0.10264,0.37146,0.27451,0.3902,0.5902
12.472,0.099707,0.37341,0.24902,0.41569,0.6
12.48,0.095797,0.3783,0.15882,0.51961,0.65098
12.488,0.093842,0.38807,0.12941,0.6098,0.66078
12.496,0.091887,0.40371,0.49412,0.61961,0.41569
12.504,0.090909,0.42424,0.95098,-0.086275,0.1549
12.512,0.090909,0.44966,1.2725,-0.50196,0.068627
12.52,0.091887,0.47507,1.0569,-0.50196,0.2549
12.528,0.092864,0.49951,0.8,-0.19216,0.38039
12.536,0.094819,0.52297,0.5451,0.11373,0.48431
12.544,0.096774,0.5435,0.32941,0.31373,0.57451
12.552,0.10068,0.56109,0.22353,0.40392,0.62549
12.56,0.10362,0.57478,0.20392,0.43529,0.63529
12.568,0.10753,0.58553,0.18431,0.43922,0.6451
12.576,0.11241,0.59042,0.18431,0.4451,0.6451
12.584,0.11632,0.59335,0.17843,0.44902,0.65098
12.592,0.12121,0.59433,0.19412,0.43922,0.64118
12.6,0.12708,0.59335,0.18824,0.43922,0.6451
12.608,0.13294,0.5914,0.20392,0.43529,0.63529
12.616,0.13881,0.58749,0.2,0.43529,0.63529
12.624,0.14565,0.58162,0.21373,0.43922,0.62549
12.632,0.15152,0.57478,0.2098,0.43529,0.62941
12.64,0.15836,0.56598,0.22353,0.42941,0.61569
12.648,0.1652,0.55523,0.21961,0.42549,0.62549
12.656,0.17204,0.5435,0.23333,0.4098,0.60588
12.664,0.17791,0.53177,0.23333,0.4098,0.61569
12.672,0.18475,0.52102,0.24902,0.39412,0.60588
12.68,0.18964,0.51222,0.2549,0.3902,0.6
12.688,0.19453,0.50244,0.25882,0.38431,0.5902
12.696,0.19941,0.49071,0.26863,0.37451,0.59608
12.704,0.2043,0.47801,0.27843,0.36471,0.58039
12.712,0.20821,0.46725,0.3,0.3549,0.57059
12.72,0.21212,0.4565,0.31961,0.34902,0.56078
12.728,0.21505,0.4477,0.33922,0.34902,0.5451
12.736,0.21799,0.43988,0.3549,0.35882,0.55098
12.744,0.21994,0.43304,0.37451,0.37059,0.52549
12.752,0.22092,0.42815,0.37451,0.38431,0.52941
12.76,0.22092,0.42424,0.39412,0.4,0.50588
12.768,0.2219,0.42229,0.4,0.41569,0.5098
12.776,0.22092,0.42033,0.4098,0.43529,0.5
12.784,0.21994,0.41838,0.4,0.44902,0.50588
12.792,0.21701,0.41544,0.41569,0.46078,0.4902
12.8,0.21505,0.41447,0.40392,0.47451,0.5
12.808,0.21212,0.41544,0.4098,0.48431,0.48431
12.816,0.20919,0.41544,0.39412,0.49412,0.5
12.824,0.20528,0.41447,0.4,0.5,0.5
12.832,0.20137,0.41447,0.37451,0.49412,0.51961
12.84,0.19648,0.41349,0.37451,0.4902,0.51569
12.848,0.19257,0.41153,0.3549,0.48039,0.52941
12.856,0.18671,0.41056,0.36471,0.48039,0.52549
12.864,0.18084,0.41056,0.38431,0.48039,0.51961
12.872,0.174,0.40958,0.41569,0.47451,0.50588
12.88,0.16813,0.40958,0.41961,0.48039,0.5098
12.888,0.16227,0.40762,0.41569,0.43922,0.50588
12.896,0.15738,0.40567,0.4549,0.4,0.49412
12.904,0.15347,0.40371,0.48431,0.36471,0.47451
12.912,0.14858,0.40078,0.4902,0.34902,0.47059
12.92,0.14467,0.39883,0.41569,0.34902,0.50588
12.928,0.13978,0.39589,0.38039,0.35882,0.52941
12.936,0.13587,0.39296,0.35882,0.37451,0.5451
12.944,0.13196,0.38905,0.37059,0.3902,0.53922
12.952,0.12805,0.38514,0.31961,0.38431,0.57059
12.96,0.12512,0.38025,0.3,0.3902,0.58039
12.968,0.12219,0.37634,0.27843,0.3902,0.59608
12.976,0.11926,0.37439,0.27843,0.3902,0.58431
12.984,0.11828,0.37537,0.2451,0.4098,0.6098
12.992,0.1173,0.38025,0.17451,0.50588,0.6451
13,0.11828,0.39003,0.13333,0.5902,0.66078
13.008,0.11828,0.40567,0.44902,0.61961,0.43922
13.016,0.12023,0.42522,0.88627,-0.037255,0.19412
13.024,0.12219,0.44868,1.2569,-0.49216,0.058824
13.032,0.12512,0.47312,1.0863,-0.50196,0.2451
13.04,0.12805,0.49853,0.82549,-0.23137,0.37059
13.048,0.13099,0.52297,0.56078,0.098039,0.48431
13.056,0.13392,0.54448,0.3549,0.3,0.56471
13.064,0.13783,0.56305,0.22941,0.4,0.62941
13.072,0.14076,0.57576,0.20392,0.42941,0.64118
13.08,0.14565,0.58456,0.18431,0.43922,0.6451
13.088,0.15054,0.58944,0.18824,0.4451,0.6451
13.096,0.15543,0.59238,0.18431,0.44902,0.65098
13.104,0.16129,0.59335,0.18431,0.43922,0.6451
13.112,0.16716,0.59335,0.19412,0.4451,0.64118
13.12,0.174,0.59042,0.18824,0.43922,0.6451
13.128,0.18182,0.58651,0.2098,0.43922,0.62941
13.136,0.18866,0.58358,0.21373,0.43922,0.63529
13.144,0.1955,0.58065,0.22353,0.43529,0.62549
13.152,0.20235,0.57674,0.21961,0.43529,0.62941
13.16,0.20821,0.57087,0.23333,0.42941,0.61569
13.168,0.21505,0.565,0.23333,0.41961,0.61961
13.176,0.21994,0.55718,0.2549,0.4098,0.60588
13.184,0.22581,0.54741,0.2451,0.4,0.61569
13.192,0.22972,0.53568,0.25882,0.3902,0.6
13.2,0.2346,0.52297,0.25882,0.38431,0.60588
13.208,0.23949,0.51026,0.27843,0.37451,0.58431
13.216,0.2434,0.49658,0.27843,0.36471,0.5902
13.224,0.24731,0.48387,0.3098,0.35882,0.57059
13.232,0.25024,0.47214,0.31961,0.3549,0.57451
13.24,0.25318,0.46139,0.34902,0.3549,0.5451
13.248,0.25513,0.45161,0.35882,0.36471,0.5451
13.256,0.25611,0.44379,0.37451,0.36471,0.52549
13.264,0.25806,0.43793,0.38431,0.38431,0.52549
13.272,0.25806,0.43402,0.4,0.39412,0.5098
13.28,0.25806,0.43206,0.40392,0.4098,0.51569
13.288,0.25806,0.42913,0.4,0.42941,0.50588
13.296,0.25709,0.42717,0.4098,0.4451,0.5
13.304,0.25611,0.4262,0.4,0.46078,0.50588
13.312,0.25415,0.42522,0.41961,0.47059,0.4902
13.32,0.2522,0.42522,0.41569,0.47059,0.49412
13.328,0.24927,0.42424,0.41961,0.48039,0.4902
13.336,0.24536,0.42326,0.40392,0.48431,0.50588
13.344,0.24047,0.42229,0.39412,0.48431,0.5
13.352,0.2346,0.42131,0.38039,0.48039,0.51569
13.36,0.22972,0.41935,0.37451,0.47451,0.5098
13.368,0.22385,0.41838,0.36471,0.47059,0.52549
13.376,0.21799,0.41838,0.4,0.47059,0.50588
13.384,0.2131,0.4174,0.41569,0.46471,0.50588
13.392,0.20821,0.4174,0.43529,0.47059,0.49412
13.4,0.20235,0.41642,0.42941,0.43922,0.50588
13.408,0.19648,0.41447,0.46471,0.40392,0.4902
13.416,0.18964,0.41251,0.4902,0.38039,0.48039
13.424,0.18377,0.41056,0.49412,0.3549,0.47059
13.432,0.17791,0.4086,0.43529,0.34902,0.5
13.44,0.17302,0.40762,0.4,0.3451,0.51961
13.448,0.16813,0.40567,0.37451,0.36471,0.5451
13.456,0.16325,0.40371,0.37451,0.38431,0.53922
13.464,0.15934,0.40176,0.33529,0.3902,0.56471
13.472,0.1564,0.3998,0.31373,0.3902,0.57451
13.48,0.15445,0.39785,0.3,0.3902,0.58431
13.488,0.15249,0.39785,0.29412,0.38431,0.58039
13.496,0.15054,0.39785,0.26863,0.39412,0.59608
13.504,0.14956,0.40176,0.2,0.48431,0.62941
13.512,0.14956,0.4086,0.14314,0.57451,0.6451
13.52,0.14858,0.42131,0.37059,0.62549,0.48431
13.528,0.14956,0.43891,0.84118,0.062745,0.21961
13.536,0.15152,0.46139,1.2373,-0.42745,0.052941
13.544,0.15347,0.48583,1.2667,-0.50196,0.19412
13.552,0.15543,0.51026,0.87647,-0.30784,0.3549
13.56,0.15934,0.53568,0.6451,0.039216,0.43529
13.568,0.16325,0.55523,0.39412,0.26471,0.5451
13.576,0.16813,0.56989,0.26863,0.38039,0.60588
13.584,0.17302,0.58358,0.21961,0.41961,0.62941
13.592,0.17889,0.59433,0.21373,0.43529,0.62549
13.6,0.18475,0.60215,0.2098,0.43922,0.63529
13.608,0.19159,0.60606,0.21373,0.4451,0.62549
13.616,0.19844,0.60802,0.2098,0.4451,0.62941
13.624,0.20528,0.60704,0.22941,0.43922,0.61569
13.632,0.21114,0.60411,0.21961,0.43529,0.62549
13.64,0.21799,0.60117,0.23333,0.43529,0.61569
13.648,0.22385,0.59629,0.23333,0.43529,0.61961
13.656,0.23069,0.5914,0.24902,0.43529,0.60588
13.664,0.23754,0.58456,0.23333,0.42941,0.61569
13.672,0.24536,0.57771,0.2549,0.41961,0.6
13.68,0.2522,0.57087,0.2549,0.4098,0.6098
13.688,0.25904,0.56109,0.25882,0.4,0.6
13.696,0.26491,0.55034,0.26471,0.39412,0.60588
13.704,0.27077,0.54057,0.25882,0.3902,0.59608
13.712,0.27566,0.53177,0.27843,0.38431,0.59608
13.72,0.28055,0.52102,0.27451,0.37059,0.58431
13.728,0.28543,0.51124,0.3,0.36471,0.58039
13.736,0.28935,0.50244,0.31373,0.3549,0.57059
13.744,0.29326,0.49267,0.33529,0.34902,0.56471
13.752,0.29521,0.48387,0.3549,0.33922,0.5451
13.76,0.29814,0.4741,0.37451,0.34902,0.52941
13.768,0.29912,0.46628,0.38431,0.3549,0.53529
13.776,0.30108,0.45846,0.40392,0.37059,0.51961
13.784,0.30108,0.45064,0.4098,0.38431,0.50588
13.792,0.30205,0.44282,0.42549,0.4,0.5
13.8,0.30108,0.43891,0.41961,0.41569,0.50588
13.808,0.30108,0.435,0.42941,0.42941,0.4902
13.816,0.29814,0.43304,0.42549,0.43922,0.4902
13.824,0.29619,0.43206,0.43922,0.46078,0.48039
13.832,0.2913,0.43206,0.42549,0.47059,0.4902
13.84,0.28739,0.43206,0.43529,0.48039,0.48039
13.848,0.2825,0.43011,0.41569,0.48431,0.49412
13.856,0.27761,0.42913,0.41569,0.48431,0.49412
13.864,0.27175,0.42815,0.39412,0.48039,0.51569
13.872,0.26588,0.42717,0.3902,0.47059,0.5098
13.88,0.26002,0.4262,0.38431,0.46078,0.52549
13.888,0.25318,0.42522,0.39412,0.46078,0.51569
13.896,0.24633,0.42424,0.41961,0.4549,0.50588
13.904,0.23949,0.42229,0.43922,0.46078,0.49412
13.912,0.23265,0.41935,0.4451,0.4549,0.4902
13.92,0.22581,0.4174,0.4549,0.4,0.49412
13.928,0.21896,0.41544,0.49412,0.37059,0.47451
13.936,0.2131,0.41349,0.5098,0.33922,0.46078
13.944,0.20723,0.41056,0.48039,0.33529,0.47451
13.952,0.20137,0.4086,0.42549,0.33529,0.50588
13.96,0.1955,0.40567,0.39412,0.3451,0.52549
13.968,0.19062,0.40469,0.38431,0.36471,0.53922
13.976,0.18671,0.40274,0.3902,0.37451,0.52941
13.984,0.18182,0.40078,0.33529,0.37451,0.56078
13.992,0.17889,0.39785,0.31961,0.37451,0.56471
14,0.17498,0.39492,0.30392,0.37451,0.57451
14.008,0.17302,0.39394,0.3098,0.37451,0.57059
14.016,0.17107,0.39785,0.2451,0.41961,0.60588
14.024,0.16911,0.40762,0.16863,0.51961,0.63529
14.032,0.16813,0.42131,0.14902,0.61961,0.64118
14.04,0.16813,0.44086,0.64118,0.3,0.32353
14.048,0.16813,0.46334,1.0725,-0.24706,0.10392
14.056,0.16813,0.48876,1.2627,-0.50196,0.04902
14.064,0.16911,0.51613,0.98235,-0.43725,0.3
14.072,0.17204,0.53861,0.7549,-0.10588,0.38431
14.08,0.174,0.55718,0.48431,0.17843,0.5098
14.088,0.17791,0.57576,0.31373,0.33529,0.58039
14.096,0.18182,0.59042,0.22941,0.40392,0.62549
14.104,0.18573,0.60215,0.2098,0.42941,0.63529
14.112,0.18964,0.60899,0.2,0.43529,0.62941
14.12,0.19453,0.61388,0.20392,0.43529,0.63529
14.128,0.19941,0.61584,0.2098,0.43922,0.62549
14.136,0.2043,0.61681,0.20392,0.43922,0.64118
14.144,0.21017,0.61584,0.21373,0.43529,0.62549
14.152,0.21701,0.61388,0.2098,0.43529,0.62941
14.16,0.22287,0.60899,0.23333,0.43529,0.61961
14.168,0.22972,0.60411,0.22353,0.43529,0.62549
14.176,0.23656,0.59726,0.23922,0.42941,0.6098
14.184,0.2434,0.58944,0.23333,0.42549,0.61569
14.192,0.25024,0.5826,0.24902,0.41961,0.6
14.2,0.25709,0.57478,0.2451,0.4098,0.60588
14.208,0.26491,0.56598,0.26471,0.4,0.59608
14.216,0.27175,0.55523,0.2549,0.3902,0.6
14.224,0.27859,0.5435,0.27451,0.38431,0.5902
14.232,0.28446,0.52884,0.27843,0.37451,0.59608
14.24,0.29032,0.51417,0.3,0.37059,0.57451
14.248,0.29521,0.50049,0.30392,0.35882,0.57059
14.256,0.3001,0.48583,0.32941,0.3549,0.5549
14.264,0.30499,0.47312,0.33922,0.3451,0.5549
14.272,0.3089,0.46334,0.36471,0.3451,0.52941
14.28,0.31281,0.45455,0.37451,0.35882,0.52941
14.288,0.31672,0.44673,0.4,0.36471,0.50588
14.296,0.31867,0.44184,0.4,0.38039,0.50588
14.304,0.3216,0.43793,0.42549,0.3902,0.4902
14.312,0.32258,0.435,0.42941,0.4098,0.49412
14.32,0.32356,0.43206,0.41961,0.42941,0.5
14.328,0.32454,0.42913,0.42941,0.44902,0.48431
14.336,0.32454,0.42815,0.42549,0.46078,0.4902
14.344,0.32356,0.42717,0.43529,0.47059,0.48039
14.352,0.32356,0.4262,0.41961,0.48039,0.4902
14.36,0.32063,0.42424,0.42941,0.4902,0.48039
14.368,0.31769,0.42424,0.41569,0.49412,0.4902
14.376,0.31378,0.42326,0.40392,0.4902,0.48039
14.384,0.30987,0.42131,0.3902,0.48039,0.50588
14.392,0.30401,0.41935,0.38431,0.47451,0.5098
14.4,0.29912,0.41838,0.37451,0.46078,0.51961
14.408,0.29326,0.41642,0.40392,0.46078,0.50588
14.416,0.28837,0.41447,0.41961,0.46078,0.49412
14.424,0.2825,0.41251,0.43922,0.46471,0.48039
14.432,0.27664,0.41153,0.4451,0.43922,0.49412
14.44,0.27175,0.40958,0.47059,0.39412,0.48039
14.448,0.26588,0.4086,0.49412,0.36471,0.47059
14.456,0.261,0.40762,0.5098,0.33922,0.46078
14.464,0.25611,0.40665,0.44902,0.33922,0.49412
14.472,0.25122,0.40567,0.41569,0.33922,0.50588
14.48,0.24633,0.40469,0.38431,0.35882,0.52941
14.488,0.24242,0.40274,0.38431,0.37451,0.52941
14.496,0.23851,0.40078,0.34902,0.3902,0.5549
14.504,0.2346,0.39883,0.31961,0.38431,0.57059
14.512,0.23167,0.39687,0.30392,0.38431,0.57451
14.52,0.22874,0.39492,0.30392,0.38039,0.57451
14.528,0.22678,0.39394,0.27843,0.39412,0.5902
14.536,0.22678,0.39785,0.2098,0.47451,0.62549
14.544,0.22581,0.40762,0.1549,0.56471,0.64118
14.552,0.22678,0.42131,0.35882,0.62549,0.4902
14.56,0.22776,0.44086,0.83137,0.084314,0.21961
14.568,0.22972,0.46139,1.2471,-0.41765,0.052941
14.576,0.23265,0.48192,1.2824,-0.50196,0.17843
14.584,0.2346,0.50635,0.8902,-0.30196,0.34902
14.592,0.23754,0.53079,0.6451,0.043137,0.4451
14.6,0.23949,0.55327,0.39412,0.27451,0.5549
14.608,0.24242,0.57087,0.26471,0.39412,0.6098
14.616,0.24731,0.58553,0.2098,0.43529,0.6451
14.624,0.2522,0.59531,0.20392,0.44902,0.64118
14.632,0.25806,0.60313,0.18824,0.46078,0.6451
14.64,0.26491,0.60704,0.2,0.4549,0.64118
14.648,0.27077,0.60802,0.19412,0.4549,0.6451
14.656,0.27761,0.60704,0.20392,0.44902,0.63529
14.664,0.28348,0.60411,0.2,0.44902,0.64118
14.672,0.28935,0.6002,0.2098,0.4451,0.62941
14.68,0.29619,0.59433,0.2098,0.44902,0.62549
14.688,0.30401,0.58651,0.21961,0.4451,0.62941
14.696,0.31183,0.57967,0.22353,0.44902,0.62549
14.704,0.32063,0.57185,0.23333,0.43529,0.6098
14.712,0.32942,0.56207,0.23922,0.43529,0.6098
14.72,0.33822,0.55132,0.24902,0.41569,0.6
14.728,0.34604,0.53959,0.2549,0.4098,0.6
14.736,0.35484,0.52884,0.25882,0.4,0.60588
14.744,0.36266,0.51711,0.26863,0.39412,0.59608
14.752,0.37048,0.50635,0.27843,0.38431,0.5902
14.76,0.37634,0.49462,0.29412,0.38039,0.58039
14.768,0.38221,0.48387,0.3098,0.35882,0.57059
14.776,0.3871,0.4741,0.33529,0.35882,0.5549
14.784,0.39296,0.46334,0.3549,0.3549,0.53922
14.792,0.39687,0.45357,0.38039,0.35882,0.52549
14.8,0.40176,0.44477,0.39412,0.36471,0.52941
14.808,0.40469,0.43793,0.4098,0.38039,0.50588
14.816,0.4086,0.43206,0.41961,0.3902,0.50588
14.824,0.41056,0.4262,0.43922,0.40392,0.4902
14.832,0.41349,0.42229,0.43529,0.41569,0.49412
14.84,0.41447,0.41838,0.4451,0.42941,0.48039
14.848,0.41642,0.41544,0.43922,0.4451,0.4902
14.856,0.4174,0.41349,0.4451,0.46078,0.48039
14.864,0.41935,0.41251,0.43529,0.47451,0.4902
14.872,0.41838,0.41251,0.4451,0.48431,0.48039
14.88,0.41838,0.41447,0.41961,0.49412,0.4902
14.888,0.4174,0.41447,0.41961,0.49412,0.4902
14.896,0.41544,0.41447,0.4,0.49412,0.5098
14.904,0.41447,0.41447,0.4,0.48039,0.51569
14.912,0.41349,0.41349,0.3902,0.48039,0.52549
14.92,0.41251,0.41251,0.38431,0.46471,0.51569
14.928,0.41153,0.41251,0.42549,0.47451,0.50588
14.936,0.41056,0.41153,0.43922,0.47059,0.4902
14.944,0.40958,0.40958,0.4549,0.47059,0.48431
14.952,0.4086,0.40762,0.4451,0.41961,0.49412
14.96,0.4086,0.40567,0.4902,0.3902,0.47451
14.968,0.4086,0.40469,0.51569,0.35882,0.46078
14.976,0.4086,0.40274,0.4902,0.34902,0.47451
14.984,0.4086,0.40078,0.42549,0.3451,0.5098
14.992,0.40958,0.3998,0.4,0.35882,0.52941
15,0.41056,0.39785,0.38039,0.38431,0.53922
15.008,0.41251,0.39394,0.3902,0.39412,0.5451
15.016,0.41447,0.38905,0.33529,0.39412,0.57059
15.024,0.41642,0.38514,0.31373,0.3902,0.56471
15.032,0.42033,0.38221,0.30392,0.4,0.58039
15.04,0.42424,0.38221,0.3098,0.39412,0.57451
15.048,0.42913,0.38514,0.23922,0.4451,0.61569
15.056,0.435,0.39394,0.1549,0.53922,0.6451
15.064,0.44086,0.40469,0.13922,0.62941,0.65098
15.072,0.44673,0.41838,0.6549,0.30392,0.32941
15.08,0.45455,0.43695,1.0961,-0.20196,0.10392
15.088,0.46139,0.46041,1.3176,-0.50196,0.043137
15.096,0.47214,0.48485,1.0412,-0.40784,0.27843
15.104,0.48192,0.50929,0.79608,-0.082353,0.37451
15.112,0.49462,0.53177,0.50588,0.20392,0.5098
15.12,0.50831,0.55132,0.31373,0.3549,0.58431
15.128,0.52102,0.56598,0.21961,0.42941,0.63529
15.136,0.5347,0.57674,0.2,0.44902,0.6451
15.144,0.54839,0.58358,0.18431,0.46078,0.64118
15.152,0.56305,0.58749,0.18431,0.46078,0.6451
15.16,0.58065,0.58944,0.19412,0.46078,0.64118
15.168,0.59824,0.59042,0.18824,0.46078,0.6451
15.176,0.61877,0.58944,0.20392,0.46078,0.62941
15.184,0.6393,0.58847,0.2,0.46078,0.63529
15.192,0.66178,0.58553,0.21373,0.46078,0.62549
15.2,0.68426,0.5826,0.21373,0.4549,0.62549
15.208,0.70674,0.57674,0.22353,0.44902,0.61961
15.216,0.72923,0.57087,0.21961,0.43922,0.62549
15.224,0.74878,0.56305,0.23922,0.43529,0.6098
15.232,0.76833,0.55425,0.23922,0.41961,0.61569
15.24,0.78592,0.54448,0.2549,0.4098,0.6
15.248,0.80352,0.53275,0.2549,0.40392,0.6
15.256,0.81916,0.52102,0.26471,0.39412,0.5902
15.264,0.83578,0.50929,0.26471,0.3902,0.59608
15.272,0.85044,0.49853,0.28431,0.38431,0.57451
15.28,0.86608,0.48583,0.2902,0.37451,0.58039
15.288,0.87879,0.4741,0.31373,0.36471,0.56078
15.296,0.89052,0.46334,0.32353,0.35882,0.5549
15.304,0.90029,0.45357,0.3549,0.3549,0.53529
15.312,0.91007,0.44477,0.35882,0.37059,0.53529
15.32,0.91691,0.43988,0.38039,0.37451,0.51961
15.328,0.92375,0.43597,0.3902,0.3902,0.51569
15.336,0.92864,0.43304,0.4,0.4,0.50588
15.344,0.93353,0.43109,0.4098,0.41569,0.50588
15.352,0.93646,0.42815,0.40392,0.42941,0.5
15.36,0.93939,0.42522,0.41569,0.43922,0.50588
15.368,0.94037,0.42424,0.4098,0.4451,0.49412
15.376,0.94233,0.42229,0.41961,0.46078,0.49412
15.384,0.9433,0.42131,0.41569,0.47059,0.5
15.392,0.9433,0.41935,0.41961,0.48039,0.4902
15.4,0.94428,0.41838,0.4,0.48039,0.50588
15.408,0.94428,0.4174,0.39412,0.47451,0.5098
15.416,0.94428,0.41642,0.37451,0.47059,0.52549
15.424,0.94428,0.4174,0.37451,0.46471,0.52549
15.432,0.9433,0.41838,0.36471,0.4549,0.52941
15.44,0.9433,0.4174,0.3902,0.4549,0.51961
15.448,0.9433,0.4174,0.41569,0.4549,0.5098
15.456,0.9433,0.41544,0.4451,0.46078,0.49412
15.464,0.9433,0.41349,0.43922,0.4451,0.5
15.472,0.9433,0.41251,0.46471,0.39412,0.48039
15.48,0.94526,0.41056,0.50588,0.37451,0.47059
15.488,0.94624,0.4086,0.51569,0.34902,0.46078
15.496,0.94917,0.40665,0.44902,0.34902,0.49412
15.504,0.9521,0.40469,0.40392,0.34902,0.51961
15.512,0.95601,0.40176,0.37451,0.37451,0.53922
15.52,0.9609,0.39785,0.37451,0.38431,0.5451
15.528,0.96676,0.39394,0.33529,0.39412,0.56471
15.536,0.97263,0.39101,0.31373,0.39412,0.57451
15.544,0.97849,0.38807,0.2902,0.4,0.5902
15.552,0.98436,0.3871,0.28431,0.40392,0.59608
15.56,0.9912,0.39101,0.26471,0.41961,0.60588
15.568,0.99707,0.39687,0.17843,0.5098,0.6451
15.576,0.99902,0.40762,0.13333,0.58431,0.6549
15.584,1,0.42424,0.3902,0.62941,0.48039
15.592,1,0.44575,0.87647,0.078431,0.2098
15.6,1,0.47019,1.2765,-0.38824,0.04902
15.608,1,0.4956,1.2922,-0.49804,0.18431
15.616,1,0.52102,0.88627,-0.23137,0.3451
15.624,1,0.5435,0.6451,0.068627,0.42941
15.632,1,0.56305,0.39412,0.2902,0.55098
15.64,1,0.57869,0.26471,0.39412,0.60588
15.648,1,0.5914,0.2098,0.42941,0.63529
15.656,1,0.60117,0.20392,0.43529,0.62941
15.664,1,0.60606,0.19412,0.4451,0.6451
15.672,1,0.60802,0.20392,0.4451,0.63529
15.68,1,0.60997,0.19412,0.43922,0.6451
15.688,1,0.60899,0.2098,0.43529,0.63529
15.696,1,0.60606,0.20392,0.43922,0.64118
15.704,1,0.60215,0.2098,0.43529,0.62549
15.712,1,0.59726,0.21373,0.43529,0.62941
15.72,1,0.59042,0.22941,0.42941,0.61569
15.728,1,0.58358,0.23333,0.43529,0.62549
15.736,1,0.57576,0.22941,0.41961,0.6098
15.744,1,0.56696,0.2451,0.4098,0.61569
15.752,1,0.55621,0.2451,0.3902,0.60588
15.76,1,0.54545,0.2549,0.3902,0.6
15.768,1,0.53568,0.24902,0.38039,0.60588
15.776,1,0.52688,0.26471,0.38039,0.6
15.784,1,0.51808,0.25882,0.36471,0.59608
15.792,1,0.50831,0.28431,0.35882,0.58431
15.8,1,0.49951,0.29412,0.3451,0.57451
15.808,1,0.48974,0.32353,0.3451,0.56471
15.816,1,0.47898,0.32941,0.33922,0.5549
15.824,1,0.46921,0.3549,0.3451,0.5451
15.832,1,0.45943,0.35882,0.35882,0.53529
15.84,1,0.45064,0.3902,0.36471,0.51961
15.848,1,0.44379,0.4,0.38431,0.5098
15.856,1,0.44086,0.41961,0.3902,0.5
15.864,1,0.43988,0.4098,0.4098,0.50588
15.872,1,0.43891,0.42549,0.43529,0.4902
15.88,1,0.43891,0.41569,0.4549,0.5
15.888,1,0.43793,0.41961,0.46078,0.4902
15.896,1,0.43695,0.41569,0.48039,0.5
15.904,1,0.435,0.41961,0.48039,0.4902
15.912,0.99609,0.43304,0.4098,0.49412,0.5
15.92,0.9912,0.43304,0.4098,0.48431,0.5
15.928,0.97067,0.43304,0.3902,0.49412,0.5098
15.936,0.95015,0.43304,0.38039,0.48039,0.51961
15.944,0.9306,0.43304,0.37451,0.48039,0.51569
15.952,0.91105,0.43206,0.37059,0.46471,0.52549
15.96,0.89052,0.43109,0.4098,0.46471,0.5098
15.968,0.87097,0.43011,0.42941,0.46471,0.50588
15.976,0.85044,0.42913,0.43922,0.47059,0.5
15.984,0.83089,0.42717,0.43529,0.41961,0.50588
15.992,0.81232,0.42424,0.48039,0.39412,0.48039
16,0.79277,0.42131,0.5,0.36471,0.47059
16.008,0.77419,0.41838,0.47451,0.3549,0.48431
16.016,0.7566,0.41642,0.41569,0.34902,0.51569
16.024,0.73998,0.41349,0.38039,0.36471,0.53529
16.032,0.72336,0.41153,0.36471,0.38039,0.55098
16.04,0.70772,0.4086,0.34902,0.3902,0.5549
16.048,0.69306,0.40665,0.30392,0.39412,0.58039
16.056,0.6784,0.40469,0.2902,0.3902,0.58431
16.064,0.66373,0.40274,0.27843,0.39412,0.6
16.072,0.64907,0.40469,0.27843,0.39412,0.59608
16.08,0.63539,0.4086,0.21961,0.43529,0.62549
16.088,0.62366,0.41642,0.13922,0.53922,0.66078
16.096,0.61095,0.42913,0.12353,0.61961,0.66471
16.104,0.6002,0.44575,0.59608,0.36471,0.35882
16.112,0.58944,0.46823,1.0157,-0.15686,0.14314
16.12,0.57771,0.49267,1.2314,-0.50196,0.07451
16.128,0.56696,0.51808,0.97059,-0.41176,0.31373
16.136,0.55523,0.5435,0.7451,-0.11176,0.4
16.144,0.54448,0.56598,0.48039,0.16863,0.52549
16.152,0.53275,0.58358,0.29412,0.33529,0.60588
16.16,0.52102,0.59824,0.2,0.40392,0.6451
16.168,0.51026,0.60704,0.17451,0.42549,0.6549
16.176,0.49951,0.61193,0.17843,0.43529,0.65098
16.184,0.49071,0.61584,0.17451,0.43922,0.6549
16.192,0.48094,0.61779,0.18431,0.43922,0.65098
16.2,0.47312,0.61779,0.17843,0.43529,0.6549
16.208,0.4653,0.61486,0.18824,0.43529,0.64118
16.216,0.45846,0.61193,0.18824,0.43529,0.6451
16.224,0.45161,0.60606,0.2,0.43529,0.63529
16.232,0.44477,0.59922,0.20392,0.43922,0.64118
16.24,0.43793,0.5914,0.21373,0.43529,0.62549
16.248,0.43206,0.58358,0.2098,0.42941,0.62549
16.256,0.4262,0.5738,0.22353,0.41961,0.61961
16.264,0.42131,0.56403,0.22353,0.4098,0.62549
16.272,0.41642,0.55523,0.23922,0.40392,0.6098
16.28,0.41153,0.5435,0.23333,0.3902,0.61569
16.288,0.40762,0.53079,0.24902,0.38431,0.6
16.296,0.40274,0.51808,0.24902,0.37451,0.6098
16.304,0.39883,0.50635,0.26471,0.36471,0.59608
16.312,0.39394,0.49462,0.27451,0.35882,0.6
16.32,0.38905,0.48387,0.3,0.33922,0.57451
16.328,0.38319,0.4741,0.30392,0.33922,0.57451
16.336,0.3783,0.46432,0.32941,0.33529,0.5549
16.344,0.37243,0.45552,0.34902,0.3451,0.55098
16.352,0.36755,0.4477,0.37059,0.34902,0.53529
16.36,0.36168,0.44184,0.37451,0.37059,0.52941
16.368,0.35582,0.43793,0.38431,0.38431,0.52549
16.376,0.348,0.435,0.39412,0.40392,0.52549
16.384,0.34115,0.43304,0.4,0.4098,0.51569
16.392,0.33138,0.43011,0.40392,0.43529,0.50588
16.4,0.32258,0.42815,0.4098,0.44902,0.50588
16.408,0.31281,0.42522,0.41569,0.46471,0.5
16.416,0.30303,0.42424,0.4,0.48039,0.50588
16.424,0.29326,0.42424,0.40392,0.48431,0.50588
16.432,0.28348,0.42326,0.39412,0.5,0.50588
16.44,0.26979,0.42424,0.38431,0.4902,0.51569
16.448,0.25709,0.42326,0.37451,0.48039,0.52941
16.456,0.24145,0.42229,0.37451,0.47059,0.52549
16.464,0.22483,0.42131,0.36471,0.46078,0.52941
16.472,0.20821,0.41935,0.39412,0.46078,0.51569
16.48,0.19062,0.41838,0.4098,0.46078,0.5098
16.488,0.17302,0.41642,0.42549,0.4549,0.50588
16.496,0.15445,0.41544,0.42549,0.42549,0.50588
16.504,0.13881,0.41447,0.46078,0.3902,0.4902
16.512,0.12414,0.41349,0.48431,0.36471,0.48039
16.52,0.11046,0.41251,0.4902,0.33922,0.48039
16.528,0.096774,0.41056,0.41961,0.33922,0.51569
16.536,0.085044,0.40762,0.3902,0.33529,0.52941
16.544,0.073314,0.40371,0.37059,0.36471,0.53922
16.552,0.062561,0.39785,0.37451,0.37059,0.5451
16.56,0.051808,0.39394,0.32941,0.38039,0.57451
16.568,0.043988,0.39003,0.30392,0.37451,0.58039
16.576,0.035191,0.38612,0.2902,0.38039,0.5902
16.584,0.029326,0.38416,0.28431,0.38431,0.58431
16.592,0.024438,0.38416,0.25882,0.40392,0.60588
16.6,0.01955,0.38807,0.17843,0.5,0.64118
16.608,0.01564,0.39687,0.1549,0.5902,0.65098
16.616,0.01173,0.41153,0.42941,0.62549,0.4549
16.624,0.0078201,0.43206,0.88627,-0.0058823,0.19412
16.632,0.0039101,0.4565,1.2627,-0.48235,0.058824
16.64,0,0.48192,1.1216,-0.50196,0.21373
16.648,0,0.50733,0.84118,-0.26667,0.36471
16.656,0,0.53079,0.59608,0.07451,0.46078
16.664,0,0.55034,0.35882,0.28431,0.56471
16.672,0,0.56403,0.2451,0.38431,0.61961
16.68,0,0.57576,0.20392,0.41961,0.64118
16.688,0,0.58456,0.20392,0.43529,0.63529
16.696,0,0.58944,0.18824,0.43922,0.6451
16.704,0,0.5914,0.20392,0.43529,0.64118
16.712,0,0.59042,0.2,0.43922,0.64118
16.72,0,0.58749,0.2098,0.43529,0.62549
16.728,0,0.58553,0.21373,0.43529,0.62941
16.736,0,0.5826,0.21961,0.43529,0.61961
16.744,0.00097752,0.57869,0.22353,0.43529,0.62549
16.752,0.001955,0.57283,0.23333,0.42941,0.61569
16.76,0.0068426,0.56696,0.23333,0.42941,0.62549
16.768,0.01173,0.56012,0.23922,0.41961,0.60588
16.776,0.016618,0.55132,0.24902,0.4098,0.6098
16.784,0.021505,0.54154,0.2451,0.4,0.6
16.792,0.02737,0.53079,0.26471,0.39412,0.6
16.8,0.032258,0.51906,0.25882,0.38431,0.59608
16.808,0.038123,0.50831,0.27451,0.38431,0.5902
16.816,0.043011,0.49756,0.27843,0.37059,0.59608
16.824,0.047898,0.48778,0.3,0.36471,0.57451
16.832,0.052786,0.47898,0.31373,0.3549,0.56471
16.84,0.056696,0.46823,0.33529,0.34902,0.5549
16.848,0.061584,0.4565,0.34902,0.34902,0.5451
16.856,0.064516,0.44673,0.37059,0.3549,0.52941
16.864,0.068426,0.43988,0.38039,0.36471,0.52549
16.872,0.072336,0.43402,0.4,0.37059,0.50588
16.88,0.076246,0.42815,0.40392,0.3902,0.50588
16.888,0.079179,0.42424,0.41961,0.40392,0.4902
16.896,0.082111,0.42131,0.41961,0.41961,0.5
16.904,0.085044,0.41935,0.42941,0.43529,0.4902
16.912,0.087977,0.41935,0.42549,0.4549,0.4902
16.92,0.088954,0.42033,0.43529,0.46078,0.48039
16.928,0.089932,0.42131,0.42549,0.48039,0.48431
16.936,0.087977,0.42229,0.42941,0.48039,0.48431
16.944,0.086999,0.42131,0.4098,0.4902,0.49412
16.952,0.085044,0.42033,0.4,0.48039,0.5
16.96,0.084066,0.41838,0.38431,0.48431,0.5098
16.968,0.081134,0.4174,0.3902,0.47451,0.5098
16.976,0.079179,0.41544,0.37451,0.47059,0.51961
16.984,0.076246,0.41349,0.40392,0.46078,0.50588
16.992,0.073314,0.41153,0.42549,0.46471,0.5
17,0.070381,0.4086,0.43922,0.46471,0.49412
17.008,0.066471,0.40762,0.4451,0.4451,0.49412
17.016,0.063539,0.40567,0.46078,0.4,0.48431
17.024,0.060606,0.40469,0.50588,0.37059,0.46471
17.032,0.056696,0.40371,0.5,0.34902,0.47059
17.04,0.053763,0.40078,0.4549,0.33922,0.4902
17.048,0.050831,0.39687,0.4,0.3451,0.51569
17.056,0.048876,0.39296,0.38431,0.35882,0.52941
17.064,0.046921,0.38905,0.37451,0.38039,0.53922
17.072,0.045943,0.38612,0.3451,0.38431,0.55098
17.08,0.044966,0.38123,0.31373,0.38039,0.57059
17.088,0.044966,0.37732,0.30392,0.37451,0.58039
17.096,0.045943,0.37439,0.2902,0.3902,0.58431
17.104,0.045943,0.37439,0.27843,0.39412,0.5902
17.112,0.047898,0.3783,0.19412,0.47451,0.63529
17.12,0.049853,0.3871,0.13922,0.56078,0.65098
17.128,0.051808,0.40176,0.32941,0.61961,0.51569
17.136,0.054741,0.42229,0.81176,0.088235,0.22941
17.144,0.057674,0.44575,1.2118,-0.40196,0.068627
17.152,0.060606,0.47214,1.2765,-0.50196,0.16863
17.16,0.064516,0.49462,0.89608,-0.33333,0.34902
17.168,0.068426,0.5132,0.66471,0.0039216,0.43529
17.176,0.073314,0.53372,0.4,0.2549,0.5549
17.184,0.078201,0.55327,0.26471,0.37451,0.61569
17.192,0.084066,0.56891,0.2098,0.41961,0.64118
17.2,0.089932,0.5826,0.2,0.42941,0.6451
17.208,0.096774,0.59238,0.20392,0.43529,0.63529
17.216,0.10362,0.6002,0.19412,0.43529,0.6451
17.224,0.11046,0.60508,0.20392,0.43529,0.63529
17.232,0.11828,0.60606,0.2098,0.43529,0.64118
17.24,0.1261,0.60411,0.21373,0.42941,0.62549
17.248,0.13392,0.59824,0.2098,0.43529,0.63529
17.256,0.14272,0.5914,0.22941,0.42941,0.61961
17.264,0.15152,0.58456,0.22941,0.43529,0.62549
17.272,0.15934,0.57869,0.23333,0.42549,0.6098
17.28,0.16716,0.57185,0.23922,0.4098,0.60588
17.288,0.174,0.56403,0.2549,0.4098,0.6
17.296,0.18182,0.55621,0.24902,0.40392,0.6
17.304,0.18768,0.54545,0.26471,0.39412,0.59608
17.312,0.19355,0.5347,0.26471,0.3902,0.59608
17.32,0.19941,0.52199,0.27843,0.38039,0.58431
17.328,0.2043,0.50929,0.27843,0.37451,0.58431
17.336,0.20919,0.49658,0.29412,0.36471,0.57451
17.344,0.21408,0.48583,0.30392,0.3549,0.57451
17.352,0.21799,0.47605,0.32353,0.3451,0.5549
17.36,0.2219,0.46725,0.3451,0.3549,0.5549
17.368,0.22385,0.45846,0.37059,0.3549,0.53529
17.376,0.22678,0.44966,0.38039,0.36471,0.52941
17.384,0.22776,0.44184,0.4,0.37451,0.51569
17.392,0.22972,0.43597,0.40392,0.3902,0.50588
17.4,0.22874,0.43206,0.41961,0.40392,0.4902
17.408,0.22874,0.42815,0.41961,0.41961,0.49412
17.416,0.22678,0.42522,0.41569,0.42941,0.4902
17.424,0.22483,0.42229,0.42549,0.4549,0.48431
17.432,0.21994,0.42033,0.41961,0.46078,0.49412
17.44,0.21603,0.41935,0.42549,0.47059,0.48039
17.448,0.21017,0.41838,0.41961,0.48039,0.4902
17.456,0.20528,0.41838,0.41569,0.48431,0.4902
17.464,0.19941,0.41935,0.4098,0.48039,0.5
17.472,0.19355,0.41935,0.4,0.48039,0.5
17.48,0.18768,0.42033,0.38039,0.47451,0.5098
17.488,0.18182,0.42033,0.38431,0.46471,0.51569
17.496,0.17498,0.41935,0.39412,0.47059,0.51961
17.504,0.16813,0.41838,0.42941,0.46078,0.49412
17.512,0.16129,0.41642,0.43529,0.46471,0.49412
17.52,0.15445,0.41447,0.4451,0.4549,0.4902
17.528,0.14761,0.41251,0.4451,0.41569,0.5
17.536,0.14174,0.40958,0.49412,0.38431,0.47059
17.544,0.13587,0.40665,0.5098,0.35882,0.46471
17.552,0.13001,0.40371,0.47451,0.33922,0.47451
17.56,0.12512,0.40176,0.41569,0.3451,0.5098
17.568,0.12023,0.3998,0.38431,0.34902,0.52549
17.576,0.11535,0.39785,0.37451,0.37451,0.53529
17.584,0.11046,0.39589,0.35882,0.38431,0.5451
17.592,0.10655,0.39296,0.32941,0.3902,0.56471
17.6,0.10362,0.39101,0.30392,0.38431,0.57451
17.608,0.10166,0.38905,0.3,0.3902,0.58039
17.616,0.099707,0.38905,0.3,0.3902,0.58039
17.624,0.099707,0.39198,0.2451,0.41961,0.60588
17.632,0.099707,0.3998,0.16471,0.52549,0.64118
17.64,0.10068,0.41349,0.15882,0.62549,0.5902
17.648,0.10166,0.43206,0.63529,0.31373,0.32941
17.656,0.10362,0.45455,1.0725,-0.22745,0.10392
17.664,0.10557,0.47703,1.2725,-0.50196,0.04902
17.672,0.10948,0.49853,1.0118,-0.44314,0.28431
17.68,0.11241,0.52199,0.76667,-0.10588,0.38431
17.688,0.1173,0.54448,0.5098,0.17451,0.4902
17.696,0.12121,0.565,0.31373,0.3451,0.58431
17.704,0.1261,0.58162,0.23922,0.4098,0.61569
17.712,0.13099,0.59335,0.2098,0.42941,0.62941
17.72,0.13685,0.60313,0.21373,0.43529,0.62549
17.728,0.14272,0.60899,0.2098,0.44902,0.62549
17.736,0.15054,0.61193,0.2098,0.43529,0.62549
17.744,0.15738,0.61193,0.21373,0.43922,0.62549
17.752,0.16618,0.60997,0.22353,0.42941,0.61569
17.76,0.174,0.60606,0.22941,0.43529,0.61961
17.768,0.1828,0.60215,0.23333,0.42941,0.6098
17.776,0.19257,0.59726,0.23333,0.43529,0.61961
17.784,0.20039,0.59042,0.23333,0.42549,0.6098
17.792,0.20919,0.58358,0.23922,0.42549,0.60588
17.8,0.21603,0.57674,0.24902,0.4098,0.6
17.808,0.22385,0.56794,0.25882,0.40392,0.6
17.816,0.22972,0.55816,0.26471,0.39412,0.5902
17.824,0.23656,0.54643,0.26863,0.3902,0.5902
17.832,0.24145,0.5347,0.26471,0.37451,0.58431
17.84,0.24731,0.52297,0.28431,0.37059,0.58039
17.848,0.25122,0.51222,0.29412,0.35882,0.57059
17.856,0.25611,0.50049,0.3098,0.3549,0.56471
17.864,0.26002,0.49169,0.32353,0.3451,0.57059
17.872,0.26393,0.48192,0.3451,0.33922,0.5549
17.88,0.26686,0.47116,0.35882,0.3451,0.53922
17.888,0.26882,0.46139,0.37451,0.34902,0.52941
17.896,0.27077,0.45161,0.3902,0.36471,0.51569
17.904,0.27175,0.44477,0.40392,0.37059,0.50588
17.912,0.27077,0.43988,0.4098,0.3902,0.50588
17.92,0.26979,0.43597,0.42549,0.40392,0.4902
17.928,0.26784,0.43402,0.41961,0.42549,0.4902
17.936,0.26588,0.43402,0.42941,0.43529,0.48431
17.944,0.26393,0.43402,0.42549,0.4549,0.4902
17.952,0.261,0.43304,0.43529,0.46078,0.48431
17.96,0.25904,0.43304,0.41961,0.47451,0.4902
17.968,0.25611,0.43206,0.41961,0.48039,0.4902
17.976,0.25122,0.43206,0.4,0.48039,0.50588
17.984,0.24731,0.43109,0.4,0.47451,0.50588
17.992,0.24145,0.43109,0.38431,0.48039,0.51569
18,0.23558,0.42913,0.38039,0.46078,0.51961
18.008,0.22972,0.42717,0.37451,0.46078,0.52941
18.016,0.22385,0.42522,0.4,0.46078,0.5098
18.024,0.21896,0.42229,0.41961,0.46078,0.50588
18.032,0.2131,0.42033,0.43529,0.46471,0.49412
18.04,0.20723,0.4174,0.43922,0.43529,0.49412
18.048,0.20137,0.41544,0.46471,0.3902,0.48431
18.056,0.1955,0.41251,0.50588,0.36471,0.46471
18.064,0.18866,0.41056,0.49412,0.3451,0.46471
18.072,0.1828,0.40958,0.4451,0.33922,0.4902
18.08,0.17693,0.40762,0.4,0.3451,0.51569
18.088,0.17107,0.40469,0.38039,0.36471,0.52941
18.096,0.1652,0.3998,0.37451,0.38431,0.53922
18.104,0.16129,0.39394,0.3451,0.38431,0.5549
18.112,0.1564,0.38807,0.31373,0.3902,0.57451
18.12,0.15445,0.38319,0.30392,0.38431,0.57451
18.128,0.15152,0.38123,0.3,0.3902,0.5902
18.136,0.14956,0.38319,0.28431,0.39412,0.58431
18.144,0.14761,0.39003,0.19412,0.4902,0.62941
18.152,0.14761,0.40274,0.14902,0.57059,0.6451
18.16,0.14663,0.4174,0.37059,0.62549,0.4902
18.168,0.14663,0.435,0.84118,0.04902,0.21373
18.176,0.14663,0.45748,1.2471,-0.44706,0.058824
18.184,0.14858,0.48289,1.2569,-0.50196,0.18824
18.192,0.14956,0.51026,0.87647,-0.30196,0.3549
18.2,0.15249,0.53666,0.62549,0.043137,0.4451
18.208,0.15543,0.56012,0.3902,0.26863,0.5549
18.216,0.15934,0.57967,0.25882,0.38039,0.6098
18.224,0.16422,0.59531,0.21373,0.41961,0.62941
18.232,0.16911,0.60704,0.20392,0.43529,0.63529
18.24,0.17498,0.61584,0.2098,0.43529,0.62941
18.248,0.18182,0.6217,0.19412,0.43529,0.64118
18.256,0.18768,0.62366,0.2098,0.42941,0.62941
18.264,0.19453,0.62268,0.2098,0.43529,0.62549
18.272,0.20137,0.61975,0.21961,0.42941,0.62549
18.28,0.20821,0.61584,0.22353,0.43529,0.61569
18.288,0.21603,0.61095,0.23333,0.42941,0.61569
18.296,0.22287,0.60411,0.22941,0.43529,0.61961
18.304,0.23069,0.59726,0.23922,0.42549,0.60588
18.312,0.23851,0.58944,0.23922,0.41569,0.6098
18.32,0.24633,0.58065,0.2549,0.4098,0.6
18.328,0.25318,0.56989,0.2549,0.4,0.6
18.336,0.26002,0.55621,0.26863,0.3902,0.5902
18.344,0.26588,0.54154,0.26863,0.38431,0.5902
18.352,0.27175,0.52981,0.28431,0.37059,0.58039
18.36,0.27664,0.51906,0.28431,0.37451,0.58039
18.368,0.28152,0.51026,0.30392,0.35882,0.57059
18.376,0.28543,0.50147,0.31373,0.3549,0.56471
18.384,0.28935,0.49169,0.33922,0.3451,0.55098
18.392,0.29228,0.48192,0.34902,0.3451,0.5451
18.4,0.29521,0.47214,0.37451,0.34902,0.52549
18.408,0.29717,0.46237,0.3902,0.35882,0.51961
18.416,0.29814,0.45357,0.40392,0.36471,0.50588
18.424,0.29912,0.44575,0.41569,0.38039,0.50588
18.432,0.29912,0.44086,0.41961,0.3902,0.4902
18.44,0.29912,0.43597,0.42941,0.4098,0.49412
18.448,0.29814,0.43304,0.43529,0.42549,0.48039
18.456,0.29619,0.43109,0.43922,0.4451,0.48039
18.464,0.29521,0.43011,0.4451,0.46078,0.47451
18.472,0.2913,0.43011,0.4451,0.46471,0.48039
18.48,0.28837,0.43109,0.43529,0.48039,0.48431
18.488,0.28446,0.43304,0.42549,0.48039,0.4902
18.496,0.28152,0.43402,0.41569,0.48431,0.5
18.504,0.27761,0.43402,0.4,0.48039,0.50588
18.512,0.27273,0.43304,0.39412,0.48431,0.51961
18.52,0.26686,0.43109,0.3902,0.46078,0.51569
18.528,0.26197,0.42913,0.38039,0.46078,0.52549
18.536,0.25415,0.42717,0.41569,0.4451,0.50588
18.544,0.24731,0.42522,0.42941,0.4549,0.50588
18.552,0.23949,0.42229,0.4451,0.46078,0.5
18.56,0.23265,0.42033,0.4451,0.41569,0.50588
18.568,0.22483,0.41935,0.48039,0.38039,0.48039
18.576,0.21799,0.4174,0.50588,0.35882,0.46471
18.584,0.21114,0.41544,0.4902,0.33529,0.47059
18.592,0.20528,0.41251,0.42941,0.33922,0.50588
18.6,0.20039,0.4086,0.39412,0.33922,0.51961
18.608,0.1955,0.40371,0.37451,0.37059,0.53529
18.616,0.19159,0.39687,0.37451,0.38431,0.53922
18.624,0.18768,0.39101,0.33529,0.38431,0.56078
18.632,0.18475,0.38612,0.3098,0.38039,0.57451
18.64,0.18084,0.38319,0.30392,0.38431,0.57451
18.648,0.17889,0.38221,0.3,0.38431,0.58039
18.656,0.17693,0.38514,0.26471,0.4,0.57451
18.664,0.17595,0.39198,0.17451,0.49412,0.62941
18.672,0.174,0.40469,0.14902,0.5902,0.64118
18.68,0.17498,0.42326,0.48039,0.6098,0.41569
18.688,0.17498,0.44575,0.93137,-0.056863,0.16471
18.696,0.17693,0.47116,1.2824,-0.50196,0.052941
18.704,0.17889,0.49853,1.1059,-0.50196,0.22353
18.712,0.1828,0.52493,0.84118,-0.22745,0.35882
18.72,0.18573,0.55132,0.57451,0.098039,0.47059
18.728,0.19062,0.57283,0.34902,0.30392,0.57059
18.736,0.19648,0.59042,0.2549,0.3902,0.6098
18.744,0.20137,0.60313,0.21373,0.42549,0.62549
18.752,0.20626,0.61193,0.2098,0.43529,0.62549
18.76,0.21212,0.61681,0.20392,0.43922,0.63529
18.768,0.21701,0.61779,0.2098,0.43529,0.62549
18.776,0.22385,0.61779,0.20392,0.43529,0.62941
18.784,0.23069,0.61584,0.21961,0.43529,0.62549
18.792,0.23851,0.6129,0.21961,0.43529,0.62549
18.8,0.24633,0.60899,0.22941,0.42941,0.61961
18.808,0.25415,0.60313,0.23333,0.43529,0.62549
18.816,0.26197,0.59629,0.22941,0.42941,0.6098
18.824,0.26979,0.58944,0.23333,0.42549,0.61569
18.832,0.27761,0.58065,0.2451,0.41569,0.6
18.84,0.28543,0.56989,0.2549,0.4098,0.60588
18.848,0.29326,0.55914,0.2549,0.40392,0.6
18.856,0.3001,0.54839,0.25882,0.39412,0.6
18.864,0.30792,0.53763,0.2549,0.3902,0.5902
18.872,0.31476,0.52688,0.27451,0.38039,0.59608
18.88,0.3216,0.51613,0.27843,0.37451,0.58431
18.888,0.32747,0.5044,0.30392,0.37059,0.57451
18.896,0.33431,0.49267,0.31961,0.35882,0.56471
18.904,0.33822,0.48192,0.33922,0.34902,0.5549
18.912,0.34311,0.47116,0.3549,0.3549,0.5451
18.92,0.34702,0.46041,0.37451,0.34902,0.52941
18.928,0.35093,0.45064,0.38431,0.36471,0.51961
18.936,0.35288,0.44282,0.40392,0.37059,0.50588
18.944,0.35484,0.43793,0.4098,0.3902,0.50588
18.952,0.35582,0.43402,0.42941,0.40392,0.4902
18.96,0.35679,0.43109,0.42549,0.42549,0.5
18.968,0.35679,0.42913,0.42941,0.43529,0.48431
18.976,0.35582,0.42717,0.42549,0.4549,0.4902
18.984,0.35484,0.42522,0.43922,0.46471,0.48039
18.992,0.35288,0.42424,0.42941,0.48039,0.48039
19,0.34897,0.42326,0.42941,0.48039,0.48039
19.008,0.34604,0.42229,0.4098,0.49412,0.49412
19.016,0.34018,0.42131,0.4098,0.4902,0.5
19.024,0.33529,0.41935,0.39412,0.48431,0.50588
19.032,0.32942,0.41838,0.3902,0.47451,0.5098
19.04,0.32258,0.4174,0.38039,0.47059,0.51961
19.048,0.31574,0.41642,0.37451,0.46078,0.5098
19.056,0.3089,0.4174,0.41569,0.4549,0.50588
19.064,0.30303,0.4174,0.42941,0.46078,0.5
19.072,0.29717,0.4174,0.43922,0.46078,0.49412
19.08,0.2913,0.41642,0.44902,0.41961,0.5
19.088,0.28641,0.41447,0.48431,0.3902,0.47451
19.096,0.28152,0.41349,0.51569,0.36471,0.46078
19.104,0.27761,0.41153,0.4902,0.3549,0.47451
19.112,0.2737,0.40958,0.42941,0.34902,0.50588
19.12,0.26979,0.40665,0.4,0.35882,0.51961
19.128,0.26686,0.40274,0.37451,0.38431,0.53922
19.136,0.26295,0.39785,0.35882,0.39412,0.5451
19.144,0.261,0.39394,0.31961,0.4,0.57059
19.152,0.25904,0.39003,0.30392,0.4,0.57451
19.16,0.25904,0.3871,0.27843,0.40392,0.5902
19.168,0.25904,0.3871,0.28431,0.40392,0.58039
19.176,0.26002,0.39101,0.23922,0.42941,0.61569
19.184,0.26197,0.39883,0.1549,0.52549,0.6451
19.192,0.26686,0.41153,0.12353,0.6098,0.6549
19.2,0.27175,0.43109,0.56078,0.40392,0.38039
19.208,0.27859,0.45357,1.0157,-0.10196,0.14902
19.216,0.28543,0.47801,1.3333,-0.49804,0.058824
19.224,0.29326,0.50342,1.0608,-0.50196,0.26471
19.232,0.30205,0.52786,0.8,-0.13137,0.37451
19.24,0.31183,0.54936,0.52549,0.15882,0.5
19.248,0.32063,0.56891,0.32941,0.33922,0.58039
19.256,0.33333,0.58358,0.23922,0.41569,0.61961
19.264,0.34604,0.59335,0.2098,0.43529,0.62941
19.272,0.36168,0.60215,0.20392,0.43922,0.62549
19.28,0.37634,0.60704,0.2,0.44902,0.63529
19.288,0.39198,0.60997,0.20392,0.4451,0.62549
19.296,0.40665,0.60997,0.2098,0.44902,0.62941
19.304,0.42229,0.60802,0.21961,0.43922,0.61961
19.312,0.43793,0.60411,0.22941,0.43922,0.61569
19.32,0.45748,0.59726,0.23922,0.43922,0.60588
19.328,0.47605,0.59042,0.23922,0.43922,0.6098
19.336,0.49853,0.5826,0.2549,0.43529,0.6
19.344,0.52004,0.57576,0.2549,0.43529,0.60588
19.352,0.54448,0.56696,0.26471,0.41961,0.5902
19.36,0.56891,0.55816,0.26863,0.4098,0.5902
19.368,0.59531,0.54839,0.28431,0.4,0.57451
19.376,0.6217,0.53763,0.27843,0.39412,0.58039
19.384,0.64614,0.52688,0.3,0.3902,0.57451
19.392,0.67058,0.51613,0.3,0.38431,0.57451
19.4,0.69404,0.50538,0.3098,0.37059,0.56471
19.408,0.71652,0.49365,0.31373,0.36471,0.56471
19.416,0.74096,0.48192,0.3451,0.3549,0.5451
19.424,0.7654,0.47214,0.34902,0.35882,0.5451
19.432,0.79081,0.46139,0.37451,0.34902,0.52549
19.44,0.81623,0.45161,0.3902,0.35882,0.51961
19.448,0.83969,0.44379,0.4098,0.36471,0.50588
19.456,0.86217,0.43793,0.41961,0.38039,0.5
19.464,0.88368,0.43304,0.43529,0.39412,0.50588
19.472,0.9042,0.43011,0.4451,0.4098,0.4902
19.48,0.92278,0.42717,0.42941,0.42549,0.49412
19.488,0.94233,0.42522,0.4451,0.43922,0.48431
19.496,0.95894,0.4262,0.44902,0.46078,0.48039
19.504,0.97654,0.42717,0.46078,0.46078,0.48039
19.512,0.98827,0.42717,0.4549,0.48039,0.47451
19.52,1,0.42717,0.46078,0.48039,0.47059
19.528,1,0.42522,0.43922,0.4902,0.48039
19.536,1,0.42326,0.43529,0.48431,0.48431
19.544,1,0.42131,0.41569,0.48039,0.5
19.552,1,0.42033,0.4098,0.47059,0.50588
19.56,1,0.41935,0.4,0.46471,0.5098
19.568,1,0.41838,0.4,0.46078,0.50588
19.576,1,0.41642,0.42549,0.46078,0.5
19.584,1,0.41447,0.44902,0.4549,0.48431
19.592,1,0.41251,0.46078,0.46078,0.49412
19.6,1,0.40958,0.47059,0.41569,0.48431
19.608,1,0.40567,0.5098,0.3902,0.47059
19.616,1,0.40176,0.53922,0.35882,0.44902
19.624,1,0.39883,0.49412,0.34902,0.47059
19.632,1,0.39589,0.4451,0.3549,0.4902
19.64,1,0.39296,0.4,0.36471,0.51961
19.648,1,0.39003,0.39412,0.38431,0.51569
19.656,1,0.3871,0.4,0.39412,0.52941
19.664,1,0.38416,0.3451,0.4,0.55098
19.672,1,0.38025,0.31961,0.39412,0.56471
19.68,1,0.37732,0.30392,0.39412,0.57451
19.688,1,0.37537,0.3098,0.4,0.56471
19.696,1,0.37732,0.23333,0.4549,0.60588
19.704,1,0.38514,0.14902,0.55098,0.6451
19.712,1,0.3998,0.23922,0.61569,0.57451
19.72,1,0.41935,0.71569,0.27451,0.3
19.728,1,0.44477,1.1471,-0.21176,0.084314
19.736,1,0.4741,1.3275,-0.50196,0.033333
19.744,1,0.50342,0.99608,-0.35294,0.2902
19.752,1,0.53079,0.77059,-0.056863,0.38039
19.76,1,0.5523,0.4902,0.20392,0.50588
19.768,1,0.56891,0.3098,0.34902,0.58431
19.776,1,0.58358,0.22353,0.4098,0.62549
19.784,1,0.59531,0.20392,0.42549,0.62941
19.792,1,0.60411,0.18824,0.43529,0.6451
19.8,1,0.60997,0.2,0.43922,0.62941
19.808,1,0.61193,0.18824,0.43529,0.64118
19.816,1,0.61095,0.2098,0.43529,0.62549
19.824,1,0.60899,0.20392,0.43922,0.62549
19.832,1,0.60411,0.21961,0.43529,0.61569
19.84,1,0.59824,0.21961,0.43529,0.62549
19.848,1,0.5914,0.22941,0.43529,0.6098
19.856,1,0.58553,0.23333,0.42941,0.61569
19.864,1,0.57967,0.23333,0.41569,0.60588
19.872,1,0.57283,0.2451,0.4098,0.6098
19.88,1,0.565,0.2549,0.40392,0.6
19.888,1,0.55621,0.25882,0.39412,0.6
19.896,1,0.54545,0.26863,0.3902,0.5902
19.904,1,0.53372,0.27451,0.38039,0.58431
19.912,1,0.52297,0.27843,0.37059,0.59608
19.92,1,0.51222,0.29412,0.36471,0.57451
19.928,1,0.50244,0.30392,0.34902,0.56471
19.936,1,0.49267,0.32941,0.33922,0.5549
19.944,1,0.48289,0.33922,0.33922,0.55098
19.952,1,0.47312,0.36471,0.33529,0.53529
19.96,1,0.4653,0.37451,0.33922,0.52549
19.968,1,0.45943,0.4,0.3451,0.51569
19.976,1,0.45259,0.40392,0.35882,0.50588
19.984,1,0.4477,0.41961,0.37059,0.5
19.992,1,0.44282,0.41961,0.3902,0.50588
20,1,0.43988,0.42941,0.40392,0.49412
20.008,1,0.43695,0.42549,0.41961,0.49412
20.016,1,0.43597,0.43922,0.42941,0.48039
20.024,1,0.43597,0.43529,0.4451,0.48431
20.032,1,0.43695,0.43922,0.4549,0.48039
20.04,1,0.43695,0.42549,0.46471,0.48431
20.048,1,0.43695,0.41961,0.47451,0.48431
20.056,1,0.43695,0.4098,0.47059,0.5
20.064,1,0.43695,0.4,0.46471,0.50588
20.072,1,0.43597,0.3902,0.46078,0.51961
20.08,1,0.43597,0.38431,0.4549,0.52549
20.088,1,0.435,0.39412,0.44902,0.51569
20.096,1,0.43304,0.43529,0.4451,0.4902
20.104,1,0.43109,0.4451,0.4549,0.48431
20.112,1,0.42913,0.4549,0.46078,0.4902
20.12,1,0.4262,0.46471,0.40392,0.48039
20.128,1,0.42424,0.50588,0.37059,0.46471
20.136,1,0.42229,0.51961,0.33922,0.4549
20.144,1,0.41935,0.48039,0.32941,0.47451
20.152,0.98436,0.4174,0.42549,0.32941,0.5
20.16,0.96872,0.41544,0.3902,0.34902,0.52941
20.168,0.95015,0.41251,0.3902,0.36471,0.52941
20.176,0.93157,0.40958,0.35882,0.38039,0.55098
20.184,0.91496,0.40567,0.32941,0.37451,0.56471
20.192,0.89932,0.40371,0.30392,0.38431,0.57451
20.2,0.88563,0.40371,0.30392,0.37451,0.57451
20.208,0.87195,0.40762,0.2902,0.38431,0.5902
20.216,0.85924,0.41544,0.22941,0.4451,0.61569
20.224,0.84751,0.42815,0.14314,0.53529,0.6549
20.232,0.83773,0.44477,0.2549,0.59608,0.56078
20.24,0.82698,0.4653,0.7098,0.2451,0.3
20.248,0.81818,0.48974,1.1216,-0.26667,0.094118
20.256,0.80938,0.51124,1.2667,-0.50196,0.062745
20.264,0.80156,0.53079,0.94118,-0.35294,0.31961
20.272,0.79374,0.55327,0.72157,-0.056863,0.4098
20.28,0.7869,0.5738,0.47059,0.20392,0.51569
20.288,0.78104,0.59238,0.2902,0.34902,0.59608
20.296,0.77517,0.60704,0.22353,0.4098,0.62549
20.304,0.76931,0.61877,0.20392,0.43529,0.62941
20.312,0.76442,0.62757,0.2,0.43529,0.63529
20.32,0.75953,0.63245,0.2098,0.43529,0.62549
20.328,0.75562,0.63441,0.19412,0.43529,0.63529
20.336,0.75171,0.63343,0.2098,0.43529,0.62549
20.344,0.74878,0.6305,0.20392,0.43529,0.62941
20.352,0.74585,0.62561,0.21373,0.43529,0.61961
20.36,0.74291,0.61975,0.2098,0.43529,0.62941
20.368,0.73998,0.61095,0.22353,0.42549,0.61569
20.376,0.73705,0.60215,0.22941,0.42941,0.62549
20.384,0.73412,0.59433,0.23922,0.4098,0.60588
20.392,0.73118,0.58553,0.23333,0.4098,0.61569
20.4,0.72825,0.57674,0.2549,0.39412,0.6
20.408,0.72532,0.56696,0.24902,0.3902,0.60588
20.416,0.72239,0.55523,0.25882,0.38431,0.6
20.424,0.71945,0.5435,0.2549,0.38039,0.6
20.432,0.71554,0.53177,0.27843,0.36471,0.58431
20.44,0.71065,0.52004,0.28431,0.36471,0.5902
20.448,0.70577,0.50831,0.30392,0.3451,0.57059
20.456,0.69892,0.49951,0.31373,0.33922,0.57451
20.464,0.69306,0.49071,0.33529,0.32941,0.55098
20.472,0.68426,0.48192,0.34902,0.32941,0.5451
20.48,0.67546,0.47312,0.37451,0.33922,0.52549
20.488,0.66569,0.46334,0.3902,0.33922,0.51961
20.496,0.65591,0.45552,0.4,0.3549,0.50588
20.504,0.64516,0.44868,0.4098,0.36471,0.5
20.512,0.63539,0.44379,0.41569,0.38431,0.50588
20.52,0.62463,0.43988,0.41961,0.40392,0.4902
20.528,0.61388,0.43793,0.41961,0.42941,0.49412
20.536,0.60117,0.43695,0.42941,0.43922,0.48431
20.544,0.58749,0.43695,0.41961,0.4549,0.4902
20.552,0.57283,0.43597,0.42941,0.47059,0.48039
20.56,0.55718,0.43695,0.41569,0.48039,0.4902
20.568,0.54252,0.43695,0.40392,0.48431,0.5
20.576,0.52884,0.43597,0.38431,0.48431,0.51569
20.584,0.51417,0.435,0.38039,0.48039,0.51961
20.592,0.50049,0.43304,0.37059,0.47059,0.52941
20.6,0.48583,0.43109,0.37451,0.46078,0.52549
20.608,0.47019,0.42913,0.39412,0.46078,0.52941
20.616,0.45259,0.42815,0.41961,0.4549,0.50588
20.624,0.43597,0.42717,0.41961,0.46078,0.50588
20.632,0.41838,0.42522,0.43529,0.42941,0.5
20.64,0.3998,0.42326,0.4549,0.39412,0.50588
20.648,0.38221,0.42131,0.4902,0.36471,0.47059
20.656,0.36461,0.42033,0.47451,0.3451,0.48039
20.664,0.348,0.41838,0.42549,0.33922,0.5
20.672,0.33236,0.41642,0.38039,0.3451,0.52941
20.68,0.31867,0.41447,0.36471,0.36471,0.53529
20.688,0.30499,0.41056,0.37451,0.37451,0.52941
20.696,0.29326,0.40665,0.33529,0.38431,0.5549
20.704,0.28055,0.40371,0.3098,0.38039,0.57451
20.712,0.26882,0.40078,0.2902,0.38431,0.58431
20.72,0.25806,0.39883,0.29412,0.38431,0.58039
20.728,0.24829,0.40078,0.25882,0.4,0.6
20.736,0.23949,0.40762,0.17451,0.4902,0.64118
20.744,0.23167,0.41838,0.13333,0.58039,0.6549
20.752,0.22483,0.43011,0.4,0.61961,0.47451
20.76,0.21896,0.44477,0.86667,0.029412,0.2098
20.768,0.2131,0.4653,1.2667,-0.46275,0.058824
20.776,0.20821,0.48876,1.1314,-0.50196,0.20392
20.784,0.20332,0.51417,0.8451,-0.26667,0.35882
20.792,0.19941,0.53861,0.5902,0.058824,0.46471
20.8,0.19648,0.56012,0.37451,0.26863,0.56471
20.808,0.19453,0.57674,0.23922,0.38039,0.62549
20.816,0.19159,0.58944,0.20392,0.41569,0.63529
20.824,0.19062,0.59824,0.18824,0.42941,0.6451
20.832,0.18964,0.60313,0.2,0.43529,0.63529
20.84,0.18964,0.60606,0.18431,0.43922,0.6451
20.848,0.19062,0.60606,0.2,0.43529,0.63529
20.856,0.19159,0.60508,0.2,0.42941,0.63529
20.864,0.19257,0.60215,0.2098,0.43529,0.62941
20.872,0.1955,0.59726,0.21373,0.43529,0.62549
20.88,0.19746,0.59238,0.22353,0.42941,0.61569
20.888,0.20039,0.58553,0.22941,0.42549,0.62549
20.896,0.20332,0.57674,0.23333,0.42941,0.6098
20.904,0.20723,0.56696,0.23922,0.41569,0.61569
20.912,0.21017,0.55523,0.23333,0.40392,0.6
20.92,0.21408,0.5435,0.2549,0.39412,0.6
20.928,0.21701,0.53177,0.2549,0.3902,0.60588
20.936,0.21994,0.52102,0.26471,0.38431,0.59608
20.944,0.22287,0.51026,0.25882,0.38039,0.6
20.952,0.22581,0.50147,0.27843,0.37059,0.5902
20.96,0.22776,0.49365,0.28431,0.36471,0.59608
20.968,0.22972,0.48485,0.30392,0.34902,0.57451
20.976,0.23167,0.47507,0.31961,0.3451,0.56471
20.984,0.23363,0.46628,0.34902,0.33922,0.5549
20.992,0.2346,0.4565,0.35882,0.3451,0.5451
21,0.23558,0.4477,0.38431,0.3549,0.52941
21.008,0.23656,0.44184,0.3902,0.36471,0.51961
21.016,0.23656,0.43793,0.41569,0.37451,0.50588
21.024,0.23558,0.435,0.41569,0.3902,0.50588
21.032,0.23363,0.43206,0.42549,0.4,0.4902
21.04,0.23167,0.42913,0.41961,0.41961,0.50588
21.048,0.22874,0.42717,0.43922,0.43529,0.48431
21.056,0.22678,0.42522,0.43529,0.4549,0.4902
21.064,0.22287,0.42326,0.4451,0.46471,0.48039
21.072,0.21994,0.42131,0.42549,0.48039,0.4902
21.08,0.21505,0.42033,0.42549,0.48431,0.4902
21.088,0.21017,0.42131,0.4098,0.48431,0.50588
21.096,0.2043,0.42229,0.4,0.48039,0.5
21.104,0.19844,0.42326,0.3902,0.47451,0.5098
21.112,0.19159,0.42229,0.3902,0.46471,0.51569
21.12,0.18475,0.42131,0.4,0.46078,0.50588
21.128,0.17791,0.41935,0.42941,0.46078,0.5
21.136,0.17107,0.4174,0.43922,0.46471,0.49412
21.144,0.1652,0.41447,0.4451,0.4549,0.50588
21.152,0.15934,0.41251,0.46078,0.40392,0.4902
21.16,0.15445,0.41153,0.49412,0.38431,0.47451
21.168,0.14858,0.40958,0.5098,0.3549,0.46471
21.176,0.14467,0.40762,0.46471,0.33922,0.4902
21.184,0.13978,0.40567,0.41569,0.33922,0.5098
21.192,0.13587,0.40274,0.37451,0.3549,0.53529
21.2,0.13196,0.40078,0.38039,0.37451,0.53922
21.208,0.12903,0.39883,0.3549,0.3902,0.56078
21.216,0.12512,0.39687,0.32941,0.38431,0.57059
21.224,0.12317,0.39394,0.3,0.38431,0.59608
21.232,0.12121,0.39296,0.30392,0.38431,0.58431
21.24,0.12023,0.39198,0.28431,0.3902,0.6
21.248,0.11926,0.39492,0.23333,0.4451,0.61961
21.256,0.12023,0.39883,0.14902,0.53922,0.6549
21.264,0.12023,0.40665,0.24902,0.61569,0.57059
21.272,0.12219,0.41935,0.68627,0.2549,0.31373
21.28,0.12414,0.43597,1.1216,-0.27647,0.098039
21.288,0.12708,0.45748,1.2824,-0.50196,0.058824
21.296,0.13001,0.48192,0.97647,-0.42353,0.3098
21.304,0.13392,0.50635,0.73137,-0.076471,0.4098
21.312,0.13783,0.52981,0.46471,0.2098,0.51569
21.32,0.14174,0.55034,0.29412,0.3549,0.59608
21.328,0.14663,0.56598,0.22353,0.41961,0.62941
21.336,0.15249,0.57869,0.2,0.43529,0.64118
21.344,0.15836,0.58651,0.19412,0.43529,0.6451
21.352,0.16422,0.59042,0.2098,0.43922,0.63529
21.36,0.17107,0.5914,0.20392,0.43529,0.64118
21.368,0.17791,0.5914,0.21373,0.43529,0.62549
21.376,0.18475,0.58944,0.2098,0.43529,0.63529
21.384,0.19062,0.58651,0.22353,0.42941,0.62549
21.392,0.19746,0.58358,0.21961,0.43529,0.62549
21.4,0.20332,0.57967,0.23333,0.42941,0.61569
21.408,0.21017,0.57576,0.23333,0.42941,0.62549
21.416,0.21603,0.56989,0.24902,0.41569,0.6098
21.424,0.22287,0.56305,0.2451,0.4098,0.61569
21.432,0.22874,0.55523,0.25882,0.4,0.6
21.44,0.23558,0.54448,0.2549,0.39412,0.60588
21.448,0.24145,0.53372,0.26863,0.3902,0.59608
21.456,0.24731,0.52297,0.26863,0.3902,0.6
21.464,0.25122,0.51222,0.28431,0.38039,0.58039
21.472,0.25611,0.50147,0.28431,0.37451,0.5902
21.48,0.25904,0.49169,0.30392,0.36471,0.57451
21.488,0.26295,0.48192,0.31961,0.3549,0.57059
21.496,0.26491,0.47312,0.3451,0.34902,0.55098
21.504,0.26784,0.46432,0.3549,0.3549,0.5451
21.512,0.26979,0.4565,0.37451,0.35882,0.52941
21.52,0.27175,0.44966,0.38431,0.36471,0.52941
21.528,0.27273,0.44379,0.4,0.38039,0.51569
21.536,0.2737,0.43891,0.4098,0.3902,0.5098
21.544,0.2737,0.435,0.41569,0.4098,0.51569
21.552,0.2737,0.43206,0.41961,0.42549,0.50588
21.56,0.27175,0.43011,0.41961,0.43922,0.5098
21.568,0.26979,0.42815,0.42941,0.4549,0.4902
21.576,0.26686,0.4262,0.41961,0.46471,0.5
21.584,0.26393,0.42522,0.43529,0.48039,0.48431
21.592,0.25904,0.42424,0.41961,0.48431,0.49412
21.6,0.25415,0.42229,0.41569,0.4902,0.5
21.608,0.24731,0.42131,0.4,0.48431,0.51569
21.616,0.24145,0.42033,0.39412,0.48039,0.5098
21.624,0.2346,0.41935,0.37451,0.47059,0.52941
21.632,0.22776,0.41838,0.38039,0.46078,0.52549
21.64,0.2219,0.4174,0.4098,0.46471,0.51569
21.648,0.21505,0.4174,0.42941,0.46471,0.5
21.656,0.20821,0.4174,0.42941,0.46078,0.5098
21.664,0.20039,0.41838,0.4451,0.41961,0.49412
21.672,0.19257,0.4174,0.47451,0.38431,0.48431
21.68,0.18475,0.41642,0.50588,0.35882,0.47059
21.688,0.17889,0.41544,0.47059,0.3451,0.49412
21.696,0.17204,0.41447,0.41961,0.33922,0.50588
21.704,0.16716,0.41251,0.38039,0.34902,0.53529
21.712,0.16227,0.40958,0.37451,0.37059,0.53922
21.72,0.15738,0.40762,0.38039,0.38431,0.53529
21.728,0.15249,0.40371,0.32941,0.3902,0.56471
21.736,0.14761,0.3998,0.3098,0.3902,0.57451
