Time [s], RESP, PLETH, II, V, AVR, CVP
0,0,0.62366,1.4688,0.058824,-0.20508,18.119
0.008,0,0.62757,1.5,-0.26275,-0.35938,18.806
0.016,0,0.6305,1.3945,-0.45294,-0.074219,19.314
0.024,0,0.63148,0.70898,0.0078431,0.32422,19.619
0.032,0,0.63245,0.15039,0.4098,0.65039,19.619
0.04,0,0.63245,0.0058594,0.59608,0.75391,19.314
0.048,0,0.63245,-0.0097656,0.64118,0.7793,18.806
0.056,0,0.6305,0.044922,0.68039,0.72461,18.119
0.064,0,0.62854,0,0.68627,0.76562,17.51
0.072,0,0.62463,0.03125,0.6902,0.76953,17.078
0.08,0,0.62072,0.050781,0.68039,0.75,16.747
0.088,0,0.61584,0,0.68627,0.76562,16.696
0.096,0,0.60899,0.025391,0.69608,0.75391,16.874
0.104,0,0.60313,0.019531,0.68039,0.75,17.255
0.112,0,0.59629,0.041016,0.69608,0.75391,17.687
0.12,0,0.59042,0.054688,0.67059,0.73438,18.196
0.128,0,0.58358,0.035156,0.6902,0.74414,18.577
0.136,0,0.57674,0.070312,0.7,0.71484,18.806
0.144,0,0.57087,0.044922,0.69608,0.73438,19.136
0.152,0,0.565,0.070312,0.6902,0.73047,19.39
0.16,0,0.55914,0.035156,0.71569,0.75391,19.695
0.168,0,0.55425,0.064453,0.70588,0.70898,20
0.176,0,0.55034,0.089844,0.73529,0.68945,20.305
0.184,0,0.54643,0.050781,0.7451,0.75,20.635
0.192,0,0.5435,0.060547,0.74118,0.73438,20.813
0.2,0,0.54154,0.080078,0.7451,0.71484,20.813
0.208,0,0.53959,0.089844,0.74118,0.70508,20.686
0.216,0,0.53861,0.064453,0.76078,0.73438,20.432
0.224,0,0.53763,0.041016,0.76667,0.74023,20.254
0.232,0,0.53666,0.035156,0.76078,0.73438,20
0.24,0,0.53666,0.064453,0.77059,0.7207,19.746
0.248,0,0.53763,0.0058594,0.76667,0.75,19.568
0.256,0,0.53861,0.0097656,0.7549,0.75977,19.39
0.264,0,0.53959,-0.0097656,0.72549,0.76953,19.314
0.272,0,0.53959,0.0097656,0.72157,0.74414,19.314
0.28,0,0.54057,0.015625,0.6902,0.75,19.441
0.288,0,0.54057,0.044922,0.68039,0.73047,19.568
0.296,0,0.53959,0.054688,0.65098,0.74414,19.746
0.304,0,0.53861,0.125,0.60588,0.66992,20
0.312,0,0.53666,0.099609,0.58039,0.69531,20.178
0.32,0,0.5347,0.16016,0.56078,0.6543,20.305
0.328,0,0.53177,0.16016,0.56471,0.65039,20.508
0.336,0,0.52884,0.18555,0.55098,0.6543,20.635
0.344,0,0.52688,0.21094,0.5451,0.62891,20.813
0.352,0,0.52493,0.27539,0.53529,0.58984,20.889
0.36,0,0.52395,0.2207,0.52941,0.62891,20.94
0.368,0,0.52199,0.21094,0.5451,0.6543,20.813
0.376,0,0.52199,0.21484,0.52941,0.62891,20.635
0.384,0,0.52102,0.24023,0.52549,0.61523,20.254
0.392,0,0.52199,0.24023,0.53922,0.61523,19.949
0.4,0,0.52297,0.21484,0.52941,0.64453,19.619
0.408,0,0.52297,0.26562,0.56078,0.61523,19.39
0.416,0,0.52297,0.19531,0.55098,0.64062,19.263
0.424,0,0.52297,0.20508,0.56471,0.65039,19.136
0.432,0,0.52297,0.16602,0.5549,0.65039,19.187
0.44,0,0.52297,0.21094,0.5451,0.62891,19.314
0.448,0,0.52297,0.20117,0.56471,0.64062,19.619
0.456,0,0.52297,0.24023,0.5451,0.59961,20.076
0.464,0,0.52395,0.18945,0.5549,0.66016,20.559
0.472,0,0.52395,0.2207,0.5451,0.63477,20.991
0.48,0,0.5259,0.20117,0.57059,0.6543,21.245
0.488,0,0.52786,0.24609,0.53922,0.60547,21.194
0.496,0,0.53079,0.2207,0.55098,0.62891,20.991
0.504,0,0.53666,0.24023,0.56078,0.61914,20.813
0.512,0,0.54154,0.23047,0.55098,0.64062,20.508
0.52,0,0.54839,0.30469,0.5549,0.58008,20.254
0.528,0,0.55914,0.24609,0.5451,0.61523,20
0.536,0,0.57185,0.29492,0.5549,0.56445,20
0.544,0,0.58651,0.31445,0.55098,0.56055,20.178
0.552,0,0.60313,0.25586,0.56471,0.60547,20.508
0.56,0,0.62072,0.25586,0.55098,0.59961,20.889
0.568,0,0.6393,0.26953,0.52941,0.58398,20.991
0.576,0,0.65689,0.27539,0.51961,0.58984,20.94
0.584,0,0.67449,0.26953,0.5451,0.5957,20.635
0.592,0,0.6911,0.30078,0.5549,0.57422,20.254
0.6,0,0.70577,0.33594,0.5451,0.56055,19.873
0.608,0,0.72043,0.33984,0.53529,0.57422,19.568
0.616,0,0.73021,0.2793,0.5098,0.56445,19.39
0.624,0,0.73803,0.23047,0.5451,0.625,19.39
0.632,0,0.74585,0.20508,0.53922,0.64062,19.568
0.64,0,0.75367,0.2207,0.56078,0.61523,19.949
0.648,0,0.76051,0.21094,0.5549,0.62891,20.432
0.656,0,0.7654,0.23047,0.56471,0.625,20.889
0.664,0,0.77028,0.22461,0.57451,0.6543,21.321
0.672,0,0.77322,0.23047,0.55098,0.62891,21.576
0.68,0,0.77517,0.22461,0.56078,0.61523,21.626
0.688,0,0.77517,0.23438,0.5451,0.60938,21.499
0.696,0,0.77419,0.23438,0.56078,0.61523,21.245
0.704,0,0.77126,0.2207,0.57451,0.63477,21.118
0.712,0,0.76735,0.34961,0.58431,0.53516,20.991
0.72,0,0.76246,0.64062,0.40392,0.34961,20.94
0.728,0,0.75855,0.96484,0.21961,0.13086,20.889
0.736,0,0.75367,1.3301,0.1549,-0.11914,20.813
0.744,0,0.74878,1.5,-0.082353,-0.35938,20.635
0.752,0,0.74291,1.5,-0.44706,-0.36328,20.254
0.76,0,0.73705,0.95898,-0.096078,0.19531,19.492
0.768,0,0.73118,0.29492,0.35882,0.57422,18.45
0.776,0,0.7263,0.085938,0.5902,0.68945,17.179
0.784,0,0.72043,0.0058594,0.67647,0.76953,15.68
0.792,0,0.71554,0,0.71569,0.79883,14.003
0.8,0,0.71065,0.025391,0.70588,0.75,12.198
0.808,0,0.70577,0.044922,0.71569,0.73438,10.318
0.816,0,0.70088,0.025391,0.72157,0.76953,8.4371
0.824,0,0.69795,0.035156,0.72549,0.75,6.6328
0.832,0,0.69501,0.050781,0.71569,0.74414,5.0572
0.84,0,0.69208,0.060547,0.71569,0.76953,3.8119
0.848,0,0.68915,0.025391,0.73529,0.7793,2.8717
0.856,0,0.68622,0.080078,0.73529,0.73047,2.2618
0.864,0,0.66471,0.054688,0.70588,0.73438,2.1347
0.872,0,0.63539,0.064453,0.71569,0.73438,2.5159
0.88,0,0.61975,0.044922,0.74118,0.75977,3.2529
0.888,0.0058651,0.60997,0.085938,0.74118,0.73438,4.371
0.896,0.01173,0.60411,0.060547,0.73529,0.74414,5.8704
0.904,0.025415,0.6002,0.064453,0.74118,0.74023,7.3189
0.912,0.038123,0.59629,0.054688,0.7549,0.73047,8.31
0.92,0.051808,0.59335,0.11133,0.7451,0.69922,8.4371
0.928,0.065494,0.58944,0.060547,0.74118,0.75,7.6239
0.936,0.079179,0.58651,0.054688,0.77647,0.73047,6.0737
0.944,0.092864,0.58358,0.064453,0.7902,0.73438,4.1169
0.952,0.10948,0.58065,0.085938,0.78627,0.73438,2.2618
0.96,0.1261,0.57674,0.054688,0.78039,0.73047,0.55909
0.968,0.14467,0.57283,0.03125,0.79608,0.73438,-0.73698
0.976,0.16325,0.56891,0.060547,0.79608,0.73047,-1.6264
0.984,0.18084,0.56403,0.035156,0.78627,0.75391,-1.9822
0.992,0.19941,0.55914,0.0058594,0.78627,0.77539,-1.8806
1,0.21701,0.55425,-0.013672,0.77647,0.7793,-1.4231
1.008,0.2346,0.54936,0.019531,0.7549,0.75,-0.73698
1.016,0.25318,0.54448,-0.0039062,0.73137,0.75977,-0.050826
1.024,0.27175,0.53959,-0.025391,0.72157,0.77539,0.50826
1.032,0.29228,0.53568,0.025391,0.72549,0.78516,0.94028
1.04,0.31183,0.53275,0.099609,0.66471,0.68945,1.1182
1.048,0.32942,0.52981,0.095703,0.63529,0.70508,1.0165
1.056,0.34702,0.52688,0.13086,0.61961,0.68555,0.55909
1.064,0.36266,0.5259,0.17578,0.59608,0.66016,-0.12706
1.072,0.3783,0.52395,0.20508,0.58039,0.63477,-0.81321
1.08,0.39003,0.52297,0.18555,0.57451,0.66016,-1.2452
1.088,0.40274,0.52199,0.21484,0.58039,0.64062,-1.2961
1.096,0.41153,0.52004,0.24609,0.56471,0.625,-0.94028
1.104,0.42033,0.51808,0.25,0.57059,0.62891,-0.30496
1.112,0.42522,0.51417,0.21094,0.58039,0.66016,0.38119
1.12,0.43011,0.50929,0.24609,0.58431,0.61914,0.88945
1.128,0.43304,0.50244,0.25586,0.57059,0.60938,1.2452
1.136,0.435,0.49462,0.22461,0.57451,0.64453,1.3723
1.144,0.43597,0.48387,0.16992,0.57451,0.66992,1.4485
1.152,0.43695,0.47214,0.22461,0.56078,0.62891,1.3723
1.16,0.43695,0.46041,0.21484,0.56471,0.64062,1.3215
1.168,0.43695,0.44673,0.20117,0.57451,0.64453,1.3215
1.176,0.43597,0.43402,0.16602,0.5902,0.67578,1.3723
1.184,0.43597,0.42131,0.21094,0.6,0.67969,1.5756
1.192,0.435,0.40958,0.23047,0.57451,0.63477,2.0076
1.2,0.43402,0.39785,0.20117,0.57451,0.64062,2.5159
1.208,0.435,0.38807,0.19531,0.59608,0.64453,2.9987
1.216,0.435,0.38025,0.23047,0.57451,0.625,3.1258
1.224,0.43793,0.37537,0.23438,0.58431,0.625,2.7446
1.232,0.43988,0.37048,0.2207,0.58431,0.64062,1.9314
1.24,0.44282,0.36755,0.25977,0.6,0.60938,0.88945
1.248,0.44673,0.36657,0.2793,0.59608,0.5957,-0.050826
1.256,0.45064,0.36852,0.27539,0.58431,0.59961,-0.60991
1.264,0.45552,0.37439,0.25,0.60588,0.61523,-0.68615
1.272,0.46334,0.38221,0.29102,0.5902,0.58398,-0.30496
1.28,0.47214,0.39492,0.30469,0.56471,0.58008,0.30496
1.288,0.48289,0.41447,0.29102,0.55098,0.58984,1.0673
1.296,0.49462,0.43304,0.27539,0.57059,0.58984,1.7027
1.304,0.50538,0.44673,0.32031,0.56078,0.56055,2.1855
1.312,0.51711,0.46041,0.33594,0.55098,0.55078,2.3888
1.32,0.52884,0.47312,0.28516,0.56078,0.58398,2.3888
1.328,0.54154,0.48778,0.25586,0.56471,0.61523,2.1855
1.336,0.55718,0.50244,0.25586,0.5549,0.61523,1.9314
1.344,0.57283,0.51613,0.21484,0.57451,0.64453,1.8806
1.352,0.5914,0.52884,0.20508,0.57059,0.63477,1.9314
1.36,0.60997,0.53959,0.23047,0.58039,0.64062,2.1855
1.368,0.63148,0.54839,0.22461,0.57451,0.625,2.6938
1.376,0.65396,0.55621,0.25,0.5902,0.61914,3.2529
1.384,0.67742,0.56207,0.23047,0.58039,0.63477,3.8882
1.392,0.70088,0.56598,0.24023,0.58431,0.62891,4.4473
1.4,0.72239,0.56794,0.23047,0.57451,0.64062,4.9301
1.408,0.74487,0.56989,0.25,0.59608,0.61914,5.3875
1.416,0.7654,0.56989,0.23438,0.5902,0.62891,5.6417
1.424,0.7869,0.56989,0.46484,0.49412,0.48438,5.7433
1.432,0.80938,0.56794,0.79883,0.27843,0.26562,5.6417
1.44,0.83187,0.56696,1.2285,0.12941,-0.013672,5.3875
1.448,0.85533,0.565,1.5,-0.072549,-0.34375,5.0572
1.456,0.87879,0.56109,1.5,-0.42353,-0.4043,4.7522
1.464,0.90029,0.55621,1.0801,-0.45686,0.14062,4.4473
1.472,0.9218,0.54936,0.44531,0.22941,0.50977,4.0661
1.48,0.94135,0.54154,0.070312,0.55098,0.72461,3.5578
1.488,0.96188,0.53177,0.035156,0.68039,0.74414,2.9987
1.496,0.98143,0.52102,0.0058594,0.72157,0.76953,2.5159
1.504,1,0.50929,0.041016,0.71569,0.75391,2.3126
1.512,1,0.49756,0.03125,0.72157,0.74414,2.4396
1.52,1,0.4868,0.054688,0.73137,0.75,2.8208
1.528,1,0.4741,0.041016,0.72157,0.75391,3.3799
1.536,1,0.46237,0.064453,0.72157,0.73047,4.0152
1.544,1,0.45064,0.041016,0.72549,0.75391,4.4473
1.552,1,0.43988,0.070312,0.71569,0.73047,4.6252
1.56,1,0.43011,0.089844,0.71569,0.72461,4.4473
1.568,1,0.42131,0.070312,0.71569,0.73047,4.0661
1.576,1,0.41349,0.089844,0.71569,0.7207,3.6341
1.584,1,0.40665,0.060547,0.72549,0.73438,3.2529
1.592,1,0.3998,0.095703,0.71569,0.70898,3.1258
1.6,1,0.39296,0.11133,0.72549,0.70508,3.202
1.608,1,0.3871,0.089844,0.73529,0.72461,3.507
1.616,1,0.38319,0.095703,0.7451,0.70898,3.8882
1.624,1,0.3783,0.11133,0.75098,0.69922,4.1169
1.632,1,0.37243,0.10547,0.75098,0.70508,4.1169
1.64,1,0.36559,0.125,0.76078,0.68945,3.7611
1.648,1,0.35875,0.10547,0.76667,0.70898,2.7446
1.656,1,0.35191,0.13477,0.77647,0.68555,1.3215
1.664,1,0.34409,0.125,0.77059,0.68945,-0.25413
1.672,1,0.33627,0.099609,0.78627,0.70508,-1.5502
1.68,1,0.32747,0.085938,0.78627,0.71484,-1.9822
1.688,1,0.31867,0.085938,0.78627,0.70898,-1.9822
1.696,1,0.30987,0.064453,0.77059,0.72461,-1.9822
1.704,1,0.29912,0.076172,0.76667,0.71484,-1.6773
1.712,1,0.28935,0.0097656,0.76078,0.75391,-1.0673
1.72,1,0.28055,0.050781,0.73529,0.72461,-0.38119
1.728,1,0.26979,0.054688,0.7098,0.73047,0.25413
1.736,1,0.25806,0.041016,0.6902,0.73438,0.76239
1.744,1,0.24536,0.064453,0.67059,0.71484,1.1182
1.752,1,0.23363,0.099609,0.6451,0.72461,1.2452
1.76,1,0.22092,0.12109,0.61569,0.69531,1.1944
1.768,1,0.21017,0.11523,0.6,0.69922,1.0165
1.776,1,0.20039,0.16602,0.58431,0.66406,0.81321
1.784,1,0.19257,0.19531,0.56471,0.64062,0.63532
1.792,1,0.18768,0.18555,0.57059,0.65039,0.50826
1.8,1,0.18475,0.17969,0.57059,0.6543,0.55909
1.808,1,0.18475,0.21094,0.56078,0.64062,0.68615
1.816,1,0.18671,0.18555,0.5549,0.6543,0.94028
1.824,1,0.18964,0.20508,0.56078,0.64453,1.2452
1.832,1,0.19257,0.18945,0.56078,0.6543,1.6264
1.84,1,0.19648,0.20508,0.57059,0.64062,1.9314
1.848,1,0.20039,0.19531,0.56471,0.65039,2.2618
1.856,1,0.20332,0.21094,0.57451,0.64062,2.5159
1.864,1,0.20528,0.19531,0.57451,0.65039,2.6175
1.872,1,0.20723,0.22461,0.57451,0.62891,2.8208
1.88,1,0.20919,0.18945,0.57059,0.66016,3.075
1.888,1,0.21017,0.25,0.58431,0.60938,3.3799
1.896,1,0.21017,0.2207,0.57451,0.63477,3.6849
1.904,1,0.21017,0.21094,0.56471,0.64453,4.0152
1.912,1,0.21017,0.22461,0.57059,0.63477,4.371
1.92,1,0.21017,0.25977,0.57451,0.60547,4.7014
1.928,1,0.20919,0.26562,0.57059,0.61523,4.7522
1.936,1,0.20723,0.25977,0.57451,0.60547,4.6252
1.944,1,0.20626,0.27539,0.57451,0.59961,4.3202
1.952,1,0.20626,0.28516,0.5549,0.58984,4.0661
1.96,1,0.20821,0.29102,0.52549,0.58984,3.8882
1.968,1,0.21017,0.27539,0.53529,0.5957,3.6849
1.976,1,0.21603,0.29492,0.53922,0.58008,3.3799
1.984,1,0.22385,0.31445,0.52941,0.56055,2.8717
1.992,1,0.2346,0.33594,0.52549,0.55469,2.3888
2,1,0.24731,0.29102,0.51961,0.58398,2.0076
2.008,1,0.26197,0.25586,0.52549,0.60938,2.0584
2.016,1,0.27761,0.25586,0.53529,0.61523,2.5159
2.024,1,0.29521,0.25,0.5451,0.61914,3.1258
2.032,1,0.31476,0.23438,0.53529,0.62891,3.8882
2.04,1,0.33333,0.25586,0.5451,0.61523,4.6252
2.048,1,0.35288,0.24023,0.53922,0.61914,5.3113
2.056,1,0.37146,0.25977,0.55098,0.59961,5.9466
2.064,1,0.38807,0.25,0.53529,0.60938,6.4295
2.072,1,0.40371,0.27539,0.55098,0.58398,6.7598
2.08,1,0.41642,0.24609,0.53922,0.61523,6.8869
2.088,1,0.42815,0.27539,0.5549,0.58984,6.8869
2.096,1,0.43793,0.33008,0.52941,0.56445,6.7598
2.104,1,0.44575,0.56055,0.36471,0.41016,6.5565
2.112,1,0.45161,0.93555,0.12353,0.16602,6.4295
2.12,1,0.45552,1.3535,0.023529,-0.10938,6.5057
2.128,1,0.45943,1.5,-0.18627,-0.36914,6.7598
2.136,1,0.46237,1.5,-0.48824,-0.21875,7.141
2.144,1,0.46334,0.92383,-0.15098,0.21094,7.3698
2.152,1,0.46334,0.30469,0.33529,0.57031,7.4968
2.16,1,0.46041,0.076172,0.56471,0.70508,7.2427
2.168,1,0.4565,0.041016,0.66078,0.73047,6.8107
2.176,1,0.45161,0.054688,0.69608,0.73047,6.3787
2.184,1,0.44477,0.050781,0.70588,0.7207,6.0737
2.192,1,0.43695,0.089844,0.7098,0.70898,5.9466
2.2,1,0.42913,0.076172,0.7,0.72461,5.9975
2.208,1,0.42229,0.089844,0.70588,0.70898,6.1245
2.216,1,0.41642,0.070312,0.6902,0.72461,6.3787
2.224,1,0.40958,0.089844,0.71569,0.70508,6.6836
2.232,1,0.40274,0.089844,0.7098,0.69922,7.014
2.24,1,0.39589,0.089844,0.7,0.70898,7.2427
2.248,1,0.39003,0.085938,0.6902,0.71484,7.4968
2.256,1,0.38416,0.11523,0.7,0.68555,7.7001
2.264,1,0.38025,0.089844,0.6902,0.70898,7.878
2.272,1,0.37537,0.099609,0.71569,0.69922,8.0559
2.28,1,0.37146,0.089844,0.71569,0.70508,8.1321
2.288,1,0.36755,0.12109,0.71569,0.68945,8.0559
2.296,1,0.36461,0.11133,0.72549,0.68945,8.0559
2.304,1,0.36266,0.13086,0.73137,0.67969,8.0559
2.312,1,0.3607,0.12109,0.73529,0.68555,8.183
2.32,1,0.35875,0.125,0.74118,0.67969,8.183
2.328,1,0.35875,0.099609,0.7549,0.69531,8.1321
2.336,1,0.35679,0.125,0.7549,0.67578,7.878
2.344,1,0.35582,0.095703,0.76078,0.69922,7.4968
2.352,1,0.35288,0.085938,0.76667,0.70508,7.1919
2.36,1,0.35093,0.095703,0.76078,0.69922,7.014
2.368,1,0.348,0.076172,0.7451,0.70508,7.014
2.376,0.98631,0.34506,0.099609,0.75098,0.67578,7.1919
2.384,0.97263,0.34213,0.041016,0.74118,0.72461,7.4968
2.392,0.9521,0.33822,0.044922,0.71569,0.7207,7.878
2.4,0.93157,0.33529,0.041016,0.6902,0.72461,8.2592
2.408,0.90811,0.33236,0.054688,0.67647,0.70898,8.5642
2.416,0.88563,0.33138,0.070312,0.6451,0.69922,8.8183
2.424,0.86217,0.32845,0.12109,0.61961,0.66406,8.9962
2.432,0.83871,0.32649,0.11133,0.5902,0.67578,8.9962
2.44,0.81525,0.32454,0.16602,0.57059,0.64062,8.9454
2.448,0.79179,0.3216,0.15039,0.5451,0.66016,8.8691
2.456,0.76344,0.31965,0.21094,0.52941,0.625,8.8691
2.464,0.73509,0.31769,0.2207,0.52549,0.61523,8.9454
2.472,0.70283,0.31574,0.23047,0.51569,0.61914,9.1233
2.48,0.6696,0.31476,0.2207,0.52549,0.625,9.3774
2.488,0.63245,0.31378,0.24023,0.51961,0.61523,9.6315
2.496,0.59531,0.31378,0.26953,0.51569,0.58398,9.8094
2.504,0.55621,0.31281,0.23438,0.52549,0.61523,9.9365
2.512,0.51711,0.31281,0.2207,0.51569,0.625,10.064
2.52,0.47996,0.31281,0.21484,0.52549,0.62891,10.14
2.528,0.44282,0.31281,0.23438,0.52549,0.60938,10.191
2.536,0.40762,0.31183,0.24609,0.53529,0.5957,10.14
2.544,0.37243,0.31183,0.20508,0.52549,0.63477,10.064
2.552,0.33529,0.31085,0.23047,0.53922,0.60938,9.9365
2.56,0.29814,0.31183,0.24609,0.55098,0.61523,9.9365
2.568,0.26002,0.31183,0.23438,0.5451,0.5957,9.9365
2.576,0.2219,0.31183,0.26953,0.55098,0.58398,10.064
2.584,0.18768,0.31281,0.25586,0.55098,0.58984,10.241
2.592,0.15347,0.31378,0.27539,0.5549,0.58008,10.445
2.6,0.12317,0.31574,0.26562,0.55098,0.58984,10.75
2.608,0.092864,0.31769,0.31055,0.51961,0.55078,11.131
2.616,0.062561,0.31965,0.25977,0.5098,0.58984,11.512
2.624,0.032258,0.32258,0.27539,0.52941,0.57422,11.868
2.632,0.01564,0.32747,0.32031,0.51569,0.55078,12.198
2.64,0,0.33333,0.33594,0.51569,0.53906,12.452
2.648,0,0.34213,0.30078,0.52549,0.55469,12.554
2.656,0,0.35288,0.26953,0.51569,0.58008,12.554
2.664,0,0.36559,0.23047,0.52549,0.61914,12.452
2.672,0,0.38025,0.24023,0.52549,0.60938,12.376
2.68,0,0.39589,0.2207,0.52549,0.62891,12.376
2.688,0,0.41251,0.24609,0.53529,0.60547,12.376
2.696,0,0.42913,0.23047,0.52549,0.61523,12.376
2.704,0,0.44575,0.23438,0.52549,0.61914,12.503
2.712,0,0.45943,0.2207,0.51569,0.62891,12.681
2.72,0,0.47214,0.21484,0.53529,0.61523,12.935
2.728,0,0.48387,0.23047,0.53922,0.61914,13.316
2.736,0,0.49658,0.22461,0.5451,0.61523,13.748
2.744,0,0.50733,0.25977,0.55098,0.60547,14.13
2.752,0,0.51711,0.43555,0.4902,0.48047,14.562
2.76,0,0.5259,0.73047,0.27843,0.27539,15.07
2.768,0,0.53275,1.0586,0.14902,0.050781,15.68
2.776,0,0.53959,1.4785,0.062745,-0.21484,16.264
2.784,0,0.54448,1.5,-0.28235,-0.38477,16.747
2.792,0,0.54839,1.3691,-0.46275,-0.070312,17.001
2.8,0,0.5523,0.69531,0.029412,0.33008,17.001
2.808,0,0.55523,0.15039,0.43922,0.65039,16.696
2.816,0,0.55718,0.025391,0.5902,0.72461,16.137
2.824,0,0.55914,0.0097656,0.6549,0.74414,15.502
2.832,0,0.56012,0.0058594,0.67059,0.75391,14.765
2.84,0,0.56109,0.03125,0.68627,0.74414,14.053
2.848,0,0.56109,0.025391,0.68039,0.75,13.443
2.856,0,0.56012,0.054688,0.68627,0.72461,13.139
2.864,0,0.55914,0.025391,0.6902,0.75,13.062
2.872,0,0.55718,0.070312,0.68039,0.70898,13.189
2.88,0,0.55425,0.035156,0.68627,0.74414,13.494
2.888,0,0.5523,0.044922,0.67647,0.73438,13.875
2.896,0,0.55034,0.041016,0.6902,0.74023,14.257
2.904,0,0.54741,0.060547,0.6902,0.72461,14.562
2.912,0,0.56989,0.064453,0.6902,0.73047,14.816
2.92,0,0.60411,0.060547,0.6902,0.70898,14.994
2.928,0,0.61975,0.076172,0.7,0.73047,15.121
2.936,0,0.62659,0.064453,0.70588,0.69922,15.324
2.944,0,0.62952,0.10547,0.7098,0.68945,15.502
2.952,0,0.62854,0.060547,0.72549,0.73047,15.629
2.96,0,0.62659,0.080078,0.73529,0.70898,15.756
2.968,0,0.62268,0.064453,0.73137,0.73047,15.68
2.976,0,0.61877,0.076172,0.75098,0.7207,15.451
2.984,0,0.6129,0.064453,0.76078,0.72461,15.121
2.992,0,0.60802,0.085938,0.76078,0.70508,14.765
3,0,0.60215,0.076172,0.76667,0.71484,14.435
3.008,0,0.59726,0.080078,0.76078,0.70898,14.053
3.016,0,0.59238,0.025391,0.76667,0.74414,13.698
3.024,0,0.58749,0.035156,0.77059,0.73438,13.316
3.032,0,0.58358,0.0058594,0.75098,0.75391,13.011
3.04,0,0.57967,0.041016,0.74118,0.72461,12.808
3.048,0,0.57674,0.015625,0.7,0.74023,12.63
3.056,0,0.5738,0.025391,0.70588,0.73438,12.452
3.064,0,0.57185,0.044922,0.67647,0.71484,12.325
3.072,0,0.56891,0.10547,0.6451,0.67578,12.249
3.08,0,0.56696,0.15625,0.6,0.65039,12.249
3.088,0,0.56403,0.18945,0.57059,0.61914,12.376
3.096,0,0.56207,0.17969,0.53922,0.64062,12.503
3.104,0,0.55914,0.21484,0.53529,0.625,12.554
3.112,0,0.55523,0.20508,0.53922,0.64062,12.681
3.12,0,0.5523,0.21484,0.52549,0.61523,12.681
3.128,0,0.54936,0.18945,0.55098,0.64062,12.757
3.136,0,0.54545,0.18555,0.53529,0.65039,12.681
3.144,0,0.54154,0.21094,0.53922,0.62891,12.63
3.152,0,0.53861,0.20508,0.53529,0.64062,12.503
3.16,0,0.5347,0.2207,0.55098,0.61914,12.376
3.168,0,0.53275,0.19531,0.5451,0.64062,12.325
3.176,0,0.52981,0.20117,0.55098,0.64453,12.325
3.184,0,0.52786,0.18945,0.53529,0.65039,12.249
3.192,0,0.52493,0.21094,0.5549,0.63477,12.249
3.2,0,0.52297,0.2207,0.55098,0.61523,12.249
3.208,0,0.52102,0.16602,0.56078,0.66406,12.325
3.216,0,0.51906,0.15039,0.57059,0.66992,12.452
3.224,0,0.51711,0.24023,0.57451,0.61914,12.681
3.232,0,0.51515,0.35547,0.53529,0.5293,13.266
3.24,0,0.5132,0.65039,0.3451,0.33984,14.13
3.248,0,0.51222,0.99023,0.19412,0.099609,15.121
3.256,0,0.51124,1.375,0.11961,-0.16016,16.137
3.264,0,0.51222,1.5,-0.16667,-0.35938,16.874
3.272,0,0.5132,1.5,-0.44706,-0.16016,17.306
3.28,0,0.51613,0.83984,-0.041176,0.25977,17.255
3.288,0,0.52102,0.24023,0.38039,0.59961,16.569
3.296,0,0.52786,0.035156,0.57059,0.73047,15.502
3.304,0,0.53763,-0.0097656,0.65098,0.75977,14.257
3.312,0,0.54741,0.025391,0.67647,0.76562,13.189
3.32,0,0.55718,0.019531,0.68627,0.74023,12.376
3.328,0,0.56891,0.019531,0.68627,0.75391,11.995
3.336,0,0.58651,0.03125,0.67059,0.75391,11.944
3.344,0,0.60117,0.019531,0.68039,0.75391,12.122
3.352,0,0.6129,0.050781,0.68627,0.73047,12.452
3.36,0,0.62463,0.054688,0.68039,0.73438,12.884
3.368,0,0.63734,0.064453,0.67647,0.73047,13.266
3.376,0,0.64809,0.025391,0.68627,0.75,13.494
3.384,0,0.65787,0.070312,0.67647,0.70898,13.621
3.392,0,0.66667,0.076172,0.6902,0.73438,13.621
3.4,0,0.67449,0.050781,0.6902,0.72461,13.621
3.408,0,0.68035,0.080078,0.70588,0.7207,13.621
3.416,0,0.68426,0.050781,0.7098,0.73047,13.748
3.424,0,0.68719,0.070312,0.71569,0.72461,14.003
3.432,0,0.69013,0.095703,0.72549,0.73047,14.384
3.44,0,0.69208,0.060547,0.73137,0.69922,14.867
3.448,0,0.69306,0.050781,0.73529,0.73438,15.324
3.456,0,0.69404,0.064453,0.76078,0.72461,15.68
3.464,0,0.69306,0.041016,0.75098,0.74023,15.807
3.472,0,0.69208,0.054688,0.76667,0.73047,15.756
3.48,0,0.69013,0.035156,0.78039,0.73438,15.451
3.488,0,0.68817,0.054688,0.77059,0.72461,15.07
3.496,0,0.68524,0.019531,0.76667,0.75391,14.867
3.504,0,0.68035,0.03125,0.7549,0.74023,14.765
3.512,0,0.67546,0.041016,0.74118,0.73047,14.765
3.52,0,0.6696,0.035156,0.72157,0.72461,14.816
3.528,0,0.66276,0.060547,0.70588,0.73438,14.943
3.536,0,0.65591,0.13477,0.66078,0.66992,15.07
3.544,0,0.64712,0.13086,0.62549,0.68555,15.121
3.552,0,0.6393,0.15625,0.6,0.67578,15.248
3.56,0,0.6305,0.16602,0.56471,0.66016,15.248
3.568,0,0.6217,0.18555,0.57059,0.64062,15.248
3.576,0,0.61388,0.20508,0.53529,0.62891,15.248
3.584,0,0.60606,0.20508,0.52549,0.63477,15.248
3.592,0,0.59824,0.21484,0.5451,0.61914,15.324
3.6,0,0.59238,0.2207,0.52941,0.61523,15.451
3.608,0,0.58651,0.18945,0.52549,0.64062,15.578
3.616,0,0.58162,0.20117,0.52549,0.64453,15.756
3.624,0,0.57771,0.21094,0.53529,0.64062,15.883
3.632,0,0.5738,0.17969,0.53529,0.64453,15.934
3.64,0,0.56989,0.20117,0.55098,0.63477,16.01
3.648,0,0.56696,0.18555,0.52549,0.62891,15.934
3.656,0,0.56403,0.18945,0.53922,0.6543,15.934
3.664,0,0.56109,0.16992,0.55098,0.66406,15.807
3.672,0,0.55816,0.20508,0.53922,0.64062,15.756
3.68,0,0.55523,0.17578,0.55098,0.6543,15.756
3.688,0,0.5523,0.20508,0.56078,0.62891,16.01
3.696,0,0.54936,0.2207,0.55098,0.64062,16.315
3.704,0,0.54741,0.22461,0.53529,0.61914,16.62
3.712,0,0.54545,0.20508,0.53529,0.64062,16.823
3.72,0,0.5435,0.19531,0.5451,0.65039,16.823
3.728,0,0.54057,0.21094,0.53922,0.63477,16.747
3.736,0,0.53861,0.24023,0.55098,0.61523,16.696
3.744,0,0.53666,0.22461,0.52941,0.625,16.62
3.752,0,0.53568,0.25977,0.53922,0.58984,16.493
3.76,0,0.5347,0.22461,0.53922,0.625,16.366
3.768,0,0.53568,0.23438,0.53529,0.62891,16.264
3.776,0,0.53861,0.23047,0.53922,0.61914,16.188
3.784,0,0.54252,0.22461,0.52941,0.625,16.188
3.792,0,0.54839,0.24609,0.5451,0.61523,16.188
3.8,0,0.55621,0.22461,0.52941,0.625,16.137
3.808,0,0.56305,0.24609,0.55098,0.61523,16.01
3.816,0,0.56989,0.23047,0.53922,0.61914,15.883
3.824,0,0.57869,0.25,0.55098,0.61523,15.807
3.832,0,0.58847,0.25586,0.53922,0.60938,15.68
3.84,0,0.59922,0.25,0.5451,0.60938,15.578
3.848,0,0.60802,0.23438,0.5549,0.60547,15.451
3.856,0,0.61681,0.24609,0.55098,0.61914,15.375
3.864,0,0.62463,0.23438,0.56078,0.61523,15.375
3.872,0,0.63148,0.24023,0.5549,0.61914,15.502
3.88,0,0.63734,0.23047,0.5549,0.625,15.629
3.888,0,0.64223,0.24023,0.5549,0.61523,15.68
3.896,0,0.64614,0.22461,0.57451,0.625,15.629
3.904,0,0.64907,0.24609,0.57059,0.61523,15.502
3.912,0,0.65005,0.24023,0.57059,0.625,15.197
3.92,0,0.652,0.24609,0.57059,0.61523,14.689
3.928,0,0.65298,0.24023,0.57451,0.61523,14.003
3.936,0,0.65298,0.29102,0.5902,0.58008,13.139
3.944,0,0.652,0.29492,0.6,0.60938,12.122
3.952,0,0.65005,0.25977,0.58431,0.61523,11.131
3.96,0,0.64712,0.2793,0.6,0.59961,10.064
3.968,0,0.64321,0.27539,0.5902,0.60547,8.9454
3.976,0,0.63832,0.2793,0.58039,0.5957,7.8272
3.984,0,0.63245,0.27539,0.57451,0.59961,6.5565
3.992,0,0.62659,0.29492,0.57451,0.58984,5.4384
4,0,0.62072,0.27539,0.56471,0.60547,4.5743
4.008,0,0.61486,0.31055,0.56078,0.56445,4.0152
4.016,0,0.60997,0.30469,0.57451,0.56055,3.6849
4.024,0,0.60411,0.33984,0.5549,0.58008,3.6849
4.032,0,0.59922,0.25,0.55098,0.625,3.939
4.04,0,0.59433,0.23047,0.57451,0.63477,4.4473
4.048,0,0.58944,0.22461,0.58039,0.64062,5.2605
4.056,0.00097752,0.58553,0.23047,0.58039,0.63477,6.2516
4.064,0.001955,0.58162,0.20508,0.59608,0.65039,7.141
4.072,0.01564,0.57869,0.23438,0.6,0.64062,7.5731
4.08,0.029326,0.57576,0.2207,0.5902,0.64453,7.2427
4.088,0.044966,0.57283,0.23047,0.59608,0.64062,6.2516
4.096,0.060606,0.57185,0.18945,0.6,0.66016,4.9301
4.104,0.078201,0.56989,0.23438,0.58431,0.64062,3.6341
4.112,0.095797,0.56891,0.21484,0.59608,0.64453,2.6175
4.12,0.11241,0.56696,0.25,0.61569,0.61914,1.9314
4.128,0.13001,0.56598,0.39062,0.56471,0.5293,1.5756
4.136,0.14761,0.565,0.66992,0.3902,0.3457,1.6264
4.144,0.1652,0.56403,1.0254,0.2,0.099609,2.1855
4.152,0.18573,0.56305,1.4395,0.062745,-0.17383,3.3799
4.16,0.20626,0.56207,1.5,-0.23137,-0.39844,4.8793
4.168,0.22776,0.56109,1.5,-0.48235,-0.17383,6.2008
4.176,0.24927,0.55914,0.83984,-0.011765,0.26953,6.9377
4.184,0.26979,0.55718,0.16992,0.4549,0.66016,6.7598
4.192,0.28935,0.55425,0.0058594,0.64118,0.76953,5.8704
4.2,0.30792,0.55132,-0.039062,0.70588,0.79883,4.5743
4.208,0.32649,0.54936,-0.025391,0.74118,0.78906,3.202
4.216,0.34409,0.54741,0,0.7451,0.79883,1.9314
4.224,0.36168,0.54448,0.0097656,0.7451,0.7793,1.0673
4.232,0.37928,0.54154,-0.0039062,0.74118,0.78906,0.63532
4.24,0.39687,0.53763,-0.0039062,0.75098,0.78906,0.68615
4.248,0.41153,0.5347,0.019531,0.7549,0.77539,1.1182
4.256,0.4262,0.52981,0.050781,0.7451,0.75,1.8806
4.264,0.43793,0.52493,-0.019531,0.74118,0.79492,2.6938
4.272,0.44966,0.52004,0,0.76078,0.78906,3.3799
4.28,0.45943,0.51515,0.035156,0.74118,0.76562,3.7611
4.288,0.46823,0.50831,0.044922,0.74118,0.75391,3.8119
4.296,0.47507,0.50244,0.015625,0.7549,0.77539,3.6341
4.304,0.48192,0.49756,0.044922,0.76078,0.75391,3.3799
4.312,0.48485,0.49365,0.041016,0.7549,0.75977,3.202
4.32,0.48876,0.48876,0.041016,0.7451,0.75391,3.202
4.328,0.48974,0.48387,0.035156,0.77647,0.75977,3.2529
4.336,0.49071,0.47801,0.050781,0.78627,0.73438,3.3291
4.344,0.49169,0.47214,0.054688,0.77059,0.75,2.9479
4.352,0.49169,0.46725,0.035156,0.76667,0.75977,1.9314
4.36,0.49169,0.46041,0.041016,0.78627,0.75391,0.30496
4.368,0.49267,0.45455,0.064453,0.78627,0.73047,-1.5502
4.376,0.49267,0.45064,0.044922,0.7902,0.74414,-1.9822
4.384,0.49267,0.44673,0.0058594,0.79608,0.77539,-1.9822
4.392,0.49267,0.44282,0.025391,0.81176,0.75391,-1.9822
4.4,0.49267,0.43891,0.015625,0.78627,0.76562,-1.9822
4.408,0.49462,0.43597,0,0.79608,0.76562,-1.9822
4.416,0.49756,0.43304,-0.064453,0.78627,0.81055,-1.4994
4.424,0.50049,0.43011,-0.070312,0.77059,0.81445,-0.81321
4.432,0.5044,0.42717,-0.054688,0.75098,0.80469,-0.30496
4.44,0.50831,0.42326,-0.064453,0.73529,0.79883,0
4.448,0.51222,0.42033,-0.080078,0.72549,0.80469,0.076239
4.456,0.51613,0.41642,-0.0097656,0.6902,0.77539,0
4.464,0.52102,0.41349,0,0.6549,0.75977,-0.17789
4.472,0.52688,0.41153,0.044922,0.6451,0.73047,-0.38119
4.48,0.53275,0.40958,0.085938,0.62941,0.71484,-0.43202
4.488,0.53959,0.40762,0.16016,0.60588,0.67578,-0.38119
4.496,0.54643,0.40665,0.17578,0.58039,0.66406,-0.17789
4.504,0.5523,0.40665,0.18945,0.57451,0.64453,0.076239
4.512,0.55816,0.40665,0.18555,0.58431,0.6543,0.25413
4.52,0.56305,0.40665,0.25977,0.57451,0.60938,0.38119
4.528,0.56794,0.40665,0.24023,0.56078,0.625,0.50826
4.536,0.5738,0.40665,0.25,0.58039,0.61523,0.76239
4.544,0.57869,0.40665,0.23047,0.57451,0.63477,1.0673
4.552,0.58456,0.40665,0.24609,0.56471,0.625,1.3723
4.56,0.59042,0.40567,0.22461,0.57059,0.61914,1.6264
4.568,0.59531,0.40469,0.21484,0.6,0.64062,1.8297
4.576,0.6002,0.40371,0.23438,0.60588,0.62891,1.8806
4.584,0.60508,0.40274,0.22461,0.5902,0.64062,1.8806
4.592,0.61095,0.40176,0.21094,0.6,0.65039,1.8806
4.6,0.61584,0.40078,0.17969,0.59608,0.66016,1.8806
4.608,0.62072,0.40078,0.24023,0.59608,0.625,1.9314
4.616,0.62561,0.3998,0.25,0.6,0.60547,2.1855
4.624,0.6305,0.3998,0.2207,0.5902,0.63477,2.6175
4.632,0.63636,0.39883,0.20508,0.59608,0.64453,3.075
4.64,0.64223,0.39785,0.25586,0.5902,0.59961,3.202
4.648,0.65005,0.39883,0.25,0.5902,0.60547,2.9479
4.656,0.65689,0.40176,0.25977,0.6,0.60938,2.1855
4.664,0.66471,0.40665,0.28516,0.5902,0.59961,1.1944
4.672,0.67155,0.41447,0.31055,0.59608,0.57422,0.12706
4.68,0.67937,0.42522,0.2793,0.6,0.5957,-0.73698
4.688,0.68622,0.43891,0.30469,0.58431,0.57031,-1.2452
4.696,0.69599,0.45455,0.31055,0.56471,0.57422,-1.4231
4.704,0.70479,0.47019,0.30469,0.5549,0.57031,-1.2452
4.712,0.71652,0.48583,0.30078,0.56471,0.58398,-0.81321
4.72,0.72727,0.50342,0.32031,0.57451,0.56445,-0.25413
4.728,0.73998,0.52199,0.33984,0.55098,0.54492,0.25413
4.736,0.75367,0.54057,0.3457,0.55098,0.54492,0.76239
4.744,0.76833,0.55816,0.26953,0.55098,0.5957,1.1944
4.752,0.78299,0.57478,0.25586,0.55098,0.61523,1.4994
4.76,0.79765,0.58944,0.23047,0.56471,0.63477,1.8297
4.768,0.81134,0.60215,0.25,0.57059,0.61523,2.0584
4.776,0.82502,0.6129,0.23438,0.57451,0.625,2.3126
4.784,0.83969,0.6217,0.23047,0.57451,0.62891,2.6175
4.792,0.85435,0.62952,0.25,0.57451,0.61914,2.9479
4.8,0.86999,0.63441,0.23438,0.56078,0.64062,3.2529
4.808,0.88563,0.63832,0.25,0.57451,0.61523,3.6849
4.816,0.90225,0.64027,0.24023,0.58431,0.61523,4.0661
4.824,0.91691,0.64125,0.25586,0.58039,0.60938,4.4981
4.832,0.93157,0.64223,0.25,0.58431,0.61523,4.8793
4.84,0.94526,0.64223,0.44922,0.5451,0.46484,5.1334
4.848,0.95797,0.64223,0.7207,0.32941,0.30469,5.2605
4.856,0.97165,0.64027,1.1445,0.13922,0.035156,5.1842
4.864,0.98436,0.63734,1.5,-0.031373,-0.32422,4.9301
4.872,0.99218,0.63343,1.5,-0.38235,-0.43945,4.5743
4.88,1,0.62854,1.3145,-0.50196,-0.0039062,4.1931
4.888,1,0.6217,0.64062,0.078431,0.39062,3.6849
4.896,1,0.6129,0.099609,0.49412,0.69922,3.075
4.904,1,0.60508,0.03125,0.66078,0.74414,2.4396
4.912,1,0.59726,0.015625,0.7,0.75391,1.9314
4.92,1,0.58749,0.050781,0.7098,0.73047,1.6264
4.928,1,0.57674,0.060547,0.72157,0.72461,1.7535
4.936,1,0.56598,0.025391,0.70588,0.75391,2.1855
4.944,1,0.55523,0.041016,0.71569,0.75391,2.8717
4.952,1,0.54545,0.035156,0.70588,0.74023,3.5578
4.96,1,0.52102,0.064453,0.72157,0.73047,4.1931
4.968,1,0.49071,0.060547,0.71569,0.73438,4.4981
4.976,1,0.46921,0.076172,0.70588,0.73047,4.371
4.984,1,0.45357,0.064453,0.72157,0.72461,3.939
4.992,1,0.43988,0.070312,0.71569,0.73047,3.3799
5,1,0.42913,0.095703,0.72549,0.71484,2.8208
5.008,1,0.42131,0.085938,0.71569,0.73047,2.5667
5.016,1,0.41544,0.095703,0.72549,0.70508,2.6175
5.024,1,0.4086,0.11133,0.74118,0.68945,2.8717
5.032,1,0.40371,0.085938,0.73529,0.71484,3.202
5.04,1,0.39785,0.14453,0.73137,0.66406,3.507
5.048,1,0.39296,0.095703,0.74118,0.70898,3.6341
5.056,1,0.38905,0.10547,0.74118,0.69922,3.3291
5.064,1,0.38514,0.089844,0.75098,0.70898,2.4396
5.072,1,0.38123,0.12109,0.76078,0.68945,1.0673
5.08,1,0.37732,0.125,0.76667,0.69531,-0.48285
5.088,1,0.37341,0.099609,0.77059,0.68555,-1.8043
5.096,1,0.3695,0.085938,0.77059,0.70898,-1.9822
5.104,1,0.36657,0.11133,0.77059,0.68555,-1.9822
5.112,1,0.36364,0.064453,0.78039,0.70898,-1.9822
5.12,1,0.35875,0.050781,0.76078,0.72461,-1.9822
5.128,1,0.35386,0.041016,0.7549,0.73047,-1.4231
5.136,1,0.34897,0.054688,0.73529,0.7207,-0.86404
5.144,1,0.34409,0.025391,0.71569,0.73438,-0.38119
5.152,1,0.34018,0.054688,0.69608,0.7207,0.076239
5.16,1,0.33627,0.064453,0.67647,0.70898,0.30496
5.168,1,0.33236,0.10547,0.64118,0.68555,0.50826
5.176,1,0.32942,0.12109,0.6098,0.68555,0.55909
5.184,1,0.32649,0.15039,0.59608,0.67969,0.50826
5.192,1,0.32454,0.16016,0.58039,0.66016,0.38119
5.2,1,0.3216,0.18555,0.57059,0.64453,0.2033
5.208,1,0.31965,0.20508,0.56471,0.64062,0.12706
5.216,1,0.31867,0.18555,0.53922,0.64453,0.2033
5.224,1,0.31672,0.19531,0.5549,0.65039,0.30496
5.232,1,0.31476,0.18945,0.55098,0.63477,0.50826
5.24,1,0.31281,0.2207,0.5451,0.61914,0.81321
5.248,1,0.30987,0.18945,0.5549,0.65039,1.1182
5.256,1,0.30792,0.20508,0.56471,0.64062,1.4485
5.264,1,0.30596,0.18555,0.55098,0.62891,1.7535
5.272,1,0.30303,0.17969,0.57059,0.65039,2.0076
5.28,1,0.30108,0.2207,0.57451,0.61523,2.2618
5.288,1,0.29814,0.18945,0.5549,0.64453,2.4396
5.296,1,0.29521,0.20117,0.57059,0.63477,2.6175
5.304,1,0.29423,0.2207,0.57451,0.625,2.8717
5.312,1,0.29423,0.21484,0.58039,0.63477,3.2529
5.32,1,0.29326,0.25586,0.57451,0.61523,3.7611
5.328,1,0.29228,0.25,0.58039,0.60547,4.1931
5.336,1,0.2913,0.24609,0.56078,0.58984,4.3202
5.344,1,0.28935,0.27539,0.55098,0.58398,4.1169
5.352,1,0.28837,0.25586,0.5451,0.60547,3.7611
5.36,1,0.28739,0.2793,0.53922,0.58398,3.4307
5.368,1,0.28739,0.29492,0.53922,0.56445,3.202
5.376,1,0.28935,0.30078,0.53529,0.56445,3.1258
5.384,1,0.29619,0.29102,0.53529,0.58398,2.9987
5.392,1,0.30499,0.24609,0.53529,0.60938,2.7446
5.4,1,0.31281,0.25977,0.5549,0.5957,2.2618
5.408,1,0.3216,0.22461,0.56078,0.625,1.7535
5.416,1,0.33333,0.20117,0.55098,0.65039,1.4485
5.424,1,0.34897,0.22461,0.55098,0.63477,1.4485
5.432,1,0.36559,0.21484,0.57059,0.64453,1.7535
5.44,1,0.38416,0.24023,0.5549,0.61914,2.3126
5.448,1,0.40469,0.22461,0.56078,0.61523,2.9987
5.456,1,0.42522,0.25,0.5549,0.61523,3.8119
5.464,1,0.44379,0.23438,0.55098,0.61914,4.7014
5.472,1,0.46237,0.24609,0.5549,0.61523,5.5146
5.48,1,0.47996,0.28516,0.56078,0.58984,6.0737
5.488,1,0.4956,0.45508,0.47059,0.4707,6.3278
5.496,1,0.50929,0.80469,0.23333,0.24023,6.2516
5.504,1,0.52004,1.2051,0.062745,-0.013672,6.1245
5.512,1,0.52884,1.5,-0.096078,-0.30859,5.8704
5.52,1,0.53763,1.5,-0.42745,-0.4043,5.5654
5.528,1,0.54448,1.1641,-0.49216,0.076172,5.1842
5.536,1,0.55034,0.55078,0.14314,0.41602,4.7014
5.544,1,0.55523,0.099609,0.49412,0.69531,4.244
5.552,1,0.55816,0.035156,0.62549,0.73438,4.0152
5.56,1,0.55914,0.019531,0.67059,0.74023,3.939
5.568,1,0.55816,0.044922,0.68627,0.73438,4.1169
5.576,1,0.55523,0.064453,0.70588,0.73047,4.4981
5.584,1,0.55132,0.064453,0.69608,0.7207,4.9301
5.592,1,0.54545,0.085938,0.6902,0.70898,5.3113
5.6,1,0.53861,0.070312,0.69608,0.7207,5.6417
5.608,1,0.53177,0.076172,0.7,0.70898,5.8196
5.616,1,0.52199,0.064453,0.69608,0.7207,5.8196
5.624,1,0.51222,0.095703,0.7,0.69531,5.5654
5.632,1,0.50049,0.076172,0.69608,0.70898,5.2605
5.64,1,0.48876,0.11523,0.70588,0.68555,5.0064
5.648,1,0.47703,0.095703,0.6902,0.67578,4.9301
5.656,1,0.46628,0.099609,0.68627,0.69531,5.1334
5.664,1,0.45552,0.11133,0.70588,0.69531,5.3113
5.672,1,0.44673,0.12109,0.71569,0.68555,5.4384
5.68,1,0.43793,0.11133,0.7098,0.67969,5.5146
5.688,1,0.42913,0.12109,0.73137,0.68555,5.6417
5.696,1,0.42229,0.12109,0.72549,0.67969,5.7433
5.704,1,0.41642,0.13477,0.74118,0.6543,5.8704
5.712,1,0.41153,0.12109,0.75098,0.66992,5.8196
5.72,1,0.40762,0.13086,0.76667,0.66406,5.5146
5.728,1,0.40274,0.11133,0.77059,0.68555,5.1334
5.736,1,0.39883,0.10547,0.75098,0.67969,4.7014
5.744,1,0.39589,0.12109,0.77059,0.67578,4.4473
5.752,1,0.39296,0.085938,0.77059,0.71484,4.4473
5.76,1,0.39101,0.050781,0.7549,0.72461,4.5743
5.768,1,0.39003,0.044922,0.73137,0.68945,4.8285
5.776,1,0.38807,0.064453,0.72549,0.70898,5.1842
5.784,1,0.3871,0.041016,0.71569,0.71484,5.5654
5.792,1,0.38612,0.060547,0.69608,0.70898,5.9975
5.8,1,0.38514,0.050781,0.6549,0.71484,6.2516
5.808,1,0.38514,0.10547,0.62549,0.67578,6.4295
5.816,1,0.38319,0.14062,0.6,0.6543,6.5565
5.824,1,0.38123,0.16992,0.58039,0.62891,6.6328
5.832,1,0.37928,0.16602,0.53922,0.64453,6.7598
5.84,1,0.37634,0.21484,0.53922,0.60938,6.8107
5.848,1,0.37341,0.18555,0.5451,0.64062,6.9377
5.856,1,0.3695,0.23438,0.52549,0.60938,7.0648
5.864,1,0.36461,0.2207,0.51569,0.61523,7.1919
5.872,1,0.35973,0.24023,0.51961,0.60547,7.3698
5.88,0.96872,0.35386,0.23047,0.52549,0.62891,7.446
5.888,0.93744,0.34897,0.25,0.51961,0.60938,7.446
5.896,0.90714,0.34409,0.24609,0.51569,0.60547,7.446
5.904,0.87683,0.34018,0.24023,0.52941,0.61523,7.446
5.912,0.8436,0.33627,0.21094,0.53922,0.62891,7.446
5.92,0.80938,0.33138,0.22461,0.51961,0.61914,7.3698
5.928,0.77419,0.32551,0.2207,0.52549,0.60938,7.3189
5.936,0.739,0.32063,0.23438,0.5451,0.61523,7.3189
5.944,0.70577,0.31574,0.24023,0.53922,0.60547,7.3189
5.952,0.67351,0.31183,0.26562,0.5451,0.60938,7.446
5.96,0.64321,0.30792,0.26953,0.53529,0.58008,7.5731
5.968,0.6129,0.30499,0.29492,0.5549,0.56445,7.751
5.976,0.58162,0.30303,0.31445,0.56471,0.53906,7.9543
5.984,0.54936,0.30205,0.27539,0.52941,0.58398,8.183
5.992,0.51711,0.30108,0.26562,0.50588,0.58984,8.5133
6,0.48387,0.30303,0.25586,0.50588,0.57422,8.9454
6.008,0.45161,0.30596,0.30469,0.51961,0.55469,9.4536
6.016,0.42033,0.31085,0.33984,0.51569,0.5293,9.8856
6.024,0.38905,0.31672,0.36523,0.52549,0.50977,10.241
6.032,0.35777,0.32747,0.2793,0.5,0.58008,10.445
6.04,0.33138,0.34018,0.24609,0.50588,0.60547,10.368
6.048,0.30401,0.35777,0.23047,0.52549,0.60938,10.14
6.056,0.28152,0.37732,0.25586,0.52549,0.59961,9.8856
6.064,0.25806,0.3998,0.23438,0.51961,0.61523,9.6823
6.072,0.23656,0.42424,0.25,0.52941,0.625,9.5553
6.08,0.21408,0.44868,0.23047,0.53529,0.61523,9.5044
6.088,0.19355,0.47312,0.24609,0.52941,0.60938,9.6315
6.096,0.17302,0.49756,0.22461,0.52549,0.62891,9.8094
6.104,0.15543,0.51711,0.24609,0.53529,0.60938,10.241
6.112,0.13783,0.5347,0.26953,0.53922,0.5957,10.75
6.12,0.12219,0.5523,0.2207,0.5451,0.625,11.309
6.128,0.10753,0.56891,0.35938,0.55098,0.55078,11.817
6.136,0.092864,0.58358,0.61523,0.34902,0.35938,12.325
6.144,0.079179,0.59726,0.94922,0.1549,0.14453,12.757
6.152,0.065494,0.60899,1.3438,0.088235,-0.125,13.139
6.16,0.050831,0.61877,1.5,-0.16275,-0.37891,13.443
6.168,0.038123,0.62659,1.5,-0.47843,-0.39453,13.621
6.176,0.025415,0.63343,0.92383,-0.12157,0.20508,13.621
6.184,0.013685,0.6393,0.2793,0.32941,0.58008,13.443
6.192,0.001955,0.64418,0.035156,0.5549,0.72461,13.062
6.2,0.00097752,0.64614,0,0.63529,0.75391,12.452
6.208,0,0.64712,0.035156,0.67647,0.73047,11.817
6.216,0,0.64809,0.0097656,0.68627,0.75,11.258
6.224,0,0.64712,0.025391,0.6902,0.75,10.826
6.232,0,0.64516,0.03125,0.68039,0.75391,10.496
6.24,0,0.64223,0.041016,0.6902,0.74023,10.445
6.248,0,0.63734,0.03125,0.6902,0.75391,10.572
6.256,0,0.6305,0.044922,0.6902,0.75,10.877
6.264,0,0.62268,0.041016,0.6902,0.75391,11.309
6.272,0,0.61388,0.070312,0.6902,0.7207,11.69
6.28,0,0.60411,0.060547,0.68627,0.73047,11.995
6.288,0,0.59335,0.089844,0.7,0.68945,12.249
6.296,0,0.58358,0.050781,0.68627,0.73438,12.452
6.304,0,0.57478,0.044922,0.69608,0.7207,12.554
6.312,0,0.56598,0.064453,0.72157,0.72461,12.63
6.32,0,0.55718,0.064453,0.72549,0.7207,12.757
6.328,0,0.54839,0.060547,0.70588,0.73047,12.884
6.336,0,0.54154,0.080078,0.71569,0.71484,13.062
6.344,0,0.5347,0.089844,0.73137,0.70898,13.189
6.352,0,0.52786,0.070312,0.74118,0.7207,13.189
6.36,0,0.52199,0.085938,0.7549,0.74023,13.062
6.368,0,0.51711,0.060547,0.7549,0.7207,12.884
6.376,0,0.5132,0.085938,0.76078,0.70898,12.681
6.384,0,0.50929,0.060547,0.7549,0.73047,12.554
6.392,0,0.50635,0.03125,0.77059,0.74414,12.325
6.4,0,0.5044,0.019531,0.76078,0.75,12.071
6.408,0,0.50147,0.050781,0.74118,0.71484,11.817
6.416,0,0.50049,0,0.73137,0.76562,11.69
6.424,0,0.49853,0.015625,0.72549,0.75391,11.639
6.432,0,0.49756,-0.0039062,0.69608,0.74414,11.69
6.44,0,0.49658,0.03125,0.67059,0.75,11.817
6.448,0,0.49658,0.060547,0.63529,0.72461,11.868
6.456,0,0.4956,0.10547,0.61569,0.68945,11.995
6.464,0,0.49462,0.13477,0.5902,0.67578,12.198
6.472,0,0.49462,0.18555,0.57451,0.63477,12.452
6.48,0,0.49365,0.20508,0.55098,0.61523,12.63
6.488,0,0.49365,0.19531,0.52941,0.64062,12.681
6.496,0,0.49365,0.21094,0.52549,0.625,12.63
6.504,0,0.49365,0.24023,0.52549,0.60938,12.554
6.512,0,0.49267,0.22461,0.52941,0.62891,12.503
6.52,0,0.49169,0.24609,0.52549,0.60938,12.376
6.528,0,0.48974,0.2207,0.52549,0.61914,12.249
6.536,0,0.48778,0.24023,0.52549,0.61523,12.071
6.544,0,0.48583,0.22461,0.52941,0.62891,11.868
6.552,0,0.48387,0.24609,0.53529,0.60938,11.69
6.56,0,0.48094,0.20508,0.5451,0.60547,11.563
6.568,0,0.47898,0.18945,0.53529,0.65039,11.436
6.576,0,0.47605,0.20508,0.52941,0.64062,11.436
6.584,0,0.4741,0.20508,0.5451,0.64062,11.436
6.592,0,0.47214,0.2207,0.5549,0.63477,11.563
6.6,0,0.47019,0.24023,0.53529,0.60938,11.817
6.608,0,0.46823,0.21094,0.51961,0.62891,12.071
6.616,0,0.46725,0.2207,0.53529,0.62891,12.325
6.624,0,0.4653,0.21094,0.55098,0.64062,12.554
6.632,0,0.46432,0.23047,0.53922,0.61914,12.681
6.64,0,0.46432,0.25,0.52941,0.60547,12.63
6.648,0,0.4653,0.22461,0.5451,0.61914,12.376
6.656,0,0.46725,0.27539,0.52941,0.58398,11.995
6.664,0,0.47214,0.24023,0.53529,0.61523,11.69
6.672,0,0.47996,0.26562,0.55098,0.5957,11.436
6.68,0,0.49071,0.29102,0.5549,0.58008,11.258
6.688,0,0.50538,0.25586,0.53529,0.61914,11.131
6.696,0,0.52297,0.27539,0.5549,0.60547,11.055
6.704,0,0.53861,0.26562,0.57451,0.59961,11.182
6.712,0,0.55425,0.29492,0.5549,0.57031,11.436
6.72,0,0.5738,0.29102,0.51961,0.57422,11.563
6.728,0,0.59335,0.31055,0.53529,0.55469,11.639
6.736,0,0.6129,0.33984,0.5451,0.5293,11.639
6.744,0,0.63148,0.23047,0.52549,0.63477,11.436
6.752,0,0.64809,0.37109,0.55098,0.50977,11.258
6.76,0,0.66276,0.40039,0.5549,0.48438,11.055
6.768,0,0.67546,0.23047,0.49412,0.64062,10.953
6.776,0,0.68622,0.23438,0.4902,0.65039,11.004
6.784,0,0.69501,0.18555,0.52941,0.66016,11.182
6.792,0,0.70186,0.19531,0.52549,0.66406,11.512
6.8,0,0.70674,0.20508,0.55098,0.66016,11.868
6.808,0,0.70968,0.21094,0.55098,0.64062,12.325
6.816,0,0.71261,0.24609,0.52941,0.61523,12.681
6.824,0,0.71554,0.2207,0.53922,0.64453,12.935
6.832,0,0.7175,0.20508,0.5549,0.66016,13.011
6.84,0,0.71945,0.21484,0.57059,0.6543,13.011
6.848,0,0.71945,0.20508,0.55098,0.62891,12.935
6.856,0,0.71848,0.23047,0.55098,0.61523,12.935
6.864,0,0.71554,0.2793,0.57059,0.58398,13.011
6.872,0,0.71163,0.52539,0.4549,0.42969,13.189
6.88,0,0.70577,0.82422,0.23922,0.23047,13.443
6.888,0,0.69795,1.1738,0.15882,-0.0097656,13.748
6.896,0,0.69013,1.5,-0.0019608,-0.30469,14.053
6.904,0,0.68133,1.5,-0.39216,-0.37891,14.307
6.912,0,0.67253,1.1387,-0.44706,0.076172,14.511
6.92,0,0.66276,0.46484,0.2,0.48047,14.511
6.928,0,0.652,0.064453,0.50588,0.7207,14.307
6.936,0,0.64125,0.015625,0.61569,0.75,14.003
6.944,0,0.6305,-0.0039062,0.68627,0.76953,13.621
6.952,0,0.61975,0.0097656,0.6902,0.75391,13.266
6.96,0,0.60997,0.015625,0.7,0.76953,12.935
6.968,0.0097752,0.60117,-0.0097656,0.70588,0.76562,12.757
6.976,0.020528,0.59238,0.0058594,0.7,0.76953,12.63
6.984,0.034213,0.58358,0.035156,0.6902,0.75,12.681
6.992,0.048876,0.57576,0.015625,0.69608,0.75977,12.808
7,0.063539,0.56989,0.054688,0.70588,0.73047,13.062
7.008,0.079179,0.56109,0.060547,0.7,0.75,13.367
7.016,0.094819,0.5523,0.035156,0.69608,0.76562,13.621
7.024,0.11046,0.54643,0.041016,0.70588,0.74023,13.952
7.032,0.13001,0.54154,0.03125,0.70588,0.74414,14.257
7.04,0.15054,0.53763,0.064453,0.7,0.72461,14.511
7.048,0.17302,0.53568,0.044922,0.69608,0.73047,14.765
7.056,0.19648,0.53372,0.085938,0.72157,0.70508,14.943
7.064,0.21799,0.53079,0.050781,0.73137,0.73047,15.121
7.072,0.24047,0.52884,0.076172,0.71569,0.7207,15.248
7.08,0.261,0.5259,0.041016,0.74118,0.74414,15.197
7.088,0.2825,0.52297,0.076172,0.7451,0.7207,15.07
7.096,0.30401,0.52004,0.050781,0.75098,0.73047,14.765
7.104,0.32454,0.51711,0.064453,0.76078,0.7207,14.435
7.112,0.34604,0.51417,0.044922,0.76667,0.72461,14.18
7.12,0.36657,0.51124,0.044922,0.76667,0.73047,13.952
7.128,0.38416,0.50831,0.03125,0.76078,0.73438,13.748
7.136,0.40176,0.50538,0.019531,0.76078,0.75391,13.571
7.144,0.41544,0.50244,-0.0039062,0.76078,0.75,13.443
7.152,0.43011,0.49951,-0.0097656,0.7451,0.75391,13.443
7.16,0.43988,0.49756,0,0.74118,0.74023,13.494
7.168,0.44966,0.49462,-0.019531,0.71569,0.76562,13.621
7.176,0.45455,0.49267,-0.0097656,0.6902,0.75391,13.748
7.184,0.46041,0.49071,0.019531,0.67059,0.73438,13.875
7.192,0.46041,0.48876,0.041016,0.64118,0.72461,14.003
7.2,0.45943,0.4868,0.080078,0.62941,0.69531,14.13
7.208,0.45357,0.4868,0.13086,0.6,0.67578,14.18
7.216,0.44868,0.48583,0.16602,0.57451,0.6543,14.18
7.224,0.43988,0.48485,0.17969,0.57059,0.64062,14.13
7.232,0.43109,0.48289,0.20508,0.56078,0.64453,14.003
7.24,0.41935,0.48192,0.24609,0.5549,0.60938,13.825
7.248,0.40762,0.47996,0.23047,0.55098,0.61523,13.571
7.256,0.39003,0.47898,0.24609,0.5549,0.60938,13.139
7.264,0.37243,0.47703,0.24023,0.55098,0.61523,12.63
7.272,0.348,0.47507,0.26953,0.55098,0.5957,12.071
7.28,0.32454,0.4741,0.23047,0.55098,0.625,11.436
7.288,0.29814,0.47312,0.25586,0.56078,0.60938,10.75
7.296,0.27077,0.47214,0.24023,0.5549,0.625,10.013
7.304,0.24145,0.47214,0.25586,0.56078,0.61523,9.1233
7.312,0.21212,0.47116,0.2207,0.57451,0.64062,8.183
7.32,0.18475,0.46921,0.25,0.56078,0.625,7.2427
7.328,0.15836,0.46823,0.23047,0.56471,0.61914,6.2516
7.336,0.13294,0.46725,0.22461,0.57451,0.64062,5.2605
7.344,0.1085,0.4653,0.22461,0.58431,0.63477,4.244
7.352,0.084066,0.46432,0.25,0.57451,0.61914,3.3799
7.36,0.059629,0.46334,0.22461,0.57451,0.64062,2.7446
7.368,0.035191,0.46237,0.2207,0.58039,0.63477,2.3888
7.376,0.01173,0.46334,0.25586,0.57451,0.625,2.2618
7.384,0.0058651,0.4653,0.25,0.56471,0.61523,2.2618
7.392,0,0.46823,0.25586,0.58039,0.61523,2.1855
7.4,0,0.4741,0.30078,0.59608,0.58008,2.1855
7.408,0,0.48094,0.29102,0.57451,0.5957,2.3888
7.416,0,0.49169,0.2793,0.57451,0.59961,2.7446
7.424,0,0.50538,0.26953,0.5902,0.60547,3.2529
7.432,0,0.52786,0.30078,0.57059,0.58398,3.507
7.44,0,0.54839,0.32031,0.5451,0.56445,3.3291
7.448,0,0.565,0.27539,0.55098,0.5957,2.6938
7.456,0,0.5826,0.30078,0.57059,0.58008,1.7027
7.464,0,0.60313,0.32422,0.55098,0.56445,0.55909
7.472,0,0.62268,0.33594,0.5549,0.55469,-0.43202
7.48,0,0.64125,0.26953,0.56078,0.5957,-1.0673
7.488,0,0.65787,0.28516,0.55098,0.59961,-1.2961
7.496,0,0.67155,0.24609,0.56078,0.625,-1.0673
7.504,0,0.68231,0.23047,0.57451,0.63477,-0.38119
7.512,0,0.69306,0.23047,0.58431,0.63477,0.55909
7.52,0,0.70186,0.25586,0.57451,0.61914,1.7027
7.528,0,0.71065,0.23047,0.58039,0.64062,2.9479
7.536,0,0.7175,0.23047,0.59608,0.62891,4.0152
7.544,0.012708,0.72239,0.24609,0.58039,0.625,4.8285
7.552,0.026393,0.72532,0.25977,0.58431,0.61523,5.0572
7.56,0.043011,0.72825,0.23438,0.5902,0.62891,4.8285
7.568,0.059629,0.72923,0.23047,0.60588,0.61523,4.244
7.576,0.076246,0.72923,0.37109,0.6098,0.53906,3.4307
7.584,0.093842,0.72727,0.59961,0.4098,0.38477,2.6938
7.592,0.11241,0.72434,0.98438,0.20392,0.13086,2.1855
7.6,0.13099,0.72043,1.4297,0.094118,-0.16406,2.0584
7.608,0.14761,0.71457,1.5,-0.18627,-0.41992,2.4396
7.616,0.1652,0.70772,1.5,-0.50196,-0.22461,3.1258
7.624,0.18084,0.69795,0.91016,-0.13137,0.24023,3.7611
7.632,0.19648,0.68719,0.23047,0.38431,0.625,4.1169
7.64,0.20919,0.67449,0.050781,0.61569,0.73438,4.0661
7.648,0.22287,0.6608,-0.0039062,0.7,0.76953,3.5578
7.656,0.23265,0.64516,-0.0039062,0.72549,0.76562,2.8208
7.664,0.2434,0.62952,0.025391,0.73529,0.76953,2.1347
7.672,0.2522,0.6129,0.054688,0.74118,0.75,1.5756
7.68,0.26197,0.59629,0.025391,0.73137,0.75391,1.2452
7.688,0.26979,0.57967,0.019531,0.73529,0.75977,1.2452
7.696,0.27761,0.565,0.044922,0.73137,0.75,1.4485
7.704,0.28446,0.55132,0.064453,0.73529,0.73438,1.8297
7.712,0.2913,0.53861,0.041016,0.74118,0.75,2.1347
7.72,0.29717,0.5259,0.035156,0.7451,0.75,2.5159
7.728,0.30303,0.5132,0.064453,0.74118,0.73047,2.7446
7.736,0.3089,0.50147,0.080078,0.74118,0.72461,2.9479
7.744,0.31574,0.48974,0.050781,0.73529,0.74023,2.9987
7.752,0.32356,0.47898,0.041016,0.76078,0.73438,2.9479
7.76,0.33138,0.46921,0.089844,0.74118,0.7207,2.9479
7.768,0.34115,0.46041,0.10547,0.73137,0.70898,2.8717
7.776,0.35093,0.45357,0.11133,0.7549,0.70508,2.9479
7.784,0.36364,0.4477,0.076172,0.77059,0.7207,3.075
7.792,0.37537,0.44184,0.11133,0.77647,0.70508,3.075
7.8,0.38807,0.43597,0.099609,0.77059,0.70898,2.7446
7.808,0.3998,0.43206,0.080078,0.78627,0.71484,1.8806
7.816,0.41251,0.42717,0.076172,0.7902,0.7207,0.43202
7.824,0.42522,0.42229,0.10547,0.79608,0.70508,-1.0673
7.832,0.44086,0.41838,0.085938,0.80588,0.70898,-1.9822
7.84,0.4565,0.41349,0.070312,0.8,0.7207,-1.9822
7.848,0.4741,0.4086,0.044922,0.81176,0.73438,-1.9822
7.856,0.49169,0.40469,0.089844,0.78627,0.70508,-1.9822
7.864,0.50929,0.40078,0.041016,0.77059,0.73047,-1.6264
7.872,0.5259,0.39687,0.019531,0.7549,0.74023,-1.0673
7.88,0.5435,0.39296,0.035156,0.7451,0.74414,-0.60991
7.888,0.56012,0.39003,0.095703,0.72549,0.68555,-0.25413
7.896,0.57771,0.3871,0.11133,0.68627,0.67578,0
7.904,0.59629,0.38416,0.11523,0.65098,0.67969,0.25413
7.912,0.61584,0.38123,0.13086,0.61961,0.68555,0.38119
7.92,0.63539,0.37732,0.16016,0.60588,0.66016,0.43202
7.928,0.65396,0.37439,0.14453,0.59608,0.67578,0.38119
7.936,0.67253,0.37146,0.16602,0.58431,0.66016,0.2033
7.944,0.69013,0.36852,0.16992,0.58039,0.66016,0.076239
7.952,0.7087,0.36559,0.21484,0.57451,0.63477,-0.12706
7.96,0.72336,0.36364,0.18945,0.56078,0.65039,-0.17789
7.968,0.73803,0.3607,0.17969,0.57451,0.6543,-0.17789
7.976,0.75073,0.35777,0.20508,0.58431,0.64453,0
7.984,0.76344,0.35484,0.2207,0.57059,0.64062,0.30496
7.992,0.77517,0.35288,0.20117,0.57059,0.64453,0.76239
8,0.7869,0.35093,0.17969,0.57451,0.66016,1.3215
8.008,0.79863,0.34995,0.20508,0.58039,0.64453,1.9314
8.016,0.81036,0.34897,0.18555,0.58039,0.6543,2.5159
8.024,0.82111,0.34702,0.18945,0.5902,0.65039,3.1258
8.032,0.83187,0.34409,0.19531,0.58431,0.64453,3.8119
8.04,0.84164,0.34213,0.21094,0.6,0.64062,4.7014
8.048,0.85142,0.34018,0.25977,0.60588,0.60938,5.6417
8.056,0.86217,0.33724,0.43555,0.51961,0.49414,6.6328
8.064,0.87292,0.33333,0.75391,0.28431,0.27539,7.2427
8.072,0.88563,0.32942,1.1152,0.1098,0.050781,7.2427
8.08,0.89736,0.32649,1.5,-0.015686,-0.20508,6.4295
8.088,0.91202,0.32356,1.5,-0.29804,-0.375,5.0064
8.096,0.92571,0.3216,1.375,-0.45294,-0.054688,3.2529
8.104,0.94135,0.3216,0.75391,0.043137,0.31445,1.5756
8.112,0.95699,0.3216,0.16992,0.47451,0.6543,0.076239
8.12,0.97165,0.32356,0.041016,0.6451,0.73438,-0.99111
8.128,0.98631,0.32747,0.015625,0.7098,0.75391,-1.6264
8.136,0.99316,0.33529,0.054688,0.71569,0.73047,-1.8043
8.144,1,0.34604,0.064453,0.72157,0.73438,-1.5502
8.152,1,0.35875,0.044922,0.72157,0.74023,-0.86404
8.16,1,0.37439,0.035156,0.72157,0.75391,-0.050826
8.168,1,0.39198,0.060547,0.72157,0.73047,0.76239
8.176,1,0.40958,0.070312,0.71569,0.72461,1.4485
8.184,1,0.42815,0.064453,0.70588,0.73047,1.8297
8.192,1,0.44575,0.080078,0.72157,0.7207,2.0584
8.2,1,0.46041,0.064453,0.73137,0.72461,2.1347
8.208,1,0.4741,0.089844,0.72157,0.70898,2.1347
8.216,1,0.48778,0.076172,0.71569,0.72461,2.1855
8.224,1,0.50049,0.095703,0.73529,0.70898,2.3126
8.232,1,0.5132,0.080078,0.73137,0.7207,2.5667
8.24,1,0.52395,0.089844,0.74118,0.71484,2.9987
8.248,1,0.53275,0.11133,0.7451,0.68945,3.3799
8.256,1,0.53959,0.11523,0.76078,0.68945,3.8119
8.264,1,0.54545,0.099609,0.77059,0.70508,4.244
8.272,1,0.54936,0.11133,0.78627,0.69531,4.7014
8.28,1,0.55132,0.099609,0.78627,0.70898,5.1334
8.288,1,0.5523,0.11133,0.8,0.69922,5.3113
8.296,1,0.5523,0.11523,0.8,0.69531,4.8793
8.304,1,0.55132,0.076172,0.81176,0.70898,3.5578
8.312,1,0.54839,0.070312,0.81569,0.7207,1.6264
8.32,1,0.54545,0.064453,0.81176,0.71484,-0.38119
8.328,1,0.54057,0.054688,0.79608,0.73047,-1.9822
8.336,1,0.53568,0.085938,0.77647,0.70898,-1.9822
8.344,1,0.52786,0.076172,0.76078,0.70508,-1.9822
8.352,1,0.51906,0.099609,0.73529,0.69531,-1.9822
8.36,1,0.50929,0.125,0.69608,0.67578,-1.2961
8.368,1,0.49853,0.15039,0.6549,0.66016,-0.30496
8.376,1,0.48778,0.16016,0.62549,0.66406,0.55909
8.384,1,0.47605,0.17969,0.6,0.6543,1.1944
8.392,1,0.46432,0.17969,0.58039,0.64453,1.7027
8.4,1,0.45455,0.20117,0.57059,0.62891,1.9314
8.408,1,0.44575,0.18555,0.56471,0.64453,2.0076
8.416,1,0.43597,0.18945,0.56078,0.64453,1.8806
8.424,1,0.4262,0.19531,0.56078,0.64062,1.4994
8.432,1,0.4174,0.17969,0.5549,0.65039,1.0673
8.44,1,0.40762,0.18945,0.55098,0.65039,0.68615
8.448,1,0.3998,0.17969,0.5549,0.6543,0.63532
8.456,1,0.39198,0.20508,0.56471,0.64062,0.81321
8.464,1,0.38612,0.17578,0.57059,0.6543,1.2452
8.472,1,0.38319,0.18945,0.5549,0.64453,1.8806
8.48,1,0.37928,0.19531,0.56078,0.65039,2.5667
8.488,1,0.37537,0.20508,0.56471,0.64062,3.202
8.496,1,0.37341,0.19531,0.57059,0.64453,3.6849
8.504,1,0.37146,0.20508,0.56078,0.64062,4.0152
8.512,1,0.3695,0.20508,0.57059,0.64453,4.244
8.52,1,0.36755,0.23047,0.55098,0.61914,4.371
8.528,1,0.36461,0.20508,0.56471,0.63477,4.3202
8.536,1,0.36168,0.2207,0.56078,0.625,4.1169
8.544,1,0.35875,0.21484,0.5549,0.62891,3.8119
8.552,1,0.35679,0.23438,0.55098,0.61523,3.5578
8.56,1,0.35386,0.2207,0.5549,0.625,3.3799
8.568,1,0.35191,0.24023,0.55098,0.61523,3.202
8.576,1,0.34897,0.22461,0.56078,0.625,2.9987
8.584,1,0.348,0.23438,0.5549,0.61914,2.7446
8.592,1,0.34702,0.23047,0.56078,0.62891,2.4396
8.6,1,0.34702,0.23438,0.5549,0.61523,2.2618
8.608,1,0.34897,0.23438,0.56078,0.61523,2.1855
8.616,1,0.35191,0.23047,0.5549,0.61914,2.3126
8.624,1,0.35582,0.23438,0.5549,0.60938,2.5667
8.632,1,0.36168,0.2207,0.5549,0.61914,2.8717
8.64,1,0.3695,0.24023,0.56078,0.61523,3.2529
8.648,1,0.37928,0.21484,0.5549,0.62891,3.6341
8.656,1,0.38905,0.24609,0.5549,0.60938,4.0661
8.664,1,0.40078,0.23438,0.56078,0.61914,4.4981
8.672,1,0.41349,0.25,0.55098,0.60938,4.7522
8.68,1,0.4262,0.25586,0.57059,0.60938,4.8793
8.688,1,0.43793,0.26562,0.57451,0.59961,4.8793
8.696,1,0.4477,0.26562,0.56471,0.59961,4.8285
8.704,1,0.45552,0.2793,0.57059,0.58984,4.7522
8.712,1,0.46334,0.26562,0.56078,0.59961,4.5743
8.72,1,0.47116,0.28516,0.5451,0.58398,4.3202
8.728,1,0.47703,0.26562,0.53529,0.58984,4.0661
8.736,1,0.48289,0.25977,0.53922,0.5957,3.939
8.744,1,0.4868,0.2793,0.53922,0.58398,3.939
8.752,1,0.49071,0.31445,0.53529,0.56055,4.1169
8.76,1,0.49267,0.32422,0.52941,0.55469,4.4473
8.768,1,0.49365,0.28516,0.52549,0.58398,4.8285
8.776,1,0.49169,0.24023,0.53529,0.61523,5.1842
8.784,1,0.48876,0.23047,0.52941,0.625,5.4384
8.792,1,0.48485,0.23438,0.55098,0.61914,5.6417
8.8,1,0.47898,0.23047,0.5451,0.62891,5.6925
8.808,1,0.47312,0.24023,0.5549,0.61523,5.6925
8.816,1,0.46628,0.23047,0.5549,0.61914,5.5654
8.824,1,0.4565,0.25,0.55098,0.61523,5.5146
8.832,1,0.44673,0.23047,0.55098,0.625,5.5146
8.84,1,0.43695,0.24609,0.5549,0.61523,5.6925
8.848,1,0.42815,0.23438,0.55098,0.60938,5.9975
8.856,1,0.41838,0.29102,0.56078,0.58008,6.3787
8.864,1,0.41056,0.42578,0.47451,0.49023,6.8869
8.872,1,0.40274,0.73438,0.2451,0.29102,7.3698
8.88,1,0.39589,1.0898,0.084314,0.054688,7.8272
8.888,1,0.39101,1.5,-0.041176,-0.24414,8.1321
8.896,1,0.3871,1.5,-0.34706,-0.39844,8.183
8.904,1,0.38416,1.3789,-0.48235,-0.074219,7.878
8.912,1,0.38123,0.6543,0.068627,0.35938,7.3189
8.92,1,0.37928,0.15039,0.46078,0.65039,6.6328
8.928,1,0.3783,0.044922,0.61569,0.7207,5.9466
8.936,1,0.37732,0.019531,0.68039,0.73438,5.4384
8.944,1,0.37537,0.035156,0.6902,0.73047,5.2605
8.952,1,0.37439,0.044922,0.7,0.74414,5.3875
8.96,1,0.37341,0.050781,0.71569,0.73047,5.6417
8.968,1,0.37146,0.03125,0.71569,0.74414,5.9975
8.976,1,0.3695,0.064453,0.71569,0.73047,6.5057
8.984,1,0.36755,0.041016,0.70588,0.73438,6.9377
8.992,1,0.36559,0.070312,0.70588,0.7207,7.3189
9,1,0.36461,0.044922,0.70588,0.73438,7.4968
9.008,1,0.36364,0.070312,0.7,0.7207,7.5731
9.016,1,0.36266,0.064453,0.69608,0.71484,7.5731
9.024,1,0.3607,0.085938,0.70588,0.70898,7.5731
9.032,1,0.35875,0.070312,0.7098,0.71484,7.6239
9.04,1,0.35777,0.089844,0.69608,0.70508,7.751
9.048,1,0.35679,0.070312,0.71569,0.70898,7.878
9.056,1,0.34995,0.095703,0.72157,0.69922,8.0051
9.064,1,0.34018,0.076172,0.73137,0.70898,8.1321
9.072,1,0.33529,0.095703,0.73529,0.69922,8.1321
9.08,1,0.33138,0.089844,0.74118,0.70508,8.0051
9.088,1,0.32845,0.10547,0.73137,0.68555,7.751
9.096,1,0.32649,0.080078,0.74118,0.70898,7.3698
9.104,1,0.32551,0.089844,0.7451,0.69922,7.0648
9.112,1,0.32258,0.076172,0.7451,0.70898,6.6836
9.12,1,0.31867,0.076172,0.75098,0.70508,6.5057
9.128,0.97947,0.31476,0.03125,0.7549,0.73438,6.4295
9.136,0.95992,0.31085,0.019531,0.75098,0.73047,6.5565
9.144,0.94037,0.30694,0,0.73529,0.74414,6.8869
9.152,0.92082,0.30303,-0.0039062,0.72157,0.75,7.1919
9.16,0.90225,0.3001,-0.019531,0.72549,0.75977,7.5731
9.168,0.88368,0.29814,-0.029297,0.69608,0.75391,7.878
9.176,0.86217,0.29619,-0.025391,0.67059,0.76562,8.1321
9.184,0.84066,0.29521,-0.0097656,0.6451,0.75,8.2592
9.192,0.81623,0.29423,0.025391,0.61961,0.73047,8.3863
9.2,0.79179,0.29423,0.054688,0.6,0.70898,8.4371
9.208,0.76246,0.29423,0.10547,0.59608,0.68555,8.4371
9.216,0.73314,0.29423,0.14453,0.56471,0.66016,8.5133
9.224,0.70088,0.29521,0.17969,0.53922,0.63477,8.5133
9.232,0.66862,0.29717,0.20117,0.53529,0.64062,8.4371
9.24,0.63734,0.29814,0.24023,0.52549,0.60547,8.5133
9.248,0.60704,0.3001,0.23047,0.52549,0.61523,8.5642
9.256,0.57771,0.30303,0.26562,0.51961,0.58984,8.6404
9.264,0.54741,0.30694,0.23438,0.52549,0.60547,8.6404
9.272,0.5132,0.31085,0.26953,0.51569,0.58984,8.6404
9.28,0.47898,0.31574,0.25,0.52941,0.59961,8.6912
9.288,0.44184,0.3216,0.25977,0.53529,0.58984,8.8183
9.296,0.40469,0.32747,0.24023,0.52549,0.61523,8.9454
9.304,0.37048,0.33236,0.25586,0.53529,0.5957,8.9962
9.312,0.33627,0.33724,0.23438,0.52941,0.61523,8.9962
9.32,0.30499,0.34115,0.24023,0.5451,0.60938,8.9962
9.328,0.2737,0.34506,0.21094,0.5549,0.63477,9.0724
9.336,0.24047,0.34897,0.25,0.55098,0.59961,9.1995
9.344,0.20821,0.35093,0.25977,0.55098,0.5957,9.3774
9.352,0.174,0.35288,0.24609,0.5451,0.60938,9.5553
9.36,0.14076,0.35484,0.24023,0.5549,0.61523,9.8094
9.368,0.10753,0.35582,0.27539,0.5451,0.58984,10.14
9.376,0.074291,0.35875,0.27539,0.55098,0.58008,10.445
9.384,0.042033,0.36266,0.26953,0.5549,0.58398,10.75
9.392,0.010753,0.3695,0.30078,0.55098,0.56445,10.953
9.4,0.0048876,0.37732,0.29102,0.5549,0.57031,10.877
9.408,0,0.39003,0.32422,0.55098,0.55469,10.623
9.416,0,0.40665,0.31055,0.51569,0.55469,10.368
9.424,0,0.42717,0.30078,0.5,0.56445,10.064
9.432,0,0.44966,0.29492,0.51961,0.56055,9.9365
9.44,0,0.4741,0.33984,0.52549,0.53516,9.8856
9.448,0,0.50049,0.33008,0.51569,0.53906,9.8856
9.456,0,0.5259,0.3457,0.5098,0.53516,9.9365
9.464,0,0.55132,0.26562,0.51569,0.58984,10.013
9.472,0,0.57478,0.2793,0.5098,0.58008,10.064
9.48,0,0.60313,0.21484,0.5451,0.61914,10.191
9.488,0,0.62854,0.24609,0.52549,0.59961,10.241
9.496,0,0.64223,0.23047,0.53922,0.61523,10.368
9.504,0,0.65494,0.25,0.53529,0.59961,10.445
9.512,0,0.66862,0.23047,0.55098,0.61523,10.572
9.52,0,0.68133,0.28516,0.53922,0.57422,10.75
9.528,0,0.69306,0.23438,0.55098,0.61523,11.055
9.536,0,0.70381,0.25977,0.5549,0.5957,11.512
9.544,0,0.71163,0.23438,0.55098,0.61914,12.071
9.552,0,0.7175,0.3457,0.5549,0.53906,12.63
9.56,0,0.72239,0.58008,0.3902,0.375,13.266
9.568,0,0.72434,0.93555,0.16863,0.14453,13.748
9.576,0,0.72532,1.2539,0.1098,-0.070312,14.18
9.584,0,0.7263,1.5,-0.086275,-0.34961,14.511
9.592,0,0.72434,1.5,-0.47255,-0.38867,14.638
9.6,0,0.72239,1.0137,-0.20784,0.14062,14.562
9.608,0,0.71945,0.3457,0.28431,0.53906,14.18
9.616,0,0.71554,0.060547,0.53529,0.69922,13.621
9.624,0,0.71065,0.015625,0.64118,0.74023,13.011
9.632,0,0.70381,-0.0039062,0.67059,0.75391,12.376
9.64,0,0.69697,0.044922,0.68627,0.73438,11.944
9.648,0,0.68817,0.025391,0.68039,0.74023,11.639
9.656,0,0.67937,0.044922,0.6902,0.74023,11.563
9.664,0,0.66862,0.025391,0.6902,0.75391,11.639
9.672,0,0.65787,0.076172,0.69608,0.70898,11.766
9.68,0,0.64614,0.03125,0.70588,0.74023,11.944
9.688,0,0.63539,0.070312,0.6902,0.71484,12.122
9.696,0,0.62463,0.041016,0.6902,0.75,12.325
9.704,0,0.61584,0.064453,0.6902,0.73438,12.554
9.712,0,0.60704,0.050781,0.69608,0.73047,12.808
9.72,0,0.59726,0.085938,0.68627,0.70898,13.062
9.728,0,0.58847,0.070312,0.7,0.70508,13.266
9.736,0,0.58065,0.060547,0.71569,0.73047,13.494
9.744,0,0.57185,0.085938,0.7098,0.70898,13.748
9.752,0,0.56403,0.089844,0.71569,0.69922,13.952
9.76,0,0.55718,0.099609,0.73137,0.69531,14.13
9.768,0,0.55132,0.089844,0.74118,0.70898,14.18
9.776,0,0.54643,0.099609,0.7549,0.71484,14.13
9.784,0,0.54154,0.10547,0.75098,0.67969,14.003
9.792,0,0.53861,0.050781,0.7451,0.73438,13.825
9.8,0,0.53568,0.085938,0.76078,0.69922,13.698
9.808,0,0.53275,0.064453,0.7549,0.69531,13.571
9.816,0,0.52884,0.044922,0.75098,0.72461,13.443
9.824,0,0.5259,0.085938,0.76078,0.70898,13.367
9.832,0,0.52199,0.035156,0.76078,0.73047,13.316
9.84,0,0.51808,0.041016,0.7451,0.71484,13.266
9.848,0,0.51417,0.085938,0.76078,0.6543,13.316
9.856,0,0.51124,0.10547,0.70588,0.64453,13.494
9.864,0,0.50831,0.044922,0.7,0.70898,13.698
9.872,0,0.5044,0.24023,0.68627,0.52539,13.875
9.88,0,0.50147,0.32422,0.7098,0.46094,14.003
9.888,0,0.49756,0.14062,0.61569,0.65039,14.18
9.896,0,0.49462,0,0.5451,0.80469,14.384
9.904,0,0.49169,0.0097656,0.51961,0.82422,14.562
9.912,0,0.48876,0,0.48431,0.82422,14.765
9.92,0,0.4868,0.076172,0.47059,0.76562,14.816
9.928,0,0.48485,0.095703,0.4902,0.75,14.816
9.936,0,0.48289,0.12109,0.4902,0.72461,14.765
9.944,0,0.48192,0.13086,0.5098,0.70898,14.689
9.952,0,0.47996,0.15625,0.5098,0.67969,14.638
9.96,0,0.47801,0.16016,0.52549,0.66992,14.562
9.968,0,0.47605,0.16602,0.53922,0.67578,14.435
9.976,0,0.4741,0.14453,0.53922,0.68555,14.384
9.984,0,0.47214,0.17578,0.53529,0.6543,14.384
9.992,0,0.47019,0.13477,0.55098,0.68555,14.435
10,0,0.46823,0.16602,0.53922,0.66016,14.511
10.008,0,0.46628,0.16992,0.56078,0.67969,14.638
10.016,0,0.46334,0.13086,0.5549,0.68945,14.765
10.024,0,0.46139,0.16992,0.55098,0.65039,14.943
10.032,0,0.45943,0.26562,0.58039,0.56055,15.197
10.04,0,0.4565,0.30078,0.5902,0.53516,15.451
10.048,0,0.45552,0.16602,0.5549,0.64453,15.756
10.056,0,0.45455,0.22461,0.5451,0.60547,16.061
10.064,0,0.45357,0.16602,0.56471,0.66992,16.264
10.072,0,0.45455,0.16016,0.53529,0.67969,16.264
10.08,0,0.4565,0.15039,0.5549,0.60547,16.264
10.088,0,0.46139,0.25586,0.53529,0.5957,16.188
10.096,0,0.46628,0.20117,0.5549,0.6543,16.061
10.104,0,0.47312,0.31445,0.57059,0.55078,15.934
10.112,0,0.48289,0.16016,0.52941,0.69531,15.807
10.12,0,0.4956,0.10547,0.52549,0.74414,15.756
10.128,0,0.51124,0.19531,0.51569,0.66016,15.807
10.136,0,0.52786,0.21484,0.52549,0.64062,15.934
10.144,0,0.54545,0.23047,0.5098,0.61914,16.061
10.152,0,0.56305,0.20117,0.50588,0.6543,16.188
10.16,0,0.58162,0.20508,0.51569,0.66016,16.315
10.168,0,0.59824,0.26562,0.52549,0.58398,16.442
10.176,0,0.61486,0.27539,0.52549,0.59961,16.493
10.184,0,0.62952,0.22461,0.52549,0.62891,16.569
10.192,0,0.64125,0.25586,0.52941,0.60547,16.62
10.2,0,0.65005,0.18555,0.52549,0.65039,16.696
10.208,0,0.65885,0.2207,0.55098,0.61523,16.823
10.216,0,0.6696,0.19531,0.55098,0.64062,17.078
10.224,0,0.67742,0.29102,0.59608,0.55469,17.382
10.232,0.02346,0.68231,0.23438,0.58039,0.61914,17.764
10.24,0.047898,0.68719,0.18555,0.53529,0.6543,18.069
10.248,0.081134,0.68915,0.21094,0.5451,0.625,18.247
10.256,0.11437,0.69013,0.13477,0.52549,0.71484,18.45
10.264,0.1437,0.69013,0.14062,0.55098,0.69922,18.501
10.272,0.17302,0.68817,0.29102,0.5549,0.5957,18.501
10.28,0.19941,0.68524,0.52539,0.4,0.42578,18.577
10.288,0.22581,0.68133,0.89453,0.20392,0.17578,18.755
10.296,0.25122,0.67546,1.2285,0.14314,-0.048828,18.933
10.304,0.27664,0.6696,1.5,-0.047059,-0.33398,19.136
10.312,0.30205,0.66373,1.5,-0.45294,-0.39453,19.263
10.32,0.32649,0.65689,1.0352,-0.20196,0.15625,19.314
10.328,0.34897,0.65005,0.33984,0.2902,0.53516,19.263
10.336,0.37146,0.64223,0.070312,0.53529,0.69922,19.06
10.344,0.39101,0.63148,-0.019531,0.6549,0.75391,18.806
10.352,0.41056,0.62072,0,0.69608,0.75,18.501
10.36,0.42717,0.6129,0.03125,0.7,0.74414,18.196
10.368,0.44379,0.60411,0.041016,0.70588,0.74414,17.814
10.376,0.45846,0.59433,0,0.7,0.7793,17.56
10.384,0.47312,0.58553,0.080078,0.71569,0.70508,17.382
10.392,0.4868,0.57771,0.044922,0.72157,0.73438,17.255
10.4,0.49951,0.56989,-0.0097656,0.6902,0.78516,17.306
10.408,0.51124,0.56305,0.015625,0.69608,0.77539,17.433
10.416,0.52395,0.55621,0.019531,0.6902,0.7793,17.637
10.424,0.53372,0.55132,0.015625,0.6902,0.76562,17.814
10.432,0.54448,0.54643,0.050781,0.71569,0.73047,17.942
10.44,0.55327,0.54154,0.054688,0.7,0.74023,18.069
10.448,0.56305,0.53666,0.070312,0.71569,0.70898,18.119
10.456,0.57185,0.53177,0.064453,0.72157,0.73047,18.247
10.464,0.58065,0.52688,0.054688,0.71569,0.73438,18.374
10.472,0.58944,0.52199,0.064453,0.73137,0.72461,18.501
10.48,0.59922,0.51711,0.10547,0.7451,0.69531,18.628
10.488,0.60704,0.51417,0.125,0.75098,0.66992,18.679
10.496,0.61584,0.51222,0.041016,0.73529,0.75,18.577
10.504,0.62366,0.51026,0.070312,0.76667,0.72461,18.247
10.512,0.63148,0.50733,0.099609,0.78039,0.69531,17.891
10.52,0.63832,0.50635,0.11133,0.77647,0.67969,17.51
10.528,0.64614,0.50538,0.019531,0.78039,0.75391,17.001
10.536,0.652,0.50342,0.041016,0.78627,0.74023,16.442
10.544,0.65885,0.50147,0.025391,0.78039,0.75391,15.756
10.552,0.66471,0.49951,0.019531,0.77647,0.74414,15.121
10.56,0.67155,0.49658,0.0097656,0.78039,0.75,14.562
10.568,0.67742,0.49267,0.050781,0.76078,0.7207,14.003
10.576,0.68426,0.48974,0.015625,0.73529,0.75391,13.443
10.584,0.68915,0.48583,0.0097656,0.72549,0.74414,12.757
10.592,0.69404,0.48192,0.050781,0.69608,0.73438,11.868
10.6,0.69795,0.47703,0.099609,0.66471,0.68945,10.75
10.608,0.70283,0.47312,0.13086,0.6451,0.66992,9.5044
10.616,0.70479,0.47116,0.125,0.61569,0.68555,8.1321
10.624,0.70772,0.46823,0.20508,0.58431,0.65039,6.6836
10.632,0.7087,0.4653,0.23047,0.57451,0.625,5.1842
10.64,0.70968,0.46334,0.23438,0.57059,0.64062,3.8882
10.648,0.70968,0.46237,0.26953,0.5549,0.60938,2.7446
10.656,0.7087,0.46237,0.27539,0.55098,0.61523,2.0076
10.664,0.70772,0.46237,0.25,0.56471,0.61914,1.5756
10.672,0.70577,0.46139,0.27539,0.57451,0.59961,1.4485
10.68,0.70381,0.46237,0.27539,0.5549,0.60547,1.5756
10.688,0.70186,0.46237,0.26953,0.56078,0.61914,1.8297
10.696,0.69892,0.46237,0.24609,0.57451,0.63477,2.1347
10.704,0.69697,0.46237,0.26562,0.57059,0.61523,2.4396
10.712,0.69404,0.46139,0.25,0.57451,0.62891,2.6175
10.72,0.6911,0.45943,0.25977,0.58039,0.60938,2.6175
10.728,0.68915,0.45748,0.23047,0.5902,0.60547,2.3126
10.736,0.68622,0.45552,0.22461,0.57451,0.64453,1.7027
10.744,0.68426,0.45357,0.23047,0.58039,0.63477,1.0165
10.752,0.68328,0.45064,0.23047,0.58431,0.625,0.38119
10.76,0.68231,0.44966,0.24609,0.57451,0.62891,0
10.768,0.68133,0.4477,0.25,0.57059,0.61914,0
10.776,0.68231,0.44477,0.24023,0.57451,0.61914,0.25413
10.784,0.68231,0.44477,0.23438,0.5902,0.60938,0.76239
10.792,0.68426,0.44477,0.30078,0.6,0.57031,1.3215
10.8,0.68719,0.44868,0.25586,0.57451,0.61914,1.8806
10.808,0.69013,0.45552,0.25,0.57451,0.60938,2.1855
10.816,0.69404,0.46628,0.28516,0.58039,0.61523,2.1855
10.824,0.69892,0.47996,0.32031,0.58431,0.57031,1.8297
10.832,0.70381,0.49756,0.30078,0.58431,0.58008,1.1944
10.84,0.7087,0.51711,0.30078,0.6,0.58398,0.55909
10.848,0.71359,0.53666,0.32031,0.58039,0.56445,0.30496
10.856,0.71848,0.55621,0.33594,0.56471,0.55469,0.43202
10.864,0.72336,0.57478,0.29492,0.5451,0.57422,0.76239
10.872,0.72923,0.59238,0.33594,0.57059,0.55078,1.2452
10.88,0.73509,0.60802,0.32422,0.55098,0.56445,1.7535
10.888,0.74194,0.61877,0.35547,0.55098,0.53906,2.1347
10.896,0.74878,0.62561,0.32031,0.56471,0.55469,2.4396
10.904,0.75562,0.63343,0.30469,0.5549,0.57422,2.6175
10.912,0.76246,0.6393,0.27539,0.56078,0.59961,2.7446
10.92,0.76833,0.64321,0.26562,0.56471,0.60938,2.7446
10.928,0.77419,0.64516,0.23047,0.58039,0.63477,2.7446
10.936,0.78006,0.64516,0.25977,0.57451,0.61523,2.7446
10.944,0.78592,0.64321,0.25586,0.57451,0.61523,2.8208
10.952,0.79179,0.64027,0.26953,0.5902,0.5957,2.8717
10.96,0.79765,0.63636,0.24023,0.59608,0.62891,2.9987
10.968,0.80352,0.63148,0.26562,0.57451,0.60938,3.2529
10.976,0.80938,0.62561,0.24609,0.56471,0.61914,3.5578
10.984,0.81427,0.61975,0.24023,0.5902,0.61523,4.0661
10.992,0.81916,0.61388,0.31055,0.6,0.57422,4.4981
11,0.82209,0.60606,0.48047,0.5,0.46484,4.8285
11.008,0.826,0.59824,0.78906,0.30392,0.25586,5.0064
11.016,0.82893,0.58847,1.1992,0.15882,-0.019531,5.1334
11.024,0.83089,0.57771,1.5,-0.031373,-0.375,5.1842
11.032,0.83284,0.56598,1.5,-0.42353,-0.45312,5.2605
11.04,0.8348,0.55327,1.2852,-0.50196,0.0058594,5.0572
11.048,0.83578,0.54057,0.56445,0.14314,0.42578,4.7014
11.056,0.83675,0.52688,0.15039,0.52549,0.66016,4.0152
11.064,0.83675,0.51417,0.03125,0.6549,0.74414,3.202
11.072,0.83773,0.50147,0.015625,0.7098,0.75391,2.5159
11.08,0.83773,0.48974,0.03125,0.72157,0.74414,1.9314
11.088,0.83773,0.47996,0.064453,0.71569,0.73047,1.8297
11.096,0.83871,0.46725,0.044922,0.72157,0.74414,2.0076
11.104,0.83969,0.45357,0.044922,0.73529,0.73438,2.4396
11.112,0.84164,0.44184,0.041016,0.74118,0.75,3.075
11.12,0.8436,0.43109,0.085938,0.73137,0.7207,3.6341
11.128,0.84653,0.42131,0.044922,0.72157,0.74414,3.939
11.136,0.84946,0.41349,0.080078,0.72549,0.72461,4.0661
11.144,0.85435,0.40567,0.10547,0.73137,0.69922,3.8882
11.152,0.85826,0.39883,0.089844,0.72157,0.71484,3.6849
11.16,0.86217,0.39296,0.064453,0.72549,0.73047,3.4307
11.168,0.86706,0.38807,0.085938,0.74118,0.7207,3.202
11.176,0.87097,0.38319,0.089844,0.73137,0.70898,2.9987
11.184,0.87586,0.38025,0.11133,0.72549,0.69922,2.9479
11.192,0.88172,0.37634,0.085938,0.74118,0.71484,2.9987
11.2,0.88856,0.37341,0.099609,0.7549,0.7207,3.2529
11.208,0.89638,0.37048,0.11133,0.7549,0.69922,3.3799
11.216,0.9042,0.36755,0.10547,0.76667,0.69922,3.2529
11.224,0.91105,0.36461,0.125,0.77059,0.70508,2.5159
11.232,0.91887,0.36168,0.13477,0.78039,0.67578,1.2452
11.24,0.92669,0.35875,0.10547,0.78627,0.70508,-0.25413
11.248,0.93353,0.35582,0.089844,0.78039,0.70898,-1.4994
11.256,0.94233,0.35191,0.099609,0.78627,0.70508,-1.9822
11.264,0.95112,0.34897,0.064453,0.79608,0.71484,-1.9822
11.272,0.9609,0.34604,0.076172,0.78627,0.70898,-1.9822
11.28,0.97067,0.34311,0.025391,0.77647,0.74023,-1.7535
11.288,0.97947,0.34115,0.041016,0.76667,0.73047,-1.2452
11.296,0.98925,0.33822,0.019531,0.75098,0.74023,-0.68615
11.304,0.99511,0.33431,0.050781,0.72157,0.72461,-0.17789
11.312,1,0.33138,0.025391,0.70588,0.74023,0.12706
11.32,1,0.32845,0.050781,0.68039,0.7207,0.38119
11.328,1,0.32551,0.089844,0.6549,0.69922,0.50826
11.336,1,0.3216,0.16602,0.62549,0.6543,0.55909
11.344,1,0.31867,0.18555,0.6098,0.64062,0.55909
11.352,1,0.31574,0.17969,0.5902,0.64453,0.50826
11.36,1,0.31281,0.19531,0.57059,0.64062,0.43202
11.368,1,0.3089,0.18945,0.55098,0.65039,0.38119
11.376,1,0.30596,0.21484,0.57059,0.62891,0.25413
11.384,1,0.30401,0.21094,0.56471,0.64062,0.25413
11.392,1,0.30205,0.22461,0.56078,0.62891,0.25413
11.4,1,0.3001,0.23047,0.56471,0.62891,0.30496
11.408,1,0.29814,0.21484,0.56471,0.64062,0.50826
11.416,1,0.29521,0.20508,0.56078,0.64453,0.81321
11.424,1,0.29326,0.25586,0.57059,0.60547,1.3215
11.432,1,0.2913,0.21094,0.56471,0.64062,1.8297
11.44,1,0.28837,0.20117,0.57451,0.65039,2.1347
11.448,1,0.28641,0.18945,0.58039,0.6543,2.2618
11.456,1,0.28446,0.2207,0.56471,0.63477,2.3126
11.464,1,0.2825,0.21484,0.57059,0.625,2.3888
11.472,1,0.28152,0.23047,0.56471,0.625,2.5159
11.48,1,0.28055,0.21484,0.5902,0.63477,2.8208
11.488,1,0.28055,0.24023,0.57451,0.61523,3.202
11.496,1,0.27957,0.23047,0.57059,0.61914,3.6341
11.504,1,0.27859,0.24609,0.56471,0.61523,3.8882
11.512,1,0.27761,0.23438,0.57451,0.61914,3.939
11.52,1,0.27859,0.29102,0.58039,0.58398,3.8119
11.528,1,0.28055,0.29492,0.57451,0.58984,3.507
11.536,1,0.28446,0.2793,0.57451,0.58984,3.075
11.544,1,0.2913,0.27539,0.5902,0.5957,2.5667
11.552,1,0.30108,0.30078,0.57451,0.58398,1.9314
11.56,1,0.31378,0.30469,0.55098,0.57031,1.2452
11.568,1,0.32845,0.29102,0.55098,0.57422,0.76239
11.576,1,0.34604,0.28516,0.55098,0.58398,0.43202
11.584,1,0.36168,0.31055,0.5549,0.56055,0.55909
11.592,1,0.37732,0.33984,0.56078,0.53516,0.94028
11.6,1,0.39492,0.31055,0.55098,0.57031,1.5756
11.608,1,0.41251,0.26562,0.5451,0.60547,2.2618
11.616,1,0.42913,0.25,0.5549,0.61523,2.8717
11.624,1,0.44477,0.21484,0.57059,0.60938,3.4307
11.632,1,0.45943,0.20117,0.56471,0.64453,3.8882
11.64,1,0.47214,0.23047,0.57059,0.62891,4.1931
11.648,1,0.48387,0.23047,0.56471,0.61914,4.3202
11.656,1,0.49365,0.23047,0.57451,0.625,4.3202
11.664,1,0.50147,0.22461,0.57451,0.63477,4.244
11.672,1,0.50831,0.25,0.57451,0.61523,4.1931
11.68,1,0.5132,0.22461,0.56471,0.63477,4.1931
11.688,1,0.51613,0.25586,0.57451,0.61523,4.3202
11.696,1,0.51808,0.2793,0.58431,0.58984,4.4981
11.704,1,0.52004,0.4707,0.47451,0.4707,4.8285
11.712,1,0.52004,0.81445,0.23333,0.25,5.1842
11.72,1,0.51906,1.2539,0.088235,-0.044922,5.5654
11.728,1,0.51711,1.5,-0.10196,-0.34375,5.8704
11.736,1,0.51222,1.5,-0.42745,-0.41992,5.9466
11.744,1,0.50733,1.1094,-0.46275,0.11133,5.7433
11.752,1,0.50049,0.4707,0.2098,0.48438,5.2605
11.76,1,0.49267,0.076172,0.5451,0.71484,4.4981
11.768,1,0.48289,0.019531,0.67059,0.74414,3.7611
11.776,1,0.47312,0.019531,0.70588,0.75391,3.075
11.784,1,0.46432,0.015625,0.69608,0.75391,2.6175
11.792,1,0.45552,0.044922,0.72549,0.74023,2.5667
11.8,1,0.44575,0.03125,0.73137,0.75,2.8208
11.808,1,0.43597,0.060547,0.71569,0.73047,3.3799
11.816,1,0.4262,0.041016,0.72157,0.74414,4.0152
11.824,1,0.41642,0.060547,0.72157,0.73047,4.5743
11.832,1,0.40762,0.044922,0.72549,0.74023,4.9301
11.84,1,0.40078,0.099609,0.71569,0.69531,5.0064
11.848,1,0.39296,0.050781,0.72157,0.73438,4.8285
11.856,1,0.3871,0.089844,0.71569,0.70508,4.4473
11.864,1,0.38221,0.085938,0.72157,0.70898,4.0661
11.872,1,0.37732,0.095703,0.72549,0.70898,3.6849
11.88,1,0.37341,0.070312,0.72549,0.72461,3.4307
11.888,1,0.37048,0.099609,0.71569,0.69922,3.3799
11.896,1,0.36755,0.076172,0.74118,0.72461,3.507
11.904,1,0.36461,0.12109,0.74118,0.68945,3.7611
11.912,1,0.36168,0.13086,0.75098,0.67578,4.0152
11.92,1,0.35875,0.10547,0.76078,0.69922,3.939
11.928,1,0.35679,0.085938,0.76667,0.70898,3.3291
11.936,1,0.35386,0.12109,0.76667,0.68555,2.2618
11.944,1,0.35093,0.089844,0.77647,0.70898,1.0165
11.952,1,0.34995,0.11133,0.77647,0.68945,-0.17789
11.96,1,0.348,0.095703,0.78627,0.69922,-1.0673
11.968,1,0.34604,0.089844,0.78627,0.70508,-1.4994
11.976,1,0.34311,0.060547,0.78039,0.71484,-1.4994
11.984,1,0.34213,0.050781,0.76078,0.72461,-1.2452
11.992,1,0.34018,0.019531,0.7549,0.74414,-0.73698
12,1,0.33822,0.035156,0.73137,0.73047,-0.12706
12.008,1,0.33529,0.03125,0.71569,0.73047,0.55909
12.016,1,0.33333,0.050781,0.6902,0.71484,1.1944
12.024,1,0.33138,0.060547,0.67059,0.70898,1.7027
12.032,1,0.32942,0.080078,0.64118,0.71484,1.9314
12.04,1,0.32747,0.11133,0.61569,0.68555,2.0076
12.048,1,0.32551,0.14453,0.58431,0.66992,1.8806
12.056,1,0.32454,0.16602,0.57451,0.66016,1.5756
12.064,1,0.32356,0.17578,0.56471,0.65039,1.1182
12.072,1,0.32258,0.21094,0.56078,0.62891,0.68615
12.08,1,0.32356,0.22461,0.5549,0.61523,0.43202
12.088,1,0.32356,0.21484,0.55098,0.63477,0.43202
12.096,1,0.32454,0.19531,0.55098,0.64062,0.76239
12.104,1,0.32356,0.23047,0.5549,0.61914,1.3215
12.112,1,0.32356,0.21094,0.5451,0.64062,2.0076
12.12,1,0.32258,0.21484,0.53922,0.63477,2.5667
12.128,1,0.32063,0.20508,0.55098,0.64062,3.075
12.136,1,0.31965,0.2207,0.5549,0.62891,3.3291
12.144,1,0.31769,0.21484,0.55098,0.63477,3.4307
12.152,1,0.31574,0.23438,0.56078,0.61523,3.3799
12.16,1,0.31476,0.21484,0.5549,0.62891,3.3799
12.168,1,0.31281,0.21094,0.56078,0.64062,3.3799
12.176,1,0.31281,0.23438,0.55098,0.61914,3.5578
12.184,1,0.31281,0.26953,0.57059,0.58984,3.8882
12.192,1,0.31378,0.2793,0.57451,0.5957,4.371
12.2,1,0.31378,0.26953,0.56078,0.60547,4.8793
12.208,1,0.31378,0.29492,0.57451,0.58398,5.3875
12.216,1,0.31476,0.2793,0.5451,0.58984,5.6925
12.224,1,0.31672,0.30469,0.52549,0.56445,5.7433
12.232,1,0.32063,0.26953,0.52549,0.58984,5.5654
12.24,1,0.32649,0.31445,0.53529,0.56055,5.1334
12.248,1,0.33431,0.33984,0.52549,0.53906,4.4981
12.256,1,0.34604,0.34961,0.51961,0.53516,3.8882
12.264,1,0.36168,0.29102,0.52549,0.57422,3.3799
12.272,1,0.3783,0.29492,0.52941,0.56445,3.1258
12.28,1,0.39394,0.23438,0.52549,0.61914,3.1258
12.288,1,0.40958,0.25586,0.55098,0.60938,3.4307
12.296,1,0.42717,0.24023,0.53922,0.61523,3.8119
12.304,1,0.44477,0.25586,0.5451,0.60938,4.371
12.312,1,0.46334,0.25586,0.55098,0.60938,4.9301
12.32,1,0.47996,0.25586,0.55098,0.60547,5.3875
12.328,1,0.4956,0.25977,0.5549,0.59961,5.7433
12.336,1,0.51026,0.25,0.5451,0.5957,6.1245
12.344,1,0.52297,0.24023,0.5549,0.61523,6.5057
12.352,1,0.5347,0.27539,0.56078,0.58984,6.8869
12.36,1,0.54448,0.39062,0.56471,0.50586,7.141
12.368,1,0.55327,0.64453,0.32941,0.33984,7.3698
12.376,1,0.56012,1,0.12353,0.11133,7.5731
12.384,1,0.56403,1.4336,0.017647,-0.17383,7.8272
12.392,1,0.56696,1.5,-0.24314,-0.39453,8.0559
12.4,1,0.56891,1.5,-0.46275,-0.14844,8.31
12.408,1,0.56891,0.80469,-0.047059,0.26562,8.3863
12.416,1,0.56891,0.21484,0.39412,0.60938,8.183
12.424,1,0.56794,0.025391,0.58431,0.73438,7.8272
12.432,1,0.565,0.0058594,0.66078,0.75391,7.2427
12.44,1,0.56109,0.044922,0.68627,0.73047,6.7598
12.448,1,0.55523,0.054688,0.7,0.72461,6.3278
12.456,1,0.54839,0.054688,0.7098,0.7207,6.0737
12.464,1,0.53959,0.041016,0.7,0.73047,5.9975
12.472,0.99218,0.53079,0.064453,0.70588,0.73047,6.1245
12.48,0.98338,0.52102,0.054688,0.7,0.73047,6.3787
12.488,0.95797,0.51222,0.070312,0.69608,0.72461,6.6836
12.496,0.93255,0.50049,0.064453,0.6902,0.73047,7.0648
12.504,0.90909,0.48876,0.099609,0.68627,0.70508,7.3698
12.512,0.88465,0.47605,0.064453,0.7098,0.7207,7.5731
12.52,0.86217,0.46432,0.080078,0.70588,0.70898,7.6239
12.528,0.83969,0.45259,0.11133,0.71569,0.67969,7.7001
12.536,0.81623,0.44184,0.089844,0.70588,0.70508,7.7001
12.544,0.79179,0.43206,0.070312,0.7098,0.7207,7.7001
12.552,0.76735,0.42131,0.095703,0.71569,0.70508,7.5731
12.56,0.74291,0.41251,0.089844,0.71569,0.69922,7.4968
12.568,0.71945,0.40274,0.11523,0.73529,0.70508,7.4968
12.576,0.69599,0.39492,0.089844,0.74118,0.68555,7.5731
12.584,0.67449,0.38807,0.10547,0.7451,0.70508,7.6239
12.592,0.652,0.38221,0.11523,0.7451,0.68555,7.7001
12.6,0.63245,0.37634,0.089844,0.7549,0.70508,7.6239
12.608,0.6129,0.37146,0.099609,0.77647,0.68945,7.5731
12.616,0.59433,0.36755,0.085938,0.76667,0.70898,7.4968
12.624,0.57674,0.36364,0.11523,0.77647,0.66406,7.3698
12.632,0.55816,0.35973,0.060547,0.7549,0.71484,7.3189
12.64,0.54057,0.35777,0.054688,0.7451,0.70898,7.2427
12.648,0.52199,0.35582,0.044922,0.74118,0.71484,7.2427
12.656,0.50342,0.35386,0.064453,0.7098,0.69922,7.3698
12.664,0.48583,0.35288,0.076172,0.68627,0.68555,7.446
12.672,0.46921,0.35093,0.089844,0.65098,0.68555,7.5731
12.68,0.45161,0.35093,0.10547,0.63529,0.66992,7.7001
12.688,0.435,0.35191,0.11523,0.6098,0.67969,7.8272
12.696,0.41447,0.35191,0.10547,0.58431,0.67969,7.878
12.704,0.39394,0.35288,0.14062,0.57451,0.66406,7.8272
12.712,0.3695,0.35288,0.15039,0.5549,0.66992,7.8272
12.72,0.34506,0.35386,0.18555,0.52941,0.64062,7.8272
12.728,0.31769,0.35484,0.18945,0.53529,0.64062,7.878
12.736,0.29032,0.35582,0.17969,0.5451,0.62891,8.0051
12.744,0.261,0.35679,0.21484,0.53922,0.61523,8.0559
12.752,0.23167,0.35777,0.17969,0.53529,0.64453,8.0559
12.76,0.2043,0.35875,0.18555,0.53922,0.66016,8.0559
12.768,0.17693,0.35973,0.21094,0.52549,0.63477,8.0051
12.776,0.15152,0.3607,0.20117,0.53922,0.625,8.0051
12.784,0.1261,0.36168,0.21094,0.5451,0.61914,7.878
12.792,0.098729,0.36168,0.21484,0.53922,0.64453,7.751
12.8,0.071359,0.36266,0.17969,0.5451,0.6543,7.6239
12.808,0.043011,0.36266,0.20117,0.56078,0.63477,7.6239
12.816,0.014663,0.36364,0.18945,0.56471,0.64062,8.0051
12.824,0.0068426,0.36364,0.33594,0.57451,0.54492,8.6912
12.832,0,0.36364,0.51562,0.4098,0.42578,9.6823
12.84,0,0.36364,0.9043,0.18824,0.16602,10.877
12.848,0,0.36266,1.1895,0.11373,-0.019531,12.071
12.856,0,0.36266,1.5,-0.041176,-0.26367,13.139
12.864,0,0.36266,1.5,-0.41765,-0.33398,13.698
12.872,0,0.36364,1.1035,-0.22745,0.089844,13.621
12.88,0,0.36657,0.45508,0.23922,0.47461,12.808
12.888,0,0.3695,0.10547,0.51961,0.67578,11.385
12.896,0,0.37537,0.015625,0.61569,0.74023,9.6315
12.904,0,0.38416,0.0058594,0.66078,0.75391,8.0559
12.912,0,0.39589,0.019531,0.67059,0.74414,6.9377
12.92,0,0.40958,0.035156,0.66471,0.73438,6.5057
12.928,0,0.42522,0.03125,0.67647,0.75391,6.5565
12.936,0,0.44184,0.085938,0.66471,0.70898,7.014
12.944,0,0.45943,0.019531,0.67647,0.75977,7.7001
12.952,0,0.47703,0.054688,0.67059,0.73438,8.5133
12.96,0,0.49462,0.064453,0.68039,0.7207,9.0724
12.968,0,0.51222,0.041016,0.66471,0.73438,9.3266
12.976,0,0.52688,0.064453,0.67647,0.73047,9.2503
12.984,0,0.53861,0.060547,0.68627,0.7207,8.9962
12.992,0,0.55132,0.080078,0.6902,0.70898,8.6912
13,0,0.56305,0.064453,0.6902,0.73047,8.4371
13.008,0,0.5738,0.054688,0.70588,0.73438,8.31
13.016,0,0.58358,0.080078,0.7098,0.70898,8.3863
13.024,0,0.5914,0.099609,0.71569,0.69922,8.6912
13.032,0,0.59726,0.060547,0.72157,0.73438,9.2503
13.04,0,0.60117,0.050781,0.74118,0.73047,9.8856
13.048,0,0.60411,0.060547,0.75098,0.72461,10.368
13.056,0,0.60508,0.080078,0.76078,0.70898,10.75
13.064,0,0.60606,0.035156,0.76078,0.74414,10.877
13.072,0,0.60508,0.064453,0.76667,0.71484,10.826
13.08,0,0.60411,0.03125,0.76078,0.74414,10.572
13.088,0,0.60313,0.025391,0.78039,0.73438,10.318
13.096,0,0.60215,0.064453,0.77059,0.7207,10.191
13.104,0,0.59922,0.019531,0.76078,0.74414,10.14
13.112,0,0.59531,0.070312,0.73137,0.69922,10.14
13.12,0,0.5914,0.11133,0.71569,0.66016,10.241
13.128,0,0.58456,0.15039,0.7,0.625,10.445
13.136,0,0.57771,0.099609,0.61961,0.70508,10.623
13.144,0,0.59335,0.21094,0.64118,0.59961,10.75
13.152,0,0.61877,0.2793,0.59608,0.5293,10.75
13.16,0,0.62561,0.12109,0.5451,0.70898,10.699
13.168,0,0.6217,0.11523,0.53922,0.65039,10.623
13.176,0,0.61584,0.20117,0.55098,0.62891,10.572
13.184,0,0.60704,0.33984,0.58039,0.49023,10.496
13.192,0,0.59726,0.41992,0.59608,0.42578,10.496
13.2,0,0.58749,-0.044922,0.4549,0.875,10.496
13.208,0,0.57674,0.054688,0.47059,0.78516,10.623
13.216,0,0.56794,0.099609,0.49412,0.74023,10.826
13.224,0,0.55914,0.076172,0.48039,0.75977,11.055
13.232,0,0.5523,0.11133,0.50588,0.7207,11.309
13.24,0,0.54643,0.14453,0.51961,0.69531,11.639
13.248,0,0.54154,0.16016,0.52549,0.66406,11.944
13.256,0,0.53763,0.125,0.51961,0.70508,12.249
13.264,0,0.5347,0.13477,0.53529,0.71484,12.554
13.272,0,0.53275,0.15625,0.51961,0.67578,12.935
13.28,0,0.53079,0.16992,0.52549,0.6543,13.266
13.288,0,0.52884,0.17578,0.51961,0.65039,13.367
13.296,0,0.52688,0.24023,0.55098,0.58398,13.316
13.304,0,0.52493,0.26562,0.5451,0.57422,13.062
13.312,0,0.52199,0.27539,0.55098,0.57031,12.808
13.32,0,0.51906,0.21094,0.5451,0.61914,12.554
13.328,0,0.51613,0.23438,0.56078,0.58984,12.452
13.336,0,0.5132,0.25586,0.53529,0.57422,12.503
13.344,0,0.51124,0.12109,0.50588,0.72461,12.63
13.352,0,0.50929,0.16992,0.5,0.66992,12.884
13.36,0,0.51026,0.17969,0.51569,0.66016,13.189
13.368,0,0.5132,0.23047,0.53529,0.59961,13.494
13.376,0,0.51808,0.21484,0.52549,0.61914,13.825
13.384,0,0.52493,0.18555,0.5451,0.6543,14.053
13.392,0,0.5347,0.041016,0.47451,0.79883,14.13
13.4,0,0.54643,0.15039,0.50588,0.69531,14.13
13.408,0,0.56012,0.20117,0.51961,0.64453,14.13
13.416,0,0.57576,0.13086,0.5,0.70898,14.13
13.424,0,0.5914,0.17578,0.51961,0.6543,14.18
13.432,0,0.60802,0.14453,0.52549,0.69531,14.307
13.44,0,0.62463,0.17969,0.53529,0.66016,14.511
13.448,0,0.6393,0.18945,0.52549,0.65039,14.816
13.456,0,0.65298,0.16016,0.52941,0.67969,15.324
13.464,0,0.66569,0.20117,0.55098,0.64062,15.807
13.472,0,0.67644,0.25586,0.5451,0.58398,16.264
13.48,0,0.68328,0.28516,0.58039,0.54492,16.696
13.488,0,0.68915,0.11133,0.52549,0.72461,17.001
13.496,0,0.69306,0.18555,0.53922,0.66016,17.128
13.504,0,0.69599,0.28516,0.58039,0.56055,17.078
13.512,0,0.69599,0.2207,0.57059,0.63477,16.874
13.52,0,0.69501,0.15625,0.52941,0.68945,16.696
13.528,0,0.69013,0.17578,0.51961,0.66016,16.493
13.536,0,0.68426,0.24023,0.57451,0.5957,16.442
13.544,0,0.67742,0.21094,0.56078,0.61914,16.493
13.552,0,0.6696,0.16602,0.52549,0.66406,16.696
13.56,0,0.6608,0.28516,0.51961,0.56445,17.001
13.568,0,0.65005,0.32031,0.57059,0.51953,17.306
13.576,0,0.64027,0.24023,0.5451,0.60938,17.56
13.584,0,0.62952,0.20117,0.52549,0.64453,17.687
13.592,0,0.61877,0.22461,0.51961,0.62891,17.764
13.6,0,0.60802,0.20508,0.51569,0.64062,17.764
13.608,0.020528,0.59629,0.30469,0.57059,0.5293,17.814
13.616,0.042033,0.58651,0.16016,0.51569,0.68555,17.814
13.624,0.061584,0.57771,0.19531,0.56078,0.63477,17.814
13.632,0.082111,0.56891,0.14453,0.55098,0.67969,17.814
13.64,0.10068,0.56207,0.17578,0.56471,0.66016,17.814
13.648,0.11926,0.55523,0.18555,0.53922,0.66406,17.992
13.656,0.13783,0.55034,0.16016,0.56078,0.66016,18.323
13.664,0.1564,0.54448,0.13086,0.55098,0.69531,18.577
13.672,0.17498,0.54057,0.16992,0.57451,0.66016,18.806
13.68,0.19355,0.53763,0.125,0.55098,0.70508,19.06
13.688,0.21114,0.5347,0.23047,0.57451,0.60938,19.314
13.696,0.22972,0.53177,0.32031,0.58039,0.55078,19.746
13.704,0.24731,0.52884,0.44531,0.44902,0.4707,20.178
13.712,0.26491,0.5259,0.78906,0.24902,0.23438,20.635
13.72,0.28055,0.52297,1.1992,0.17843,-0.064453,20.991
13.728,0.29619,0.52004,1.5,-0.0019608,-0.27344,21.245
13.736,0.30987,0.51808,1.5,-0.40196,-0.33398,21.321
13.744,0.32356,0.51515,1.1934,-0.41176,0,21.118
13.752,0.33822,0.51417,0.46094,0.22353,0.45508,20.686
13.76,0.35191,0.5132,0.015625,0.51569,0.74023,20.076
13.768,0.36657,0.51222,-0.054688,0.64118,0.78906,19.492
13.776,0.38123,0.51124,-0.074219,0.67059,0.81445,19.06
13.784,0.39394,0.50929,-0.039062,0.6902,0.78906,18.679
13.792,0.40567,0.50831,0.03125,0.72157,0.73438,18.501
13.8,0.41642,0.50635,-0.035156,0.6902,0.78906,18.374
13.808,0.42717,0.5044,-0.070312,0.67647,0.83008,18.374
13.816,0.43793,0.50244,-0.0097656,0.70588,0.76953,18.501
13.824,0.44868,0.50147,0,0.69608,0.75977,18.628
13.832,0.45846,0.49951,-0.0039062,0.68627,0.76562,18.679
13.84,0.46823,0.49853,0.03125,0.68627,0.75,18.755
13.848,0.47801,0.49658,0.0058594,0.7098,0.75977,18.755
13.856,0.4868,0.49365,0.035156,0.72157,0.73047,18.755
13.864,0.4956,0.49169,0.019531,0.71569,0.73438,18.882
13.872,0.5044,0.48974,0.03125,0.72157,0.74414,19.009
13.88,0.51124,0.48876,0.015625,0.72549,0.75391,19.136
13.888,0.51808,0.48778,0.044922,0.72157,0.73047,19.314
13.896,0.52395,0.4868,-0.0039062,0.71569,0.76953,19.39
13.904,0.52981,0.48583,0.015625,0.73529,0.77539,19.39
13.912,0.53568,0.48387,0.060547,0.7451,0.71484,19.187
13.92,0.54154,0.48289,0.019531,0.74118,0.75391,18.806
13.928,0.54643,0.48094,0.0097656,0.75098,0.74414,18.247
13.936,0.55132,0.47996,0.035156,0.74118,0.75391,17.56
13.944,0.55621,0.47898,0.064453,0.78039,0.70898,16.823
13.952,0.56012,0.47801,0.0058594,0.76078,0.75977,16.01
13.96,0.56403,0.47801,0.050781,0.7902,0.70508,15.248
13.968,0.56794,0.47703,0.089844,0.8,0.66406,14.689
13.976,0.57087,0.47605,-0.089844,0.75098,0.83984,14.257
13.984,0.57478,0.47605,-0.099609,0.76667,0.79492,14.003
13.992,0.57674,0.47507,-0.013672,0.78039,0.75391,13.698
14,0.57967,0.47507,-0.089844,0.72549,0.82422,13.316
14.008,0.58162,0.47507,-0.10352,0.71569,0.82422,12.808
14.016,0.58456,0.47507,-0.054688,0.70588,0.78906,12.071
14.024,0.58553,0.47507,-0.0097656,0.68627,0.75977,11.131
14.032,0.58651,0.47605,0.03125,0.67059,0.72461,10.064
14.04,0.58749,0.47703,0.11133,0.67647,0.66992,8.8183
14.048,0.58749,0.47703,0.13477,0.62549,0.66016,7.4968
14.056,0.58651,0.47801,0.24609,0.61569,0.57031,6.2516
14.064,0.58651,0.47898,0.25586,0.61961,0.63477,5.1334
14.072,0.58358,0.47996,0.14062,0.5451,0.69922,4.1169
14.08,0.58162,0.48094,0.2207,0.56078,0.63477,3.3799
14.088,0.57869,0.48192,0.24609,0.57059,0.61523,2.7446
14.096,0.57478,0.48289,0.23438,0.56471,0.61914,2.2618
14.104,0.57185,0.48387,0.30078,0.58039,0.57422,2.0076
14.112,0.56794,0.48387,0.24609,0.55098,0.62891,1.9314
14.12,0.565,0.48387,0.23047,0.5549,0.64062,2.0584
14.128,0.56109,0.48485,0.24023,0.56471,0.61523,2.1855
14.136,0.55718,0.48583,0.2793,0.57451,0.58398,2.2618
14.144,0.55327,0.48583,0.24609,0.57059,0.60547,2.0584
14.152,0.54936,0.48485,0.27539,0.6098,0.60938,1.7535
14.16,0.54545,0.48387,0.2793,0.62549,0.57031,1.3215
14.168,0.54154,0.48289,0.2207,0.58039,0.64062,0.94028
14.176,0.53763,0.48192,0.20117,0.57451,0.65039,0.68615
14.184,0.53372,0.48094,0.18945,0.6,0.6543,0.63532
14.192,0.52981,0.47996,0.25586,0.59608,0.60938,0.81321
14.2,0.52688,0.47996,0.30469,0.6,0.55469,1.1182
14.208,0.52395,0.48289,0.23047,0.58431,0.63477,1.5756
14.216,0.52102,0.48876,0.28516,0.60588,0.58008,1.9314
14.224,0.51906,0.49853,0.32031,0.6,0.56055,2.1855
14.232,0.51711,0.5132,0.26953,0.58039,0.61523,2.1855
14.24,0.51515,0.53177,0.27539,0.57451,0.59961,1.8297
14.248,0.5132,0.55523,0.25977,0.6,0.60938,1.2452
14.256,0.51222,0.58162,0.33594,0.58431,0.55469,0.63532
14.264,0.51124,0.61095,0.32422,0.56471,0.55078,0.2033
14.272,0.51026,0.64125,0.34961,0.57451,0.5293,-0.050826
14.28,0.51026,0.66862,0.29102,0.57059,0.58008,0
14.288,0.51026,0.69208,0.35547,0.56078,0.53906,0.38119
14.296,0.51124,0.71652,0.3457,0.5549,0.53906,0.94028
14.304,0.51222,0.74194,0.29102,0.57059,0.58008,1.4994
14.312,0.5132,0.76442,0.25977,0.5549,0.61523,2.0076
14.32,0.51515,0.78397,0.28516,0.57059,0.5957,2.3126
14.328,0.51906,0.79961,0.23438,0.57451,0.625,2.5159
14.336,0.52297,0.81036,0.22461,0.6,0.62891,2.6175
14.344,0.52688,0.81818,0.30078,0.6,0.57031,2.6938
14.352,0.53177,0.82307,0.31445,0.59608,0.55469,2.7446
14.36,0.53666,0.826,0.22461,0.58039,0.63477,2.8717
14.368,0.54252,0.826,0.20508,0.59608,0.64453,3.202
14.376,0.54839,0.82405,0.29492,0.6,0.58398,3.6341
14.384,0.55425,0.81916,0.26562,0.58431,0.60547,4.244
14.392,0.56109,0.81427,0.29102,0.6098,0.57422,4.8285
14.4,0.56794,0.80938,0.40039,0.61961,0.50586,5.2605
14.408,0.57576,0.80254,0.64062,0.39412,0.35938,5.5146
14.416,0.58358,0.7957,1.0645,0.20392,0.070312,5.5654
14.424,0.59042,0.78788,1.5,0.088235,-0.23438,5.5654
14.432,0.59824,0.77908,1.5,-0.26275,-0.46484,5.4384
14.44,0.60411,0.76833,1.5,-0.50196,-0.16016,5.1334
14.448,0.61095,0.7566,0.84375,-0.060784,0.26953,4.7014
14.456,0.61877,0.74194,0.18945,0.43922,0.64453,4.0661
14.464,0.62659,0.7263,0.041016,0.64118,0.73047,3.3799
14.472,0.63539,0.70968,0.050781,0.70588,0.73438,2.7446
14.48,0.64321,0.69404,0.035156,0.71569,0.74414,2.3126
14.488,0.65298,0.67937,0.044922,0.74118,0.73047,2.1855
14.496,0.66178,0.66373,0.070312,0.7451,0.7207,2.3888
14.504,0.67155,0.64712,0.13086,0.76078,0.66406,2.7446
14.512,0.68133,0.63148,0.089844,0.74118,0.69922,3.3799
14.52,0.69013,0.61681,0.060547,0.73529,0.73047,3.939
14.528,0.69795,0.60215,0.050781,0.72549,0.75,4.371
14.536,0.70577,0.58847,0.060547,0.71569,0.75,4.4473
14.544,0.71359,0.57478,0.041016,0.71569,0.75391,4.244
14.552,0.72336,0.56207,0.025391,0.74118,0.74414,3.939
14.56,0.73216,0.54936,0.076172,0.72549,0.73047,3.5578
14.568,0.74291,0.53861,0.11133,0.73137,0.70508,3.3291
14.576,0.75367,0.52981,0.13086,0.73529,0.67578,3.1258
14.584,0.76442,0.52297,0.064453,0.7451,0.72461,3.1258
14.592,0.77419,0.51515,0.11133,0.76078,0.70508,3.202
14.6,0.78299,0.50733,0.089844,0.7451,0.7207,3.3799
14.608,0.79277,0.49951,0.11133,0.7549,0.69531,3.507
14.616,0.8045,0.49267,0.085938,0.77647,0.70898,3.507
14.624,0.81525,0.48583,0.13086,0.77647,0.68555,2.9987
14.632,0.82796,0.47801,0.12109,0.77647,0.68555,2.0584
14.64,0.84164,0.47116,0.099609,0.78627,0.69922,0.76239
14.648,0.85533,0.46432,0.089844,0.79608,0.70898,-0.60991
14.656,0.86999,0.45748,0.12109,0.7902,0.68555,-1.6773
14.664,0.88465,0.45064,0.089844,0.79608,0.69922,-1.9822
14.672,0.89932,0.44575,0.054688,0.78627,0.72461,-1.9822
14.68,0.913,0.44184,0.019531,0.8,0.75,-1.6264
14.688,0.92571,0.43695,0.070312,0.77647,0.71484,-1.1182
14.696,0.93744,0.43109,0.054688,0.75098,0.7207,-0.60991
14.704,0.94917,0.42522,0.070312,0.76667,0.68945,-0.25413
14.712,0.95894,0.41935,0.035156,0.72549,0.73047,0.2033
14.72,0.96872,0.41251,0.089844,0.68627,0.69922,0.50826
14.728,0.97752,0.40567,0.076172,0.6451,0.71484,0.76239
14.736,0.98729,0.39785,0.14062,0.64118,0.66406,0.88945
14.744,0.99316,0.39101,0.16016,0.61569,0.66016,0.88945
14.752,1,0.38612,0.17578,0.58431,0.6543,0.81321
14.76,1,0.38025,0.18945,0.57451,0.65039,0.76239
14.768,1,0.37439,0.21094,0.58039,0.63477,0.68615
14.776,1,0.37048,0.2207,0.57451,0.62891,0.68615
14.784,1,0.36755,0.21094,0.56471,0.64062,0.68615
14.792,1,0.36266,0.23047,0.57451,0.61914,0.76239
14.8,1,0.35875,0.25,0.58431,0.60547,0.88945
14.808,1,0.35386,0.20508,0.5902,0.64062,1.0165
14.816,1,0.34995,0.21484,0.56471,0.64062,1.1944
14.824,1,0.34604,0.20508,0.56078,0.64453,1.4994
14.832,1,0.34213,0.18555,0.57451,0.65039,1.8297
14.84,1,0.33822,0.25,0.5902,0.60547,2.1855
14.848,1,0.33333,0.2207,0.57451,0.63477,2.5159
14.856,1,0.32845,0.20508,0.57451,0.64453,2.7446
14.864,1,0.32356,0.21484,0.58039,0.62891,2.9479
14.872,1,0.31965,0.21094,0.57451,0.62891,3.1258
14.88,1,0.31672,0.23047,0.59608,0.625,3.3799
14.888,1,0.31281,0.25586,0.6,0.59961,3.6341
14.896,1,0.3089,0.27539,0.6451,0.57422,3.8119
14.904,1,0.30694,0.39062,0.7098,0.50586,3.8882
14.912,1,0.30499,0.47461,0.7451,0.4707,3.7611
14.92,1,0.30401,0.66992,0.76078,0.39453,3.507
14.928,1,0.30499,1.0449,0.67647,0.20508,3.3291
14.936,1,0.30694,1.3398,0.61961,0.044922,3.2529
14.944,1,0.31183,1.1484,0.62549,0.17578,3.075
14.952,1,0.32063,0.7207,0.6549,0.43945,2.6175
14.96,1,0.33333,0.32422,0.69608,0.67578,2.0076
14.968,1,0.34995,-0.025391,0.7549,0.85938,1.3723
14.976,1,0.36755,-0.33398,0.61961,1.0391,1.0165
14.984,1,0.38514,-0.37891,0.4902,1.0547,0.94028
14.992,1,0.40762,-0.45898,0.44902,1.0898,1.1944
15,1,0.43109,-0.46875,0.43529,1.0938,1.6264
15.008,1,0.45455,-0.21875,0.4549,0.91992,2.1855
15.016,1,0.47703,-0.0097656,0.44902,0.76953,2.8208
15.024,1,0.49853,0.085938,0.4451,0.70898,3.3799
15.032,1,0.51906,0.15039,0.4549,0.66406,3.939
15.04,1,0.53763,0.2207,0.5,0.59961,4.3202
15.048,1,0.55327,0.20508,0.52549,0.5957,4.6252
15.056,1,0.56794,0.24023,0.51961,0.60938,4.7522
15.064,1,0.57869,0.25,0.52941,0.58008,4.8285
15.072,1,0.58651,0.26953,0.53529,0.55078,4.8285
15.08,1,0.59042,0.29102,0.5549,0.5293,4.8285
15.088,1,0.59433,0.24023,0.53922,0.58398,4.8285
15.096,1,0.59629,0.21094,0.52549,0.60938,4.9301
15.104,1,0.59629,0.26562,0.52549,0.56055,5.1842
15.112,1,0.59531,0.27539,0.52941,0.54492,5.5146
15.12,1,0.59238,0.2793,0.52941,0.55078,5.8196
15.128,1,0.58749,0.25586,0.53529,0.55469,5.8196
15.136,1,0.58162,0.31055,0.52941,0.50977,5.5654
15.144,1,0.57478,0.32031,0.53922,0.50586,5.0572
15.152,1,0.56598,0.31055,0.52549,0.51562,4.5743
15.16,1,0.55621,0.33008,0.52549,0.49414,4.3202
15.168,1,0.54448,0.38086,0.53922,0.44922,4.4473
15.176,1,0.53372,0.36523,0.5451,0.44531,4.7522
15.184,1,0.52297,0.40039,0.5549,0.4707,5.0064
15.192,1,0.49658,0.43555,0.57451,0.42578,4.8793
15.2,1,0.46432,0.41992,0.57451,0.43945,4.371
15.208,1,0.44282,0.4707,0.57451,0.41992,3.507
15.216,1,0.4262,0.49023,0.5902,0.4043,2.4396
15.224,1,0.41349,0.50977,0.6,0.40039,1.4994
15.232,1,0.40371,0.49023,0.60588,0.41602,0.76239
15.24,1,0.39492,0.50977,0.61961,0.4043,0.43202
15.248,1,0.3871,0.47461,0.62549,0.43555,0.50826
15.256,1,0.38025,0.44531,0.61961,0.46484,0.94028
15.264,1,0.37439,0.38477,0.61569,0.50977,1.4485
15.272,1,0.37048,0.3457,0.61569,0.53906,1.8297
15.28,1,0.36755,0.31055,0.6,0.56445,2.0584
15.288,1,0.36364,0.29492,0.59608,0.57031,2.0584
15.296,1,0.3607,0.25586,0.58431,0.60547,2.1347
15.304,1,0.35777,0.24609,0.5902,0.61523,2.2618
15.312,1,0.35484,0.2207,0.57059,0.63477,2.4396
15.32,1,0.35288,0.23438,0.57451,0.61914,2.6938
15.328,1,0.34995,0.20508,0.57451,0.64062,2.8717
15.336,1,0.34702,0.20508,0.56471,0.64453,3.1258
15.344,1,0.34311,0.21484,0.56078,0.65039,3.4307
15.352,1,0.34018,0.24609,0.57059,0.60938,3.8882
15.36,1,0.33627,0.24023,0.56078,0.625,4.244
15.368,1,0.33236,0.22461,0.56471,0.61914,4.4981
15.376,1,0.3304,0.17969,0.57059,0.66016,4.5743
15.384,1,0.32845,0.21094,0.57059,0.64062,4.4981
15.392,1,0.32747,0.21484,0.5549,0.63477,4.371
15.4,1,0.32649,0.16992,0.56078,0.67969,4.371
15.408,1,0.32551,0.20117,0.57059,0.6543,4.4473
15.416,1,0.32454,0.24023,0.56078,0.60938,4.4981
15.424,1,0.32356,0.25,0.5902,0.66016,4.5743
15.432,1,0.32258,0.18945,0.55098,0.67578,4.6252
15.44,1,0.32063,0.20117,0.58039,0.66016,4.6252
15.448,1,0.31867,0.18555,0.56078,0.64453,4.6252
15.456,1,0.31769,0.20117,0.5549,0.63477,4.7522
15.464,1,0.31672,0.17969,0.55098,0.6543,4.8793
15.472,1,0.31574,0.20508,0.56471,0.64062,5.0572
15.48,1,0.31672,0.20117,0.5549,0.64453,5.1842
15.488,1,0.31672,0.18945,0.5451,0.66016,5.3113
15.496,1,0.31965,0.17969,0.56078,0.66992,5.3875
15.504,1,0.32258,0.21094,0.56471,0.64453,5.4384
15.512,1,0.32747,0.20508,0.57059,0.62891,5.3875
15.52,1,0.33236,0.23047,0.57451,0.61523,5.1842
15.528,1,0.3392,0.17969,0.56078,0.66016,4.9301
15.536,1,0.34702,0.21484,0.56471,0.64062,4.7014
15.544,1,0.35582,0.20117,0.5549,0.6543,4.4981
15.552,1,0.36461,0.24023,0.56471,0.625,4.371
15.56,1,0.37243,0.25,0.57451,0.61523,4.371
15.568,1,0.37928,0.25586,0.57059,0.60547,4.4981
15.576,1,0.38612,0.23047,0.57451,0.625,4.7014
15.584,1,0.39198,0.25,0.57059,0.60938,4.8793
15.592,1,0.39687,0.26562,0.56471,0.59961,5.0064
15.6,1,0.39883,0.26953,0.5549,0.58984,5.1334
15.608,1,0.3998,0.23047,0.53922,0.61914,5.1842
15.616,1,0.3998,0.25,0.55098,0.60547,5.3113
15.624,1,0.39785,0.29492,0.5549,0.57031,5.4384
15.632,1,0.39492,0.29102,0.55098,0.57422,5.5654
15.64,1,0.39101,0.25977,0.5451,0.5957,5.6925
15.648,1,0.38514,0.21484,0.53922,0.63477,5.8704
15.656,1,0.37928,0.21484,0.5549,0.64062,6.0737
15.664,1,0.37243,0.19531,0.56078,0.65039,6.2516
15.672,1,0.36755,0.20508,0.57059,0.64062,6.4295
15.68,1,0.36266,0.18945,0.57451,0.64453,6.5565
15.688,1,0.35777,0.20508,0.58039,0.64062,6.6836
15.696,1,0.35191,0.17969,0.57059,0.6543,6.8107
15.704,1,0.348,0.19531,0.56078,0.64453,7.014
15.712,1,0.34409,0.20117,0.57451,0.64453,7.141
15.72,1,0.34018,0.19531,0.57059,0.65039,7.2427
15.728,1,0.33627,0.22461,0.60588,0.61523,7.446
15.736,1,0.33236,0.33008,0.56078,0.55469,7.751
15.744,1,0.32845,0.49023,0.39412,0.44922,8.0559
15.752,1,0.32551,0.86914,0.17451,0.18945,8.4371
15.76,1,0.32063,1.2734,0.07451,-0.080078,8.8183
15.768,1,0.31672,1.5,-0.12157,-0.33398,9.1995
15.776,1,0.31281,1.5,-0.46275,-0.36328,9.5553
15.784,1,0.30987,0.94922,-0.15686,0.18555,9.7586
15.792,1,0.30596,0.30078,0.3098,0.57031,9.6315
15.8,1,0.30205,0.019531,0.5549,0.73047,9.1995
15.808,1,0.29717,-0.035156,0.66078,0.76953,8.5642
15.816,1,0.29228,-0.025391,0.6902,0.77539,7.878
15.824,1,0.28739,-0.0039062,0.7098,0.76562,7.2427
15.832,1,0.2825,0.0097656,0.70588,0.75391,6.8107
15.84,1,0.27761,0.03125,0.7098,0.73438,6.5565
15.848,1,0.2737,-0.013672,0.7,0.7793,6.5565
15.856,1,0.26979,0.0097656,0.7,0.75977,6.6836
15.864,0.99707,0.26686,-0.0097656,0.69608,0.77539,6.9377
15.872,0.99316,0.26491,0.015625,0.71569,0.75391,7.3189
15.88,0.98045,0.26393,0,0.68627,0.76562,7.751
15.888,0.96872,0.26295,0.035156,0.71569,0.74023,8.0559
15.896,0.95406,0.26295,0.044922,0.71569,0.72461,8.3863
15.904,0.94037,0.26295,0.064453,0.7098,0.71484,8.5642
15.912,0.92375,0.26295,0.0097656,0.70588,0.75977,8.7421
15.92,0.90714,0.26393,0.064453,0.72157,0.70898,8.9962
15.928,0.88856,0.26588,0.019531,0.7,0.75977,9.1995
15.936,0.86999,0.26882,0.041016,0.71569,0.74023,9.3266
15.944,0.85044,0.27273,0.041016,0.72549,0.74023,9.2503
15.952,0.82991,0.27761,0.050781,0.72549,0.72461,9.1233
15.96,0.81036,0.28348,0.064453,0.74118,0.70898,8.8691
15.968,0.79081,0.28837,0.041016,0.73529,0.73047,8.5642
15.976,0.77126,0.29228,0.041016,0.75098,0.74023,8.31
15.984,0.75171,0.29619,0.025391,0.7549,0.73438,7.9543
15.992,0.72923,0.3001,0.0058594,0.76078,0.75,7.5731
16,0.70772,0.30401,-0.013672,0.77059,0.75391,7.2427
16.008,0.68328,0.30792,0,0.76078,0.75,7.141
16.016,0.65885,0.31085,-0.048828,0.76078,0.7793,7.141
16.024,0.63539,0.31281,-0.029297,0.7451,0.77539,7.2427
16.032,0.61193,0.31574,-0.099609,0.71569,0.81445,7.446
16.04,0.58944,0.31769,-0.070312,0.71569,0.79492,7.6239
16.048,0.56598,0.32063,-0.099609,0.7,0.80469,7.878
16.056,0.54154,0.32356,-0.044922,0.68627,0.76562,8.0051
16.064,0.51613,0.32649,-0.048828,0.6451,0.77539,8.0051
16.072,0.48778,0.32942,0.015625,0.62941,0.73047,8.0051
16.08,0.46041,0.33333,0.054688,0.61569,0.70508,7.878
16.088,0.43011,0.33627,0.12109,0.58039,0.67578,7.7001
16.096,0.3998,0.34018,0.12109,0.56078,0.66992,7.5731
16.104,0.36852,0.34409,0.17578,0.53922,0.64062,7.4968
16.112,0.33627,0.34702,0.18555,0.5451,0.64453,7.3698
16.12,0.30792,0.35093,0.21094,0.5549,0.61914,7.3189
16.128,0.27957,0.35386,0.23047,0.51961,0.625,7.3189
16.136,0.25415,0.35777,0.26562,0.53529,0.5957,7.3698
16.144,0.22874,0.36168,0.2207,0.52549,0.61914,7.4968
16.152,0.20332,0.36364,0.22461,0.5098,0.625,7.6239
16.16,0.17791,0.36559,0.20508,0.52941,0.62891,7.751
16.168,0.15249,0.36657,0.20117,0.5451,0.63477,7.878
16.176,0.12708,0.36755,0.25586,0.55098,0.5957,8.0051
16.184,0.10557,0.36852,0.22461,0.53529,0.61523,8.1321
16.192,0.084066,0.36852,0.20508,0.55098,0.62891,8.183
16.2,0.065494,0.3695,0.21484,0.5451,0.61914,8.183
16.208,0.046921,0.3695,0.18555,0.55098,0.64453,8.183
16.216,0.030303,0.36852,0.20508,0.55098,0.625,8.31
16.224,0.013685,0.36852,0.21094,0.5549,0.61914,8.6404
16.232,0.0068426,0.36755,0.20508,0.53922,0.61523,9.1233
16.24,0,0.36755,0.23438,0.53529,0.60547,9.7586
16.248,0,0.36755,0.2207,0.5451,0.61523,10.368
16.256,0,0.3695,0.26562,0.5451,0.58984,10.826
16.264,0,0.37537,0.25586,0.5549,0.58008,11.004
16.272,0,0.38319,0.29492,0.55098,0.56445,11.004
16.28,0,0.39296,0.30469,0.5549,0.55469,10.826
16.288,0,0.40762,0.25977,0.55098,0.58984,10.572
16.296,0,0.4262,0.26953,0.52549,0.58398,10.318
16.304,0,0.44868,0.2793,0.5098,0.57031,10.064
16.312,0,0.47312,0.25,0.51961,0.5957,10.013
16.32,0,0.49853,0.31055,0.52549,0.55078,10.14
16.328,0,0.5259,0.3457,0.52941,0.51953,10.241
16.336,0,0.55132,0.33008,0.53529,0.5293,10.445
16.344,0,0.57576,0.27539,0.51961,0.57422,10.623
16.352,0,0.59824,0.25977,0.52549,0.58984,10.699
16.36,0,0.61877,0.23438,0.52941,0.61523,10.623
16.368,0,0.63539,0.21094,0.52549,0.63477,10.572
16.376,0,0.64809,0.20117,0.53922,0.64062,10.496
16.384,0,0.66178,0.18945,0.52549,0.62891,10.496
16.392,0,0.67351,0.23047,0.52549,0.61914,10.572
16.4,0,0.68524,0.22461,0.53529,0.625,10.699
16.408,0,0.69501,0.24609,0.5451,0.60938,10.953
16.416,0,0.70381,0.20508,0.55098,0.625,11.436
16.424,0,0.71065,0.23438,0.5451,0.61523,11.995
16.432,0,0.71652,0.28516,0.56078,0.57422,12.63
16.44,0,0.72043,0.49023,0.47059,0.43555,13.266
16.448,0,0.72239,0.81055,0.2549,0.2207,13.748
16.456,0,0.72239,1.1641,0.16471,-0.0097656,14.13
16.464,0,0.72141,1.5,0.017647,-0.30859,14.307
16.472,0,0.71848,1.5,-0.38824,-0.4082,14.307
16.48,0,0.71359,1.1992,-0.47255,0.035156,14.13
16.488,0,0.70772,0.55469,0.13922,0.41602,13.698
16.496,0,0.6999,0.060547,0.48039,0.70898,13.062
16.504,0,0.6911,0.025391,0.6098,0.73047,12.452
16.512,0,0.68133,-0.0039062,0.65098,0.75391,11.995
16.52,0,0.67058,0.015625,0.67059,0.75,11.766
16.528,0,0.65982,0,0.68627,0.76562,11.69
16.536,0,0.64907,0.054688,0.6902,0.73047,11.69
16.544,0,0.63832,0.025391,0.68039,0.75391,11.766
16.552,0,0.62757,0.041016,0.68627,0.74023,11.868
16.56,0,0.61779,0.035156,0.6902,0.75,11.995
16.568,0.0029325,0.60802,0.041016,0.68627,0.74023,12.122
16.576,0.0058651,0.59922,0.050781,0.6902,0.73047,12.249
16.584,0.010753,0.5914,0.041016,0.67647,0.73438,12.376
16.592,0.01564,0.58358,0.060547,0.6902,0.72461,12.452
16.6,0.01955,0.57674,0.070312,0.68627,0.7207,12.63
16.608,0.024438,0.57087,0.060547,0.7,0.72461,12.808
16.616,0.028348,0.56403,0.095703,0.71569,0.68945,13.139
16.624,0.032258,0.55816,0.11133,0.71569,0.67969,13.316
16.632,0.035191,0.5523,0.054688,0.72549,0.72461,13.494
16.64,0.039101,0.54741,0.085938,0.72157,0.70508,13.621
16.648,0.042033,0.54252,0.041016,0.71569,0.74414,13.698
16.656,0.043988,0.53861,0.089844,0.73137,0.70898,13.698
16.664,0.046921,0.53568,0.060547,0.73529,0.73047,13.494
16.672,0.049853,0.53275,0.085938,0.7451,0.71484,13.189
16.68,0.052786,0.52981,0.044922,0.74118,0.74023,12.808
16.688,0.054741,0.52786,0.064453,0.76078,0.72461,12.503
16.696,0.057674,0.52493,0.044922,0.76078,0.72461,12.198
16.704,0.060606,0.52102,0.064453,0.75098,0.7207,11.868
16.712,0.063539,0.51711,0.0058594,0.7549,0.74414,11.766
16.72,0.066471,0.5132,0.03125,0.7451,0.73047,11.69
16.728,0.068426,0.50929,0.015625,0.73529,0.74023,11.817
16.736,0.070381,0.50538,0.054688,0.7098,0.70508,11.944
16.744,0.072336,0.50244,-0.0039062,0.67059,0.75391,12.122
16.752,0.074291,0.49853,0.054688,0.6549,0.71484,12.376
16.76,0.075269,0.49462,0.070312,0.64118,0.70508,12.554
16.768,0.076246,0.49169,0.13477,0.61961,0.66016,12.757
16.776,0.075269,0.48876,0.19531,0.56471,0.61914,12.884
16.784,0.075269,0.48485,0.25,0.52941,0.57422,12.935
16.792,0.073314,0.48192,0.25586,0.51961,0.62891,12.935
16.8,0.070381,0.47801,0.20117,0.53529,0.61914,12.884
16.808,0.066471,0.47605,0.17969,0.53529,0.6543,12.757
16.816,0.061584,0.47312,0.18945,0.52941,0.66016,12.63
16.824,0.057674,0.47214,0.20508,0.53922,0.64453,12.503
16.832,0.052786,0.47116,0.17578,0.53529,0.6543,12.325
16.84,0.048876,0.47019,0.23438,0.52549,0.61523,12.122
16.848,0.043988,0.46921,0.18945,0.51961,0.65039,12.071
16.856,0.038123,0.46823,0.20508,0.55098,0.63477,12.071
16.864,0.032258,0.46725,0.2207,0.53922,0.625,12.122
16.872,0.024438,0.46628,0.24609,0.56471,0.59961,12.198
16.88,0.016618,0.46432,0.18555,0.56078,0.6543,12.325
16.888,0.0097752,0.46237,0.19531,0.56471,0.64453,12.452
16.896,0.001955,0.46041,0.15625,0.5451,0.67969,12.63
16.904,0.00097752,0.45846,0.19531,0.53529,0.64062,12.808
16.912,0,0.4565,0.22461,0.57451,0.625,13.189
16.92,0,0.45357,0.41602,0.51961,0.49414,13.698
16.928,0,0.45161,0.68945,0.31373,0.31055,14.511
16.936,0,0.44966,1.0547,0.18824,0.060547,15.578
16.944,0,0.44868,1.4785,0.098039,-0.22461,16.747
16.952,0,0.44966,1.5,-0.22745,-0.38477,17.687
16.96,0,0.45259,1.4082,-0.42745,-0.089844,18.119
16.968,0,0.4565,0.81445,-0.0058823,0.27539,17.891
16.976,0,0.46237,0.16992,0.42549,0.66016,17.078
16.984,0,0.47116,0.035156,0.59608,0.72461,15.807
16.992,0,0.48289,0.0058594,0.67059,0.75391,14.511
17,0,0.49756,0.035156,0.68039,0.75,13.316
17.008,0,0.51417,0.041016,0.68627,0.75391,12.554
17.016,0,0.53275,0.035156,0.67647,0.74023,12.249
17.024,0,0.5523,0.054688,0.6902,0.74414,12.325
17.032,0,0.57087,0.076172,0.68627,0.7207,12.757
17.04,0,0.58847,0.064453,0.6902,0.71484,13.189
17.048,0,0.60508,0.095703,0.68627,0.73047,13.571
17.056,0,0.62072,0.044922,0.6902,0.72461,13.875
17.064,0,0.63539,0.03125,0.6902,0.75391,13.952
17.072,0,0.64712,0.060547,0.6902,0.73047,13.825
17.08,0.0029325,0.65494,0.041016,0.68627,0.75,13.621
17.088,0.0058651,0.66373,0.085938,0.70588,0.71484,13.494
17.096,0.010753,0.67253,0.064453,0.7098,0.73438,13.494
17.104,0.016618,0.67937,0.070312,0.7,0.72461,13.621
17.112,0.02346,0.68622,0.076172,0.71569,0.71484,13.875
17.12,0.030303,0.6911,0.095703,0.73529,0.70898,14.257
17.128,0.037146,0.69404,0.089844,0.75098,0.69922,14.765
17.136,0.043988,0.69599,0.080078,0.75098,0.72461,15.324
17.144,0.051808,0.69599,0.060547,0.76078,0.73438,15.68
17.152,0.058651,0.69599,0.076172,0.77647,0.71484,15.883
17.16,0.066471,0.69306,0.050781,0.78627,0.73438,15.756
17.168,0.073314,0.68915,0.041016,0.78627,0.74023,15.502
17.176,0.081134,0.68524,0.054688,0.79608,0.73047,15.121
17.184,0.088954,0.67937,0.041016,0.77647,0.74023,14.765
17.192,0.096774,0.67351,0.044922,0.76078,0.73438,14.384
17.2,0.10459,0.66667,0.03125,0.76078,0.74414,14.053
17.208,0.11144,0.65982,0.064453,0.7451,0.71484,13.825
17.216,0.11828,0.652,0.080078,0.71569,0.7207,13.698
17.224,0.12414,0.64223,0.095703,0.68039,0.70508,13.698
17.232,0.13099,0.63245,0.14062,0.64118,0.67969,13.698
17.24,0.1349,0.62366,0.16016,0.61961,0.66016,13.621
17.248,0.13978,0.61388,0.17969,0.6,0.6543,13.443
17.256,0.14272,0.60508,0.20508,0.58431,0.64062,13.189
17.264,0.14565,0.59629,0.21094,0.57451,0.63477,12.808
17.272,0.14663,0.58847,0.23047,0.57059,0.61914,12.452
17.28,0.14663,0.58162,0.24023,0.57451,0.60938,11.995
17.288,0.14565,0.57576,0.2207,0.56471,0.64453,11.512
17.296,0.14467,0.56989,0.23047,0.55098,0.61914,10.877
17.304,0.14174,0.565,0.21094,0.56078,0.64062,10.191
17.312,0.13978,0.55914,0.18945,0.57451,0.6543,9.3774
17.32,0.13685,0.55523,0.26562,0.58039,0.5957,8.3863
17.328,0.13294,0.55132,0.20508,0.57059,0.65039,7.2427
17.336,0.12805,0.54839,0.19531,0.57059,0.66016,5.9975
17.344,0.12317,0.54643,0.20508,0.57451,0.6543,4.6252
17.352,0.11632,0.5435,0.22461,0.57059,0.64453,3.4307
17.36,0.11046,0.54057,0.20508,0.57451,0.65039,2.5159
17.368,0.10459,0.53763,0.19531,0.57451,0.6543,1.9314
17.376,0.098729,0.53372,0.2207,0.57059,0.64453,1.8297
17.384,0.092864,0.52981,0.23047,0.57451,0.63477,2.0584
17.392,0.087977,0.52493,0.21484,0.57451,0.64062,2.6175
17.4,0.083089,0.52102,0.23438,0.57451,0.63477,3.3799
17.408,0.079179,0.51808,0.25,0.57059,0.64453,4.0661
17.416,0.076246,0.51515,0.22461,0.56471,0.625,4.5743
17.424,0.073314,0.51222,0.25,0.57451,0.61523,4.8285
17.432,0.072336,0.51026,0.23438,0.56471,0.63477,4.7014
17.44,0.071359,0.50929,0.26562,0.57451,0.61523,4.1931
17.448,0.072336,0.50831,0.24023,0.57451,0.62891,3.3799
17.456,0.073314,0.51026,0.23438,0.56471,0.64062,2.3126
17.464,0.075269,0.51417,0.25586,0.57059,0.61914,1.2452
17.472,0.077224,0.51808,0.25977,0.57059,0.625,0.30496
17.48,0.080156,0.52395,0.24609,0.58039,0.62891,-0.30496
17.488,0.084066,0.53177,0.26953,0.57451,0.61523,-0.38119
17.496,0.089932,0.54252,0.29102,0.57451,0.58984,-0.050826
17.504,0.095797,0.55327,0.24023,0.57059,0.64062,0.63532
17.512,0.10264,0.565,0.21484,0.57451,0.66016,1.4994
17.52,0.11046,0.57771,0.27539,0.57059,0.60938,2.4396
17.528,0.11926,0.59042,0.24609,0.57059,0.62891,3.2529
17.536,0.12903,0.60215,0.25,0.56471,0.63477,3.7611
17.544,0.13881,0.6129,0.25586,0.58039,0.61914,3.939
17.552,0.14858,0.6217,0.27539,0.56471,0.61523,3.8882
17.56,0.15738,0.62952,0.23047,0.57451,0.64062,3.7611
17.568,0.16716,0.63441,0.25977,0.57451,0.61523,3.507
17.576,0.17595,0.63636,0.26953,0.57451,0.625,3.1258
17.584,0.18475,0.6393,0.25,0.57451,0.62891,2.6175
17.592,0.19355,0.64027,0.25586,0.57451,0.61523,2.1347
17.6,0.20137,0.6393,0.23047,0.57451,0.63477,1.8297
17.608,0.20919,0.63734,0.26562,0.57451,0.61523,1.7027
17.616,0.21799,0.63245,0.25,0.56471,0.625,1.8297
17.624,0.22385,0.62659,0.24023,0.6,0.61523,2.1855
17.632,0.23069,0.61877,0.29102,0.59608,0.5957,2.6938
17.64,0.2346,0.60997,0.31055,0.5902,0.58398,3.075
17.648,0.23949,0.59922,0.26562,0.59608,0.60547,3.4307
17.656,0.2434,0.58749,0.25977,0.60588,0.59961,3.6849
17.664,0.24731,0.5738,0.29492,0.57451,0.58984,3.8119
17.672,0.25024,0.56207,0.30078,0.56471,0.58984,3.8119
17.68,0.2522,0.55034,0.25977,0.57059,0.60547,3.6849
17.688,0.25415,0.53666,0.29102,0.58039,0.58984,3.4307
17.696,0.25611,0.52297,0.33594,0.57451,0.55469,3.1258
17.704,0.25611,0.50929,0.3457,0.57059,0.54492,2.9479
17.712,0.25709,0.49658,0.25977,0.57451,0.60547,2.9479
17.72,0.25709,0.48387,0.26562,0.57451,0.61523,2.9987
17.728,0.25806,0.47214,0.23047,0.58039,0.64062,3.1258
17.736,0.25806,0.46041,0.22461,0.57451,0.64062,3.3291
17.744,0.25904,0.44966,0.19531,0.59608,0.6543,3.5578
17.752,0.26002,0.43988,0.24023,0.6,0.62891,3.7611
17.76,0.26197,0.43109,0.24609,0.5902,0.63477,3.939
17.768,0.26393,0.42424,0.23047,0.59608,0.62891,4.1931
17.776,0.26588,0.41838,0.21484,0.60588,0.64062,4.371
17.784,0.26882,0.41251,0.23438,0.6,0.62891,4.7014
17.792,0.27175,0.40762,0.24609,0.59608,0.64062,5.0064
17.8,0.27468,0.40274,0.23047,0.6,0.625,5.3875
17.808,0.27859,0.39883,0.2793,0.61569,0.60547,5.7433
17.816,0.28348,0.39394,0.44531,0.52549,0.49023,5.9466
17.824,0.28837,0.38905,0.76953,0.32353,0.2793,5.9466
17.832,0.29423,0.38514,1.125,0.13333,0.041016,5.7433
17.84,0.3001,0.38025,1.5,-0.041176,-0.29883,5.5654
17.848,0.3089,0.37732,1.5,-0.42353,-0.42383,5.2605
17.856,0.31769,0.37439,1.3691,-0.50196,-0.035156,4.8793
17.864,0.32747,0.37146,0.59961,0.13333,0.41602,4.371
17.872,0.33724,0.3695,0.095703,0.52941,0.70898,3.8119
17.88,0.34702,0.36755,-0.0039062,0.66471,0.76953,3.202
17.888,0.35679,0.36559,-0.0097656,0.72549,0.7793,2.6175
17.896,0.36657,0.36266,-0.013672,0.7451,0.76562,2.3888
17.904,0.37634,0.35875,0.015625,0.74118,0.77539,2.3888
17.912,0.3871,0.35582,0.0058594,0.74118,0.7793,2.7446
17.92,0.39785,0.35288,0.0097656,0.7451,0.76953,3.3291
17.928,0.40958,0.34897,0.019531,0.74118,0.76562,3.8882
17.936,0.42131,0.34506,0.035156,0.74118,0.75977,4.244
17.944,0.43304,0.34213,0.015625,0.74118,0.76562,4.244
17.952,0.44379,0.3392,0.0097656,0.7451,0.76953,4.0152
17.96,0.45357,0.33529,0.044922,0.74118,0.74414,3.6341
17.968,0.46432,0.33333,0.054688,0.74118,0.74023,3.4307
17.976,0.4741,0.33138,0.041016,0.74118,0.74414,3.3291
17.984,0.48387,0.32942,0.044922,0.76078,0.75,3.3799
17.992,0.49365,0.32649,0.064453,0.7549,0.73438,3.6341
18,0.50342,0.32356,0.060547,0.75098,0.73047,4.0152
18.008,0.51222,0.32063,0.080078,0.76078,0.72461,4.371
18.016,0.52102,0.31769,0.054688,0.76078,0.74023,4.5743
18.024,0.52981,0.31476,0.070312,0.77059,0.73047,4.244
18.032,0.53861,0.31183,0.080078,0.76667,0.72461,2.9987
18.04,0.54545,0.3089,0.089844,0.78039,0.7207,1.0165
18.048,0.55327,0.30596,0.060547,0.7902,0.73047,-1.2961
18.056,0.56012,0.30401,0.089844,0.78627,0.71484,-1.9822
18.064,0.56696,0.30108,0.064453,0.78627,0.73047,-1.9822
18.072,0.57478,0.3001,0.054688,0.7902,0.72461,-1.9822
18.08,0.5826,0.29912,0.019531,0.78627,0.75391,-1.9822
18.088,0.5914,0.29814,0.025391,0.78627,0.74414,-1.9822
18.096,0.6002,0.29717,-0.0039062,0.78039,0.76953,-1.7535
18.104,0.60802,0.29619,-0.029297,0.77059,0.7793,-0.81321
18.112,0.61681,0.29521,-0.048828,0.76078,0.78906,-0.050826
18.12,0.62463,0.29423,-0.029297,0.7451,0.76953,0.43202
18.128,0.63245,0.29228,-0.035156,0.72549,0.7793,0.63532
18.136,0.64223,0.2913,-0.029297,0.6902,0.7793,0.55909
18.144,0.652,0.29032,-0.039062,0.68627,0.7793,0.25413
18.152,0.66373,0.28935,0.019531,0.6549,0.75,-0.17789
18.16,0.67449,0.28837,0.060547,0.61961,0.72461,-0.55909
18.168,0.68524,0.28837,0.11133,0.6098,0.69531,-0.81321
18.176,0.69599,0.28837,0.13477,0.58431,0.68555,-0.73698
18.184,0.70674,0.28739,0.17578,0.57451,0.66016,-0.43202
18.192,0.71652,0.28739,0.21094,0.56078,0.64062,-0.050826
18.2,0.72532,0.28641,0.23047,0.5549,0.63477,0.30496
18.208,0.73314,0.28641,0.21484,0.56471,0.64062,0.63532
18.216,0.73998,0.28641,0.21094,0.57451,0.63477,0.88945
18.224,0.74682,0.28641,0.26562,0.56078,0.61523,1.2452
18.232,0.75171,0.28641,0.25586,0.56471,0.60938,1.6264
18.24,0.75758,0.28543,0.26562,0.56078,0.625,1.8806
18.248,0.76149,0.28543,0.2207,0.58039,0.64062,2.0076
18.256,0.76637,0.28543,0.25977,0.58431,0.61523,2.0076
18.264,0.76833,0.28543,0.24023,0.57451,0.625,2.0076
18.272,0.77126,0.28543,0.23438,0.58431,0.61914,2.1347
18.28,0.77224,0.28543,0.22461,0.5902,0.63477,2.2618
18.288,0.77322,0.28446,0.25977,0.58431,0.61523,2.4396
18.296,0.77322,0.28348,0.23438,0.5902,0.61914,2.6938
18.304,0.77322,0.28348,0.25977,0.5902,0.60938,3.1258
18.312,0.77322,0.2825,0.25,0.59608,0.61523,3.6341
18.32,0.77224,0.28348,0.30078,0.5902,0.58398,4.0661
18.328,0.77126,0.28543,0.30078,0.59608,0.58984,4.1169
18.336,0.77028,0.28935,0.29492,0.5902,0.58008,3.8119
18.344,0.76931,0.29619,0.31445,0.59608,0.58984,3.202
18.352,0.76833,0.30596,0.33008,0.58039,0.56055,2.3888
18.36,0.76735,0.31965,0.32031,0.57059,0.57031,1.4994
18.368,0.76637,0.33333,0.33008,0.55098,0.55469,0.63532
18.376,0.76637,0.34995,0.30469,0.5451,0.57422,-0.050826
18.384,0.7654,0.37048,0.33984,0.55098,0.55469,-0.48285
18.392,0.76637,0.39394,0.35938,0.55098,0.54492,-0.55909
18.4,0.76833,0.41935,0.33984,0.53922,0.55078,-0.25413
18.408,0.77126,0.44477,0.29492,0.53922,0.58008,0.30496
18.416,0.77419,0.46921,0.27539,0.55098,0.60547,1.0673
18.424,0.7781,0.49267,0.30078,0.56471,0.58008,1.8297
18.432,0.78201,0.51515,0.25586,0.56471,0.61523,2.5159
18.44,0.7869,0.53568,0.24023,0.56471,0.64062,3.075
18.448,0.79179,0.55425,0.25586,0.5549,0.625,3.4307
18.456,0.79863,0.56989,0.26953,0.57059,0.60938,3.7611
18.464,0.80547,0.58162,0.25977,0.57451,0.59961,4.0152
18.472,0.81525,0.59042,0.26562,0.57451,0.61523,4.371
18.48,0.82405,0.59922,0.23047,0.56471,0.63477,4.7522
18.488,0.83578,0.60802,0.25586,0.56078,0.61523,5.1334
18.496,0.84751,0.61486,0.2793,0.57059,0.625,5.3113
18.504,0.86022,0.61975,0.43945,0.5098,0.49023,5.3875
18.512,0.87292,0.62268,0.73438,0.30392,0.30469,5.2605
18.52,0.88465,0.62463,1.2051,0.11961,-0.0039062,5.1334
18.528,0.89541,0.62366,1.5,-0.05098,-0.31836,5.0572
18.536,0.90616,0.62268,1.5,-0.38824,-0.43945,5.0572
18.544,0.91593,0.61975,1.3047,-0.50196,0.0058594,4.9301
18.552,0.92571,0.61584,0.65039,0.078431,0.39062,4.6252
18.56,0.93451,0.60997,0.15039,0.4902,0.66406,4.1931
18.568,0.94233,0.60313,0.070312,0.6549,0.69922,3.6849
18.576,0.95112,0.59531,0.019531,0.7098,0.75391,3.202
18.584,0.95797,0.58651,0.0097656,0.69608,0.76953,2.8717
18.592,0.96481,0.57576,0.044922,0.70588,0.75,2.8208
18.6,0.9697,0.56403,0.035156,0.69608,0.75391,3.075
18.608,0.97556,0.55034,0.03125,0.71569,0.75391,3.507
18.616,0.97947,0.53763,0.060547,0.70588,0.73438,4.1169
18.624,0.98338,0.52493,0.080078,0.7,0.72461,4.6252
18.632,0.98729,0.51222,0.054688,0.70588,0.74414,4.8793
18.64,0.9912,0.49951,0.070312,0.71569,0.73047,4.8285
18.648,0.99609,0.48778,0.085938,0.71569,0.7207,4.5743
18.656,1,0.47605,0.10547,0.7098,0.70898,4.1931
18.664,1,0.46725,0.089844,0.70588,0.71484,3.8119
18.672,1,0.45943,0.099609,0.71569,0.70898,3.5578
18.68,1,0.45064,0.095703,0.72157,0.71484,3.3799
18.688,1,0.44282,0.125,0.71569,0.69531,3.3291
18.696,1,0.43597,0.11133,0.72549,0.70508,3.3799
18.704,1,0.43011,0.125,0.73137,0.69531,3.5578
18.712,1,0.42424,0.12109,0.74118,0.68945,3.6849
18.72,1,0.41838,0.15039,0.75098,0.66992,3.5578
18.728,1,0.41447,0.15625,0.76078,0.66016,2.9987
18.736,1,0.41153,0.11133,0.7549,0.70508,1.8806
18.744,1,0.4086,0.11523,0.7549,0.69531,0.63532
18.752,1,0.40469,0.125,0.76078,0.68555,-0.48285
18.76,1,0.40078,0.089844,0.76078,0.70898,-1.2452
18.768,1,0.39785,0.11133,0.77059,0.69531,-1.4994
18.776,1,0.39492,0.080078,0.76667,0.70898,-1.4231
18.784,1,0.39101,0.070312,0.76078,0.70508,-1.1182
18.792,1,0.38612,0.085938,0.7451,0.70898,-0.68615
18.8,1,0.38221,0.064453,0.73529,0.71484,-0.25413
18.808,1,0.37928,0.044922,0.69608,0.73047,0.2033
18.816,1,0.37537,0.064453,0.68039,0.71484,0.55909
18.824,1,0.37146,0.095703,0.66471,0.68555,0.94028
18.832,1,0.36852,0.085938,0.61961,0.71484,1.1944
18.84,1,0.36559,0.16602,0.61569,0.64062,1.3723
18.848,1,0.36364,0.13477,0.57059,0.68555,1.4485
18.856,1,0.36168,0.16602,0.56078,0.66406,1.3723
18.864,1,0.35973,0.15625,0.55098,0.67578,1.2452
18.872,1,0.35875,0.19531,0.53922,0.65039,1.0165
18.88,1,0.35777,0.20117,0.52549,0.6543,0.81321
18.888,1,0.35582,0.21094,0.55098,0.64062,0.68615
18.896,1,0.35386,0.20117,0.53922,0.64062,0.76239
18.904,1,0.35093,0.20508,0.53922,0.64062,1.0673
18.912,1,0.348,0.19531,0.53922,0.65039,1.4994
18.92,1,0.34506,0.23047,0.5451,0.625,2.1347
18.928,1,0.34213,0.20117,0.55098,0.64062,2.6175
18.936,1,0.3392,0.2207,0.53922,0.64453,3.075
18.944,1,0.33724,0.20117,0.55098,0.63477,3.3799
18.952,1,0.33627,0.22461,0.5549,0.61914,3.6341
18.96,1,0.33529,0.2207,0.56078,0.63477,3.7611
18.968,1,0.33529,0.25586,0.55098,0.60938,3.8119
18.976,1,0.33529,0.29492,0.57059,0.57422,4.0152
18.984,1,0.33529,0.26562,0.56471,0.59961,4.244
18.992,1,0.33529,0.25586,0.57059,0.61523,4.6252
19,1,0.33431,0.25,0.55098,0.5957,4.9301
19.008,1,0.33431,0.30078,0.52549,0.57031,5.2605
19.016,1,0.33431,0.26953,0.51961,0.5957,5.3875
19.024,1,0.33431,0.29492,0.53529,0.58008,5.4384
19.032,1,0.33529,0.29102,0.52549,0.56445,5.3875
19.04,1,0.33822,0.33594,0.52549,0.54492,5.0572
19.048,1,0.34311,0.32031,0.51961,0.55469,4.6252
19.056,1,0.35093,0.2793,0.5098,0.5957,4.1169
19.064,1,0.35875,0.24609,0.51569,0.61914,3.5578
19.072,1,0.3695,0.25,0.52941,0.61523,3.2529
19.08,1,0.38319,0.24023,0.53922,0.61914,3.3291
19.088,1,0.39883,0.25977,0.5451,0.60547,3.6341
19.096,1,0.41544,0.25,0.52941,0.61523,4.1931
19.104,1,0.43304,0.26562,0.5451,0.59961,4.7522
19.112,1,0.45161,0.25586,0.5549,0.60547,5.2605
19.12,1,0.46921,0.25977,0.55098,0.60938,5.8196
19.128,1,0.48583,0.24609,0.5549,0.60547,6.3278
19.136,1,0.50147,0.25977,0.5549,0.58984,6.6836
19.144,1,0.51613,0.25586,0.5549,0.59961,7.014
19.152,1,0.52884,0.46484,0.48039,0.46484,7.1919
19.16,1,0.53959,0.71484,0.25882,0.30469,7.446
19.168,1,0.54741,1.125,0.10392,0.025391,7.7001
19.176,1,0.55327,1.5,-0.011765,-0.28516,8.0559
19.184,1,0.55816,1.5,-0.33333,-0.42383,8.4371
19.192,1,0.56207,1.3242,-0.49804,-0.029297,8.6912
19.2,1,0.565,0.66992,0.07451,0.33984,8.6912
19.208,1,0.56696,0.13477,0.4451,0.66992,8.5133
19.216,1,0.56598,0.019531,0.60588,0.74023,8.0559
19.224,1,0.565,0.03125,0.67647,0.74414,7.4968
19.232,1,0.56109,0.019531,0.68627,0.75,7.014
19.24,1,0.55621,0.044922,0.69608,0.73047,6.6328
19.248,1,0.55034,0.03125,0.6902,0.74414,6.5057
19.256,1,0.54154,0.060547,0.7,0.7207,6.5565
19.264,1,0.53275,0.041016,0.70588,0.73438,6.7598
19.272,1,0.52395,0.054688,0.6902,0.72461,7.0648
19.28,1,0.51417,0.064453,0.69608,0.71484,7.3189
19.288,1,0.51222,0.076172,0.6902,0.70898,7.5731
19.296,1,0.51515,0.044922,0.6902,0.73047,7.7001
19.304,1,0.50733,0.089844,0.70588,0.69922,7.8272
19.312,1,0.4956,0.10547,0.7098,0.68555,7.9543
19.32,1,0.48192,0.076172,0.69608,0.7207,8.0051
19.328,1,0.46628,0.080078,0.6902,0.71484,8.0559
19.336,0.99218,0.45161,0.089844,0.69608,0.70898,8.0559
19.344,0.98436,0.43695,0.085938,0.71569,0.70898,8.1321
19.352,0.96872,0.42424,0.13086,0.71569,0.68555,8.183
19.36,0.95406,0.41251,0.095703,0.73529,0.70508,8.2592
19.368,0.93939,0.40469,0.11133,0.74118,0.68945,8.31
19.376,0.92375,0.39785,0.095703,0.74118,0.69922,8.2592
19.384,0.91007,0.39198,0.089844,0.75098,0.70508,8.183
19.392,0.89638,0.3871,0.076172,0.7549,0.71484,8.0559
19.4,0.88368,0.38416,0.085938,0.76078,0.70508,7.878
19.408,0.87097,0.38123,0.089844,0.7549,0.69922,7.7001
