Time [s], V, RESP, II, AVR, PLETH
0,0.50489,-0.00048864,0.18018,0.62512,2.6686
0.008,0.5,-0.00048864,0.12988,0.65494,2.6237
0.016,0.565,-0.00048864,0.024902,0.72532,2.5758
0.024,0.72532,-0.00048864,0.31494,0.49511,2.523
0.032,0.91544,-0.00048864,1.125,-0.060606,2.4653
0.04,1.1007,-0.00048864,1.5,-0.50049,2.4037
0.048,0.84506,-0.00048864,1.5,-0.4306,2.3382
0.056,0.43011,-0.00048864,1.02,0.094819,2.2688
0.064,0.41984,-0.00048864,0.5752,0.37977,2.1955
0.072,0.56989,-0.00048864,0.36523,0.52493,2.1183
0.08,0.58016,-0.00048864,0.24023,0.60508,2.0401
0.088,0.56989,-0.00048864,0.18506,0.6349,1.9707
0.096,0.565,-0.00048864,0.15527,0.65005,1.9062
0.104,0.56989,-0.00048864,0.13525,0.6652,1.8377
0.112,0.57527,-0.00048864,0.12988,0.6652,1.7703
0.12,0.58016,-0.00048864,0.12988,0.6652,1.7077
0.128,0.58993,-0.00048864,0.13525,0.6652,1.652
0.136,0.6002,-0.00048864,0.14502,0.66031,1.6031
0.144,0.60508,-0.00048864,0.1499,0.65494,1.5611
0.152,0.61486,-0.00048864,0.16016,0.64516,1.5249
0.16,0.62512,0.00048864,0.16992,0.64027,1.4946
0.168,0.63001,0.0017102,0.18018,0.63001,1.4692
0.176,0.64027,0.0048864,0.2002,0.62512,1.4467
0.184,0.65005,0.0080625,0.21484,0.60997,1.4272
0.192,0.66031,0.011239,0.22021,0.60508,1.4125
0.2,0.67498,0.014415,0.24023,0.59531,1.4008
0.208,0.68035,0.017591,0.25,0.58993,1.3871
0.216,0.69013,0.021011,0.27002,0.57527,1.3724
0.224,0.70039,0.024188,0.28027,0.56989,1.3578
0.232,0.71505,0.027608,0.29492,0.565,1.3431
0.24,0.72532,0.030784,0.31982,0.54497,1.3284
0.248,0.73509,0.03396,0.33496,0.54497,1.3148
0.256,0.74536,0.036648,0.35498,0.52493,1.3001
0.264,0.76002,0.039335,0.37012,0.51515,1.2854
0.272,0.77028,0.041534,0.39502,0.5,1.2708
0.28,0.78543,0.043978,0.4248,0.47507,1.2561
0.288,0.79521,0.045688,0.4502,0.46481,1.2454
0.296,0.8001,0.047642,0.47998,0.45015,1.2375
0.304,0.81525,0.049108,0.51514,0.43011,1.2268
0.312,0.81525,0.050818,0.5498,0.41007,1.2151
0.32,0.81036,0.05204,0.58008,0.38514,1.2023
0.328,0.79521,0.053506,0.60498,0.36999,1.1896
0.336,0.77028,0.054483,0.61475,0.3651,1.1779
0.344,0.73509,0.055461,0.58008,0.37977,1.1672
0.352,0.69013,0.054972,0.52002,0.41007,1.1574
0.36,0.64516,0.054483,0.44482,0.45503,1.1486
0.368,0.6002,0.052529,0.36523,0.50489,1.1408
0.376,0.565,0.050574,0.31006,0.54497,1.1329
0.384,0.54497,0.047642,0.26514,0.565,1.1261
0.392,0.52981,0.04471,0.22998,0.59531,1.1232
0.4,0.52004,0.04129,0.20508,0.60997,1.1222
0.408,0.51515,0.03787,0.2002,0.62023,1.1193
0.416,0.52004,0.034693,0.18994,0.62023,1.1173
0.424,0.51515,0.031762,0.18506,0.62512,1.1153
0.432,0.52004,0.029318,0.18994,0.62023,1.1134
0.44,0.51515,0.026875,0.18994,0.62023,1.1114
0.448,0.52493,0.025165,0.18506,0.62023,1.1075
0.456,0.52004,0.023699,0.2002,0.62023,1.1017
0.464,0.52004,0.022966,0.2002,0.62023,1.0929
0.472,0.52493,0.022233,0.20508,0.60997,1.0831
0.48,0.52493,0.022477,0.20508,0.62023,1.0772
0.488,0.52493,0.022722,0.20996,0.60997,1.0802
0.496,0.52493,0.023943,0.20508,0.60997,1.0958
0.504,0.51515,0.025165,0.21484,0.60508,1.1329
0.512,0.52004,0.02883,0.20996,0.60997,1.2004
0.52,0.51515,0.032739,0.20508,0.61486,1.303
0.528,0.51515,0.038358,0.21484,0.60997,1.4399
0.536,0.51515,0.044222,0.2251,0.59531,1.6051
0.544,0.51515,0.051307,0.2251,0.60508,1.7889
0.552,0.51515,0.058637,0.22021,0.60508,1.9795
0.56,0.52004,0.066699,0.22021,0.6002,2.1652
0.568,0.53519,0.075006,0.25488,0.57527,2.3353
0.576,0.56989,0.082824,0.29492,0.565,2.4839
0.584,0.6002,0.090887,0.33496,0.54008,2.608
0.592,0.61486,0.098461,0.35498,0.52493,2.695
0.6,0.62512,0.10628,0.38525,0.49511,2.7556
0.608,0.62023,0.1141,0.41016,0.47507,2.8065
0.616,0.61486,0.12192,0.44482,0.45015,2.8436
0.624,0.58504,0.12973,0.4502,0.44477,2.8671
0.632,0.54497,0.13755,0.35498,0.50489,2.8798
0.64,0.52004,0.14439,0.30029,0.54985,2.8817
0.648,0.5,0.15123,0.22998,0.59531,2.8739
0.656,0.49511,0.15759,0.19531,0.62023,2.8583
0.664,0.48485,0.16394,0.17529,0.6349,2.8358
0.672,0.48485,0.17078,0.17529,0.63001,2.8084
0.68,0.48485,0.17786,0.17529,0.63001,2.7761
0.688,0.48485,0.18568,0.18506,0.62512,2.7419
0.696,0.49022,0.1935,0.18018,0.62512,2.7048
0.704,0.5,0.20205,0.18506,0.63001,2.6637
0.712,0.5,0.2106,0.18506,0.62512,2.6197
0.72,0.50978,0.21989,0.16992,0.6349,2.5718
0.728,0.5,0.22917,0.090332,0.69013,2.521
0.736,0.62023,0.2387,0.024902,0.73021,2.4663
0.744,0.84506,0.24823,0.56494,0.30987,2.4076
0.752,1.0205,0.258,1.4648,-0.27566,2.3441
0.76,1.0806,0.26802,1.5,-0.50049,2.2766
0.768,0.58016,0.28048,1.4648,-0.17546,2.2053
0.776,0.37977,0.29294,0.75,0.26002,2.129
0.784,0.5,0.30711,0.45508,0.45503,2.0499
0.792,0.56012,0.32152,0.28516,0.56012,1.9785
0.8,0.55523,0.33496,0.21484,0.61486,1.912
0.808,0.55523,0.3484,0.16992,0.64027,1.8407
0.816,0.56012,0.36135,0.1499,0.65494,1.7713
0.824,0.565,0.37454,0.14014,0.66031,1.7058
0.832,0.57527,0.38969,0.12988,0.6652,1.6461
0.84,0.57527,0.40508,0.125,0.67009,1.5934
0.848,0.58016,0.42267,0.14502,0.65494,1.5474
0.856,0.58993,0.44026,0.1499,0.65005,1.5093
0.864,0.59531,0.45981,0.1499,0.65005,1.477
0.872,0.60508,0.47935,0.15527,0.64027,1.4497
0.88,0.61486,0.50012,0.17529,0.64027,1.4272
0.888,0.62512,0.52089,0.18018,0.62023,1.4115
0.896,0.63001,0.53995,0.19531,0.62023,1.3988
0.904,0.6349,0.559,0.20996,0.60997,1.3842
0.912,0.65005,0.57684,0.2251,0.59531,1.3695
0.92,0.65494,0.59467,0.24512,0.58504,1.3539
0.928,0.67009,0.61446,0.25488,0.58016,1.3382
0.936,0.67498,0.6345,0.26514,0.58504,1.3226
0.944,0.68035,0.65575,0.29004,0.56012,1.3069
0.952,0.69501,0.67725,0.31006,0.54985,1.2913
0.96,0.70528,0.6968,0.31006,0.54497,1.2757
0.968,0.71505,0.71634,0.33984,0.52493,1.259
0.976,0.71994,0.73418,0.36523,0.51515,1.2424
0.984,0.73509,0.75226,0.38525,0.5,1.2258
0.992,0.74536,0.77107,0.40479,0.48485,1.2141
1,0.75513,0.79013,0.43506,0.47019,1.2043
1.008,0.7654,0.80992,0.45508,0.45992,1.1916
1.016,0.77517,0.82995,0.47998,0.43988,1.1779
1.024,0.77517,0.8495,0.52002,0.41984,1.1642
1.032,0.77028,0.86929,0.56494,0.39003,1.1505
1.04,0.77517,0.88835,0.58008,0.37977,1.1369
1.048,0.7654,0.9074,0.59521,0.35973,1.1241
1.056,0.73998,0.92353,0.59521,0.3651,1.1134
1.064,0.70528,0.9399,0.56006,0.37977,1.1026
1.072,0.6652,0.95382,0.49023,0.42473,1.0919
1.08,0.62512,0.96775,0.41992,0.47019,1.0821
1.088,0.58504,0.98021,0.3501,0.52004,1.0772
1.096,0.55523,0.99267,0.28516,0.55523,1.0743
1.104,0.53519,0.99634,0.25,0.58504,1.0694
1.112,0.51515,1,0.22021,0.60508,1.0645
1.12,0.50978,1,0.20508,0.62023,1.0596
1.128,0.50978,1,0.2002,0.62023,1.0538
1.136,0.50978,1,0.19531,0.62023,1.0489
1.144,0.50489,1,0.2002,0.62023,1.044
1.152,0.50978,1,0.20508,0.62023,1.0411
1.16,0.50978,1,0.19531,0.62023,1.0371
1.168,0.50978,1,0.2002,0.62023,1.0332
1.176,0.50978,1,0.20508,0.61486,1.0274
1.184,0.50978,1,0.22021,0.60997,1.0235
1.192,0.50978,1,0.22021,0.60997,1.0205
1.2,0.51515,1,0.22021,0.60508,1.0156
1.208,0.50489,1,0.22021,0.60508,1.0147
1.216,0.50978,1,0.2251,0.6002,1.0283
1.224,0.50489,1,0.2251,0.6002,1.0645
1.232,0.50978,1,0.2251,0.6002,1.132
1.24,0.50978,1,0.2251,0.6002,1.2346
1.248,0.50489,1,0.23486,0.59531,1.3724
1.256,0.50978,1,0.22998,0.6002,1.5386
1.264,0.50489,1,0.22021,0.6002,1.7234
1.272,0.5,1,0.22998,0.59531,1.915
1.28,0.50489,1,0.24023,0.59531,2.1007
1.288,0.52493,1,0.26025,0.58504,2.2522
1.296,0.54985,1,0.29492,0.565,2.3754
1.304,0.57527,1,0.33496,0.54008,2.4936
1.312,0.59531,1,0.36523,0.52004,2.5953
1.32,0.60508,1,0.3999,0.49022,2.6764
1.328,0.60508,1,0.4248,0.47019,2.738
1.336,0.60508,1,0.45996,0.45015,2.781
1.344,0.59531,1,0.4751,0.435,2.8074
1.352,0.55523,1,0.39502,0.47996,2.8201
1.36,0.52981,1,0.33008,0.52981,2.8221
1.368,0.5,1,0.27002,0.58016,2.8133
1.376,0.48485,1,0.21484,0.60997,2.7967
1.384,0.49022,1,0.18994,0.63001,2.7732
1.392,0.48485,1,0.18506,0.62512,2.7449
1.4,0.48485,1,0.18994,0.63001,2.7116
1.408,0.48485,1,0.18994,0.62512,2.6735
1.416,0.49022,1,0.19531,0.62023,2.6325
1.424,0.49022,1,0.2002,0.62023,2.5875
1.432,0.5,1,0.19531,0.62023,2.5406
1.44,0.5,1,0.2002,0.62023,2.4897
1.448,0.49511,1,0.12012,0.67009,2.435
1.456,0.59531,1,0.035156,0.71505,2.3754
1.464,0.8304,1,0.43506,0.41007,2.3118
1.472,1.0552,1,1.3599,-0.1955,2.2434
1.48,1.1153,1,1.5,-0.50049,2.1701
1.488,0.6652,1,1.5,-0.28543,2.1017
1.496,0.36999,1,0.82471,0.22483,2.0342
1.504,0.47507,1,0.49512,0.435,1.958
1.512,0.55523,1,0.33496,0.54497,1.8788
1.52,0.56012,1,0.25,0.59531,1.8006
1.528,0.55523,1,0.20508,0.62512,1.7273
1.536,0.565,1,0.17529,0.64027,1.6588
1.544,0.565,1,0.16992,0.64516,1.5973
1.552,0.57527,1,0.16992,0.64516,1.5435
1.56,0.58016,1,0.16504,0.64027,1.4976
1.568,0.58504,1,0.18018,0.6349,1.4585
1.576,0.59531,1,0.18994,0.63001,1.4262
1.584,0.60508,1,0.2002,0.62512,1.4027
1.592,0.60997,1,0.2002,0.62023,1.3851
1.6,0.62023,1,0.21484,0.61486,1.3675
1.608,0.63001,1,0.22998,0.60508,1.35
1.616,0.65005,1,0.24512,0.59531,1.3333
1.624,0.65494,1,0.27002,0.58504,1.3187
1.632,0.67498,1,0.28516,0.56989,1.305
1.64,0.67498,1,0.29004,0.56989,1.2913
1.648,0.69013,1,0.30518,0.56012,1.2786
1.656,0.70039,1,0.31982,0.54985,1.2659
1.664,0.71017,1,0.33984,0.54008,1.2542
1.672,0.72532,1,0.3501,0.52981,1.2434
1.68,0.73509,1,0.36523,0.52493,1.2317
1.688,0.74536,1,0.38525,0.50978,1.2229
1.696,0.75024,1,0.40479,0.5,1.216
1.704,0.7654,1,0.43018,0.47996,1.2063
1.712,0.77517,1,0.4502,0.47507,1.1945
1.72,0.79032,1,0.4751,0.45503,1.1818
1.728,0.79032,1,0.5,0.44477,1.1681
1.736,0.8001,1,0.53516,0.42473,1.1554
1.744,0.80499,1,0.56494,0.40469,1.1427
1.752,0.81036,1,0.58984,0.38514,1.13
1.76,0.8001,1,0.62988,0.35973,1.1183
1.768,0.79521,1,0.65479,0.34506,1.1075
1.776,0.77028,1,0.66016,0.33969,1.0968
1.784,0.74536,1,0.62012,0.35973,1.0899
1.792,0.70528,1,0.55518,0.3998,1.086
1.8,0.6652,1,0.4751,0.44477,1.0792
1.808,0.62512,1,0.3999,0.49511,1.0723
1.816,0.6002,1,0.34521,0.53519,1.0645
1.824,0.57527,1,0.29004,0.565,1.0567
1.832,0.55523,1,0.26025,0.58504,1.0489
1.84,0.54497,1,0.24023,0.59531,1.042
1.848,0.54497,1,0.22998,0.60508,1.0362
1.856,0.53519,0.98607,0.22998,0.60508,1.0313
1.864,0.53519,0.97239,0.2251,0.60997,1.0244
1.872,0.54008,0.94063,0.2251,0.60508,1.0186
1.88,0.54008,0.90911,0.22998,0.60508,1.0147
1.888,0.53519,0.87247,0.22998,0.60997,1.0137
1.896,0.54008,0.83582,0.2251,0.6002,1.0147
1.904,0.54008,0.79575,0.23486,0.6002,1.0108
1.912,0.53519,0.75592,0.23486,0.59531,1.0039
1.92,0.54008,0.71903,0.24023,0.59531,0.99707
1.928,0.54008,0.68214,0.23486,0.59531,0.99707
1.936,0.54008,0.64842,0.22998,0.6002,1.0117
1.944,0.53519,0.61471,0.22998,0.6002,1.0508
1.952,0.53519,0.58197,0.22998,0.6002,1.1232
1.96,0.53519,0.54923,0.2251,0.59531,1.2336
1.968,0.53519,0.51747,0.2251,0.6002,1.3822
1.976,0.53519,0.48595,0.2251,0.59531,1.563
1.984,0.53519,0.45785,0.22021,0.6002,1.7351
1.992,0.53519,0.43,0.22998,0.59531,1.9022
2,0.56012,0.40533,0.24512,0.58993,2.089
2.008,0.58504,0.38065,0.28516,0.565,2.2747
2.016,0.61486,0.36037,0.3252,0.54008,2.4448
2.024,0.64027,0.34034,0.35986,0.52004,2.5914
2.032,0.65005,0.32397,0.39014,0.5,2.7126
2.04,0.64027,0.30784,0.41016,0.48485,2.8074
2.048,0.63001,0.29489,0.43018,0.46481,2.8778
2.056,0.61486,0.28194,0.44482,0.45015,2.9277
2.064,0.58016,0.27168,0.375,0.49511,2.9589
2.072,0.55523,0.26167,0.3252,0.52981,2.9756
2.08,0.53519,0.25336,0.26025,0.57527,2.9785
2.088,0.52004,0.2453,0.21484,0.60997,2.9677
2.096,0.51515,0.2387,0.19531,0.62512,2.9492
2.104,0.51515,0.2321,0.18994,0.62023,2.9247
2.112,0.51515,0.22673,0.19531,0.62512,2.8954
2.12,0.52004,0.22135,0.18994,0.62023,2.8612
2.128,0.51515,0.21671,0.19531,0.62023,2.8221
2.136,0.52004,0.21231,0.2002,0.62023,2.7791
2.144,0.52493,0.20816,0.20508,0.62023,2.7312
2.152,0.52981,0.20401,0.2002,0.61486,2.6804
2.16,0.52004,0.19985,0.12988,0.66031,2.6246
2.168,0.60508,0.19594,0.030273,0.71505,2.564
2.176,0.79521,0.19204,0.43506,0.41496,2.4995
2.184,1.0103,0.18813,1.3398,-0.17546,2.437
2.192,1.2004,0.18422,1.5,-0.50049,2.3734
2.2,0.82014,0.18031,1.5,-0.39052,2.3021
2.208,0.42473,0.17567,0.94971,0.14467,2.2248
2.216,0.50489,0.17102,0.5498,0.3998,2.1437
2.224,0.59531,0.16565,0.3501,0.53519,2.0606
2.232,0.60508,0.16052,0.24023,0.6002,1.9795
2.24,0.6002,0.15612,0.18506,0.63001,1.9013
2.248,0.59531,0.15197,0.16016,0.64516,1.827
2.256,0.6002,0.1483,0.1499,0.65494,1.7595
2.264,0.60508,0.14464,0.14502,0.66031,1.6999
2.272,0.60508,0.14024,0.1499,0.65494,1.6481
2.28,0.60997,0.13609,0.14502,0.65005,1.6041
2.288,0.62023,0.13096,0.1499,0.65494,1.5709
2.296,0.62512,0.12607,0.1499,0.64516,1.5445
2.304,0.62512,0.12045,0.16504,0.64027,1.5191
2.312,0.62512,0.11507,0.17529,0.6349,1.4956
2.32,0.6349,0.10946,0.19531,0.62023,1.4751
2.328,0.65005,0.10408,0.20996,0.61486,1.4555
2.336,0.6652,0.099682,0.2251,0.6002,1.4379
2.344,0.67498,0.095529,0.24023,0.59531,1.4223
2.352,0.68524,0.092108,0.25,0.58993,1.4066
2.36,0.70039,0.088932,0.26514,0.58016,1.391
2.368,0.71017,0.085512,0.28027,0.57527,1.3754
2.376,0.71994,0.082091,0.29492,0.565,1.3597
2.384,0.73021,0.078671,0.31494,0.54985,1.347
2.392,0.74536,0.075495,0.33008,0.54008,1.3372
2.4,0.75024,0.072807,0.3501,0.52493,1.3245
2.408,0.7654,0.070364,0.375,0.51515,1.3118
2.416,0.77517,0.068165,0.3999,0.5,1.2981
2.424,0.79032,0.066211,0.4248,0.48485,1.2845
2.432,0.8001,0.06279,0.4502,0.47019,1.2708
2.44,0.81036,0.059614,0.4751,0.45503,1.2561
2.448,0.82014,0.054972,0.50977,0.43011,1.2414
2.456,0.8304,0.05033,0.54492,0.41007,1.2278
2.464,0.8304,0.044222,0.58008,0.39492,1.2151
2.472,0.8304,0.038358,0.60986,0.37488,1.2033
2.48,0.81525,0.031517,0.64014,0.35973,1.1926
2.488,0.79032,0.024676,0.64502,0.35484,1.1857
2.496,0.75024,0.01808,0.6001,0.37488,1.1808
2.504,0.70528,0.011727,0.52979,0.41007,1.173
2.512,0.64516,0.0056194,0.4502,0.45992,1.1642
2.52,0.6002,-0.00048864,0.375,0.50489,1.1564
2.528,0.565,-0.00048864,0.31006,0.54497,1.1496
2.536,0.54008,-0.00048864,0.26514,0.565,1.1437
2.544,0.52004,-0.00048864,0.22998,0.58993,1.1378
2.552,0.51515,-0.00048864,0.21484,0.59531,1.1329
2.56,0.50978,-0.00048864,0.20996,0.60997,1.129
2.568,0.50978,-0.00048864,0.2002,0.61486,1.1261
2.576,0.50978,-0.00048864,0.20508,0.60997,1.1232
2.584,0.50978,-0.00048864,0.2002,0.60997,1.1241
2.592,0.50978,-0.00048864,0.20996,0.60508,1.1261
2.6,0.50978,-0.00048864,0.20996,0.60508,1.1251
2.608,0.50978,-0.00048864,0.20996,0.60997,1.1212
2.616,0.50978,-0.00048864,0.21484,0.6002,1.1153
2.624,0.50978,-0.00048864,0.22021,0.6002,1.1075
2.632,0.50978,-0.00048864,0.22021,0.59531,1.1017
2.64,0.50978,-0.00048864,0.2251,0.59531,1.1046
2.648,0.50978,-0.00048864,0.2251,0.59531,1.1251
2.656,0.50978,-0.00048864,0.22998,0.59531,1.173
2.664,0.50978,-0.00048864,0.22998,0.58993,1.2571
2.672,0.50489,-0.00048864,0.22998,0.59531,1.3793
2.68,0.50978,-0.00048864,0.22998,0.58993,1.5357
2.688,0.50978,-0.00048864,0.22998,0.59531,1.6921
2.696,0.50978,-0.00048864,0.22998,0.59531,1.8524
2.704,0.50978,-0.00048864,0.24023,0.58504,2.0401
2.712,0.53519,-0.00048864,0.26514,0.56989,2.2326
2.72,0.565,-0.00048864,0.30518,0.54985,2.4154
2.728,0.58993,-0.00048864,0.34521,0.52493,2.5787
2.736,0.60997,-0.00048864,0.37012,0.50489,2.7175
2.744,0.61486,-0.00048864,0.3999,0.48485,2.8299
2.752,0.6002,-0.00048864,0.41504,0.46481,2.9169
2.76,0.58504,-0.00048864,0.43994,0.45015,2.9814
2.768,0.56989,-0.00048864,0.41992,0.44477,3.0254
2.776,0.53519,-0.00048864,0.35986,0.49511,3.0528
2.784,0.51515,-0.00048864,0.31006,0.53519,3.0616
2.792,0.49022,-0.00048864,0.25,0.58016,3.0577
2.8,0.48485,-0.00048864,0.20508,0.60997,3.0479
2.808,0.48485,-0.00048864,0.18994,0.62023,3.0323
2.816,0.48485,-0.00048864,0.19531,0.62023,3.0108
2.824,0.48485,-0.00048864,0.18994,0.62023,2.9824
2.832,0.48485,-0.00048864,0.19531,0.62023,2.9492
2.84,0.48485,-0.00048864,0.2002,0.62023,2.911
2.848,0.49022,-0.00048864,0.2002,0.61486,2.87
2.856,0.5,-0.00048864,0.2002,0.61486,2.824
2.864,0.50489,-0.00048864,0.18994,0.62023,2.7752
2.872,0.5,-0.00048864,0.095215,0.68035,2.7234
2.88,0.60508,-0.00048864,0.040039,0.71994,2.6735
2.888,0.80499,-0.00048864,0.59521,0.30499,2.6217
2.896,0.98534,-0.00048864,1.5,-0.31036,2.564
2.904,1.1202,-0.00048864,1.5,-0.50049,2.5005
2.912,0.65005,-0.00048864,1.5,-0.23558,2.4321
2.92,0.40469,-0.00048864,0.81982,0.21994,2.3587
2.928,0.52004,-0.00048864,0.49512,0.435,2.2815
2.936,0.58016,-0.00048864,0.31982,0.54985,2.2004
2.944,0.56989,-0.00048864,0.23486,0.60508,2.1173
2.952,0.56989,-0.00048864,0.18994,0.63001,2.0332
2.96,0.565,-0.00048864,0.16016,0.64516,1.9511
2.968,0.58016,-0.00048864,0.1499,0.65005,1.8729
2.976,0.58016,-0.00048864,0.14502,0.66031,1.8006
2.984,0.58016,-0.00048864,0.14502,0.66031,1.7419
2.992,0.58504,-0.00048864,0.1499,0.65494,1.694
3,0.59531,-0.00048864,0.1499,0.65005,1.6481
3.008,0.6002,-0.00048864,0.16016,0.64516,1.6061
3.016,0.60997,-0.00048864,0.16992,0.6349,1.5699
3.024,0.62023,-0.00048864,0.18018,0.6349,1.5386
3.032,0.63001,-0.00048864,0.2002,0.62023,1.5122
3.04,0.64027,-0.00048864,0.20996,0.62023,1.4888
3.048,0.65494,-0.00048864,0.22998,0.60508,1.4682
3.056,0.66031,-0.00048864,0.24512,0.59531,1.4497
3.064,0.67498,-0.00048864,0.26025,0.58993,1.4321
3.072,0.68035,-0.00048864,0.27002,0.58016,1.4154
3.08,0.69501,-0.00048864,0.28027,0.56989,1.4027
3.088,0.70039,-0.00048864,0.29492,0.56012,1.392
3.096,0.71505,-0.00048864,0.31494,0.54985,1.3783
3.104,0.71994,-0.00048864,0.33496,0.54008,1.3636
3.112,0.73998,-0.00048864,0.35498,0.52981,1.349
3.12,0.74536,-0.00048864,0.37012,0.52004,1.3343
3.128,0.7654,-0.00048864,0.39014,0.50489,1.3196
3.136,0.77517,-0.00048864,0.41992,0.49022,1.304
3.144,0.78543,-0.00048864,0.4502,0.47507,1.2893
3.152,0.8001,-0.00048864,0.4751,0.45992,1.2737
3.16,0.80499,-0.00048864,0.50488,0.43988,1.259
3.168,0.81525,-0.00048864,0.53516,0.41984,1.2454
3.176,0.81525,-0.00048864,0.56982,0.3998,1.2317
3.184,0.80499,-0.00048864,0.60498,0.37977,1.2219
3.192,0.78543,-0.00048864,0.62012,0.3651,1.2151
3.2,0.76002,-0.00048864,0.61475,0.35973,1.2053
3.208,0.71505,-0.00048864,0.56494,0.39492,1.1945
3.216,0.6652,-0.00048864,0.49512,0.435,1.1838
3.224,0.62023,-0.00048864,0.41992,0.47996,1.173
3.232,0.57527,-0.00048864,0.34521,0.52004,1.1632
3.24,0.54497,-0.00048864,0.28516,0.56012,1.1544
3.248,0.52004,-0.00048864,0.24512,0.58016,1.1466
3.256,0.50978,-0.00048864,0.2251,0.59531,1.1398
3.264,0.50489,-0.00048864,0.20508,0.60997,1.1339
3.272,0.49511,-0.00048864,0.19531,0.62023,1.1281
3.28,0.5,-0.00048864,0.19531,0.62023,1.1271
3.288,0.49511,-0.00048864,0.2002,0.62023,1.1281
3.296,0.5,-0.00048864,0.2002,0.62023,1.1271
3.304,0.5,-0.00048864,0.2002,0.62023,1.1241
3.312,0.50489,-0.00048864,0.2002,0.62023,1.1202
3.32,0.50489,-0.00048864,0.2002,0.62023,1.1144
3.328,0.5,-0.00048864,0.20508,0.61486,1.1056
3.336,0.5,-0.00048864,0.20996,0.60997,1.0968
3.344,0.5,-0.00048864,0.20996,0.60997,1.0919
3.352,0.50489,-0.00048864,0.21484,0.60997,1.0978
3.36,0.49511,-0.00048864,0.22021,0.60508,1.1241
3.368,0.49511,-0.00048864,0.22021,0.60508,1.1799
3.376,0.49511,-0.00048864,0.22021,0.60508,1.2727
3.384,0.49022,-0.00048864,0.22021,0.6002,1.3793
3.392,0.49511,-0.00048864,0.22021,0.60508,1.5054
3.4,0.49511,-0.00048864,0.22021,0.60997,1.6716
3.408,0.49511,-0.00048864,0.22021,0.60508,1.8612
3.416,0.50489,-0.00048864,0.22998,0.59531,2.0596
3.424,0.52981,-0.00048864,0.26025,0.58016,2.2522
3.432,0.56012,-0.00048864,0.30518,0.55523,2.4282
3.44,0.58016,-0.00048864,0.33984,0.52981,2.5806
3.448,0.6002,-0.00048864,0.36523,0.51515,2.7077
3.456,0.60508,-0.00048864,0.38525,0.49511,2.8084
3.464,0.58016,-0.00048864,0.39502,0.47996,2.8847
3.472,0.58016,-0.00048864,0.43506,0.45992,2.9394
3.48,0.54985,-0.00048864,0.39014,0.47019,2.9687
3.488,0.52493,-0.00048864,0.33496,0.51515,2.9824
3.496,0.49511,-0.00048864,0.28027,0.55523,2.9892
3.504,0.48485,-0.00048864,0.2251,0.6002,2.9873
3.512,0.48485,-0.00048864,0.18994,0.62512,2.9775
3.52,0.47507,-0.00048864,0.17529,0.63001,2.9599
3.528,0.47507,-0.00048864,0.17529,0.6349,2.9365
3.536,0.47507,-0.00048864,0.17529,0.6349,2.9071
3.544,0.47507,-0.00048864,0.17529,0.63001,2.8729
3.552,0.48485,-0.00048864,0.18506,0.62512,2.8338
3.56,0.48485,-0.00048864,0.18994,0.63001,2.7918
3.568,0.49511,-0.00048864,0.18994,0.62023,2.7468
3.576,0.48485,-0.00048864,0.16504,0.6349,2.6989
3.584,0.52981,-0.00048864,0.060059,0.70528,2.652
3.592,0.6349,-0.00048864,0.024902,0.72532,2.6031
3.6,0.84018,-0.00048864,0.75977,0.18964,2.5494
3.608,1.0103,-0.00048864,1.5,-0.40567,2.4907
3.616,1.0953,-0.00048864,1.5,-0.50049,2.4262
3.624,0.52493,-0.00048864,1.3447,-0.09042,2.3578
3.632,0.41007,-0.00048864,0.70996,0.29472,2.2854
3.64,0.53519,-0.00048864,0.43994,0.47507,2.2082
3.648,0.58016,-0.00048864,0.28516,0.57527,2.1281
3.656,0.565,-0.00048864,0.20508,0.62023,2.045
3.664,0.565,-0.00048864,0.16992,0.64516,1.9619
3.672,0.565,-0.00048864,0.14502,0.66031,1.8817
3.68,0.56989,-0.00048864,0.14014,0.6652,1.8143
3.688,0.57527,-0.00048864,0.12988,0.6652,1.7566
3.696,0.58016,-0.00048864,0.13525,0.6652,1.6989
3.704,0.58993,-0.00048864,0.14502,0.66031,1.6452
3.712,0.59531,-0.00048864,0.1499,0.65494,1.5973
3.72,0.60508,-0.00048864,0.15527,0.65005,1.5562
3.728,0.60997,-0.00048864,0.16504,0.64027,1.522
3.736,0.62512,-0.00048864,0.17529,0.64027,1.4936
3.744,0.6349,0.0019546,0.19531,0.62512,1.4702
3.752,0.65005,0.0046421,0.20508,0.62023,1.4497
3.76,0.65494,0.0085512,0.22021,0.61486,1.4301
3.768,0.6652,0.012705,0.23486,0.59531,1.4125
3.776,0.67009,0.016369,0.24512,0.59531,1.3959
3.784,0.68035,0.020279,0.26514,0.58504,1.3832
3.792,0.69501,0.023943,0.2749,0.58016,1.3724
3.8,0.70528,0.027852,0.29004,0.565,1.3597
3.808,0.71017,0.031762,0.31006,0.55523,1.3451
3.816,0.72532,0.035915,0.33496,0.54497,1.3294
3.824,0.73509,0.040313,0.34521,0.52981,1.3138
3.832,0.75024,0.04471,0.36523,0.52493,1.2981
3.84,0.76002,0.049108,0.38525,0.50489,1.2835
3.848,0.77028,0.05375,0.40479,0.49511,1.2678
3.856,0.78543,0.058148,0.43506,0.47507,1.2532
3.864,0.79521,0.06279,0.45996,0.45992,1.2385
3.872,0.80499,0.066455,0.49512,0.43988,1.2239
3.88,0.81036,0.07012,0.52979,0.41984,1.2141
3.888,0.80499,0.072807,0.56494,0.3998,1.2063
3.896,0.8001,0.075739,0.58984,0.38514,1.1965
3.904,0.78543,0.077938,0.60498,0.37488,1.1848
3.912,0.75024,0.080137,0.58984,0.37977,1.174
3.92,0.71505,0.081847,0.54004,0.40469,1.1652
3.928,0.66031,0.083802,0.46484,0.44477,1.1574
3.936,0.61486,0.085023,0.38525,0.49511,1.1486
3.944,0.57527,0.086489,0.31982,0.54008,1.1408
3.952,0.55523,0.087466,0.26514,0.56989,1.132
3.96,0.53519,0.088444,0.23486,0.59531,1.1241
3.968,0.52004,0.088199,0.21484,0.60997,1.1183
3.976,0.51515,0.087955,0.2002,0.62023,1.1124
3.984,0.51515,0.086733,0.18994,0.63001,1.1105
3.992,0.51515,0.085512,0.18506,0.63001,1.1105
4,0.52004,0.084046,0.18994,0.62512,1.1085
4.008,0.51515,0.08258,0.19531,0.62023,1.1065
4.016,0.52004,0.081114,0.19531,0.62512,1.1046
4.024,0.52493,0.079893,0.18994,0.62512,1.1007
4.032,0.52004,0.07916,0.18506,0.63001,1.0948
4.04,0.52004,0.078671,0.2002,0.62023,1.086
4.048,0.52004,0.078915,0.20508,0.62023,1.0772
4.056,0.52004,0.079404,0.20508,0.62023,1.0733
4.064,0.52004,0.081114,0.20508,0.62023,1.0802
4.072,0.52004,0.083069,0.21484,0.61486,1.1075
4.08,0.51515,0.086245,0.20996,0.60997,1.1505
4.088,0.52004,0.089665,0.21484,0.60997,1.218
4.096,0.50978,0.094552,0.20996,0.61486,1.3236
4.104,0.50978,0.099438,0.21484,0.60997,1.4643
4.112,0.50978,0.10579,0.21484,0.60997,1.6334
4.12,0.50978,0.11239,0.21484,0.61486,1.8192
4.128,0.50978,0.12094,0.21484,0.60997,2.0088
4.136,0.50978,0.12949,0.22998,0.6002,2.1906
4.144,0.53519,0.13951,0.25,0.58993,2.3558
4.152,0.565,0.14952,0.29004,0.565,2.4985
4.16,0.58993,0.15881,0.33008,0.54008,2.6168
4.168,0.60508,0.16809,0.35498,0.52004,2.7097
4.176,0.61486,0.1764,0.38525,0.5,2.7801
4.184,0.62023,0.18495,0.41016,0.47996,2.8221
4.192,0.60508,0.19326,0.4502,0.45503,2.8446
4.2,0.58016,0.20181,0.41992,0.45992,2.8592
4.208,0.53519,0.21036,0.35498,0.50489,2.8651
4.216,0.51515,0.21891,0.30029,0.55523,2.8631
4.224,0.49511,0.22771,0.2251,0.60508,2.8524
4.232,0.49022,0.23675,0.19531,0.62023,2.8358
4.24,0.48485,0.24579,0.18506,0.62512,2.8123
4.248,0.48485,0.25483,0.17529,0.63001,2.784
4.256,0.48485,0.26338,0.18018,0.63001,2.7507
4.264,0.48485,0.27217,0.18018,0.6349,2.7146
4.272,0.48485,0.28072,0.18506,0.63001,2.6745
4.28,0.49511,0.28927,0.17529,0.6349,2.6334
4.288,0.5,0.29905,0.18506,0.63001,2.5914
4.296,0.49022,0.30882,0.16504,0.64027,2.5455
4.304,0.52981,0.31957,0.075195,0.70039,2.4956
4.312,0.62023,0.33032,0.02002,0.73021,2.4418
4.32,0.86022,0.34083,0.62988,0.27468,2.3832
4.328,1.0352,0.35158,1.5,-0.31574,2.3206
4.336,1.0855,0.36208,1.5,-0.50049,2.2532
4.344,0.52493,0.37283,1.3799,-0.11535,2.1818
4.352,0.37977,0.38578,0.7002,0.29472,2.1065
4.36,0.50489,0.39897,0.43018,0.47996,2.0283
4.368,0.56012,0.41412,0.28027,0.57527,1.9482
4.376,0.55523,0.42927,0.2002,0.62512,1.87
4.384,0.55523,0.44637,0.16992,0.64027,1.8035
4.392,0.54985,0.46372,0.1499,0.65494,1.7458
4.4,0.56012,0.48204,0.13525,0.6652,1.6862
4.408,0.565,0.50061,0.12988,0.6652,1.6305
4.416,0.56989,0.51771,0.13525,0.6652,1.5797
4.424,0.57527,0.53506,0.14502,0.66031,1.5357
4.432,0.58016,0.55118,0.1499,0.65494,1.4985
4.44,0.58016,0.56755,0.15527,0.65005,1.4663
4.448,0.58993,0.58515,0.16992,0.64027,1.4399
4.456,0.59531,0.60298,0.17529,0.6349,1.4174
4.464,0.60508,0.62179,0.18994,0.62512,1.3969
4.472,0.61486,0.64061,0.2002,0.62023,1.3773
4.48,0.63001,0.65844,0.22021,0.60508,1.3627
4.488,0.64027,0.67652,0.22998,0.6002,1.35
4.496,0.65005,0.69387,0.24512,0.58993,1.3363
4.504,0.66031,0.71146,0.27002,0.57527,1.3216
4.512,0.67498,0.73052,0.27002,0.57527,1.306
4.52,0.67498,0.74957,0.28516,0.565,1.2913
4.528,0.68524,0.7701,0.30029,0.54985,1.2766
4.536,0.69501,0.79086,0.3252,0.54008,1.263
4.544,0.70528,0.81285,0.33984,0.52493,1.2483
4.552,0.71505,0.83484,0.35986,0.52004,1.2336
4.56,0.71994,0.85732,0.39014,0.5,1.218
4.568,0.73509,0.87979,0.41016,0.49022,1.2023
4.576,0.74536,0.89983,0.43018,0.47507,1.1877
4.584,0.75024,0.92011,0.45996,0.45503,1.1769
4.592,0.76002,0.93819,0.49023,0.43988,1.1691
4.6,0.77028,0.95627,0.52002,0.41496,1.1593
4.608,0.77028,0.9741,0.55518,0.39492,1.1476
4.616,0.77028,0.99218,0.59521,0.37488,1.1359
4.624,0.75024,0.99609,0.61475,0.35973,1.1241
4.632,0.73021,1,0.58984,0.37488,1.1134
4.64,0.69501,1,0.54492,0.39492,1.1026
4.648,0.65005,1,0.48486,0.435,1.0929
4.656,0.60997,1,0.40479,0.48485,1.0831
4.664,0.57527,1,0.33008,0.52493,1.0743
4.672,0.54008,1,0.28516,0.56012,1.0665
4.68,0.52493,1,0.25,0.58993,1.0635
4.688,0.50978,1,0.21484,0.60997,1.0626
4.696,0.5,1,0.2002,0.62023,1.0596
4.704,0.49511,1,0.19531,0.63001,1.0547
4.712,0.5,1,0.18994,0.63001,1.0508
4.72,0.49511,1,0.19531,0.63001,1.0469
4.728,0.5,1,0.2002,0.62512,1.044
4.736,0.5,1,0.18994,0.62512,1.0411
4.744,0.49511,1,0.2002,0.62023,1.0371
4.752,0.5,1,0.20508,0.62023,1.0323
4.76,0.50489,1,0.20996,0.62023,1.0244
4.768,0.5,1,0.21484,0.60997,1.0156
4.776,0.5,1,0.22021,0.61486,1.0117
4.784,0.5,1,0.22021,0.60997,1.0147
4.792,0.5,1,0.22021,0.60997,1.0264
4.8,0.5,1,0.22998,0.60997,1.0587
4.808,0.49511,1,0.22998,0.60508,1.1202
4.816,0.49511,1,0.22998,0.60508,1.216
4.824,0.49511,1,0.22998,0.6002,1.349
4.832,0.49511,1,0.24023,0.59531,1.5112
4.84,0.49511,1,0.22998,0.6002,1.694
4.848,0.49511,1,0.23486,0.59531,1.8866
4.856,0.5,1,0.24512,0.59531,2.0743
4.864,0.51515,1,0.2749,0.56989,2.2483
4.872,0.54985,1,0.31494,0.54985,2.4018
4.88,0.58016,1,0.35498,0.52981,2.5161
4.888,0.59531,1,0.37988,0.50978,2.6012
4.896,0.60508,1,0.41504,0.47996,2.6764
4.904,0.6002,1,0.43506,0.47019,2.737
4.912,0.6002,1,0.47021,0.44477,2.782
4.92,0.57527,1,0.47998,0.435,2.8113
4.928,0.54497,1,0.39014,0.49022,2.828
4.936,0.52981,1,0.33496,0.52981,2.8319
4.944,0.5,1,0.27002,0.57527,2.826
4.952,0.49022,1,0.2251,0.60508,2.8113
4.96,0.48485,1,0.20996,0.62023,2.7908
4.968,0.48485,1,0.20996,0.62023,2.7634
4.976,0.48485,1,0.21484,0.62023,2.7322
4.984,0.49022,1,0.21484,0.61486,2.697
4.992,0.49511,1,0.21484,0.62023,2.6579
5,0.50489,1,0.22021,0.60997,2.6149
5.008,0.50978,1,0.22021,0.60997,2.5679
5.016,0.50978,1,0.20508,0.60508,2.5161
5.024,0.50489,1,0.10986,0.67498,2.4614
5.032,0.64516,1,0.050293,0.71505,2.4018
5.04,0.89052,1,0.64014,0.28006,2.3382
5.048,1.0806,1,1.5,-0.3304,2.2708
5.056,1.1554,1,1.5,-0.50049,2.1994
5.064,0.56989,1,1.5,-0.18035,2.1232
5.072,0.39003,1,0.78516,0.24976,2.044
5.08,0.52004,1,0.49023,0.43988,1.9726
5.088,0.58016,1,0.31982,0.55523,1.9062
5.096,0.58016,1,0.23486,0.60508,1.8338
5.104,0.58016,1,0.19531,0.6349,1.7625
5.112,0.58504,1,0.16992,0.64516,1.694
5.12,0.58993,1,0.1499,0.65494,1.6315
5.128,0.59531,1,0.1499,0.65494,1.5758
5.136,0.6002,1,0.14502,0.66031,1.5279
5.144,0.60508,1,0.1499,0.65494,1.4868
5.152,0.60508,1,0.15527,0.65005,1.4526
5.16,0.61486,1,0.16504,0.64516,1.4242
5.168,0.62512,1,0.17529,0.64027,1.4008
5.176,0.63001,1,0.18994,0.6349,1.3842
5.184,0.64516,1,0.2002,0.62512,1.3715
5.192,0.65005,1,0.20508,0.62023,1.3578
5.2,0.66031,1,0.22021,0.60997,1.3441
5.208,0.67498,1,0.23486,0.60508,1.3304
5.216,0.68524,1,0.25,0.59531,1.3167
5.224,0.69501,1,0.26514,0.59531,1.303
5.232,0.70528,1,0.28027,0.57527,1.2903
5.24,0.71505,1,0.29492,0.56989,1.2776
5.248,0.71994,1,0.31006,0.56012,1.2649
5.256,0.73021,1,0.33008,0.54985,1.2522
5.264,0.74536,1,0.3501,0.54008,1.2395
5.272,0.75513,1,0.37012,0.52493,1.2258
5.28,0.77028,0.99829,0.39502,0.50978,1.216
5.288,0.77517,0.99682,0.41992,0.49511,1.2082
5.296,0.79032,0.97557,0.4502,0.47507,1.1984
5.304,0.79521,0.95456,0.4751,0.45503,1.1877
5.312,0.80499,0.93037,0.50977,0.43988,1.176
5.32,0.81036,0.90643,0.54492,0.41496,1.1652
5.328,0.81036,0.87955,0.58008,0.39492,1.1544
5.336,0.80499,0.85268,0.61475,0.37488,1.1437
5.344,0.79032,0.82433,0.63477,0.35973,1.1329
5.352,0.7654,0.79599,0.625,0.35973,1.1232
5.36,0.73509,0.76692,0.58496,0.37977,1.1134
5.368,0.69013,0.73785,0.51514,0.42473,1.1036
5.376,0.64516,0.71097,0.43018,0.47507,1.0978
5.384,0.60997,0.68434,0.35498,0.52004,1.0948
5.392,0.57527,0.65917,0.29492,0.56012,1.0899
5.4,0.55523,0.63401,0.25488,0.58504,1.0841
5.408,0.54497,0.60811,0.2251,0.6002,1.0792
5.416,0.53519,0.58221,0.20996,0.61486,1.0733
5.424,0.52981,0.55558,0.2002,0.62023,1.0684
5.432,0.53519,0.5292,0.2002,0.62023,1.0645
5.44,0.52981,0.50476,0.2002,0.62023,1.0606
5.448,0.53519,0.48058,0.2002,0.62023,1.0587
5.456,0.53519,0.45834,0.2002,0.62023,1.0567
5.464,0.53519,0.43611,0.20508,0.62023,1.0547
5.472,0.53519,0.41437,0.21484,0.61486,1.0518
5.48,0.53519,0.39287,0.21484,0.60997,1.0508
5.488,0.53519,0.3721,0.22021,0.60997,1.0508
5.496,0.53519,0.35133,0.21484,0.60997,1.0508
5.504,0.53519,0.33301,0.22021,0.61486,1.0567
5.512,0.52981,0.31493,0.21484,0.60997,1.0762
5.52,0.53519,0.29905,0.22021,0.60997,1.1193
5.528,0.52981,0.28317,0.22021,0.60508,1.1935
5.536,0.52981,0.27071,0.22021,0.60508,1.304
5.544,0.52981,0.25825,0.22021,0.60508,1.4497
5.552,0.52004,0.24823,0.22021,0.6002,1.6227
5.56,0.52981,0.23846,0.2251,0.60508,1.8123
5.568,0.54008,0.23064,0.24512,0.58993,2.0078
5.576,0.565,0.22282,0.28027,0.56989,2.175
5.584,0.59531,0.21647,0.31982,0.54497,2.3177
5.592,0.62512,0.21036,0.35986,0.52004,2.4614
5.6,0.63001,0.20523,0.39014,0.5,2.5904
5.608,0.63001,0.2001,0.41016,0.49022,2.6979
5.616,0.60997,0.1957,0.41992,0.47507,2.784
5.624,0.6002,0.19155,0.43506,0.45992,2.8485
5.632,0.56989,0.18764,0.375,0.49511,2.8935
5.64,0.53519,0.18373,0.33008,0.52981,2.9208
5.648,0.51515,0.17982,0.27002,0.57527,2.9355
5.656,0.5,0.17615,0.20996,0.61486,2.9384
5.664,0.5,0.17249,0.18018,0.63001,2.9316
5.672,0.5,0.16882,0.18018,0.6349,2.9169
5.68,0.50489,0.1654,0.18506,0.63001,2.8944
5.688,0.50489,0.16198,0.18506,0.6349,2.8661
5.696,0.50978,0.15856,0.18994,0.63001,2.8338
5.704,0.50978,0.15514,0.19531,0.63001,2.7977
5.712,0.52004,0.15197,0.2002,0.62512,2.7576
5.72,0.52493,0.14879,0.18994,0.62512,2.7136
5.728,0.51515,0.14561,0.14502,0.65005,2.6657
5.736,0.58016,0.14244,0.030273,0.73021,2.6149
5.744,0.73509,0.13926,0.26514,0.54008,2.5611
5.752,0.93548,0.13633,1.085,-0.015152,2.5034
5.76,1.1403,0.1334,1.5,-0.50049,2.4409
5.768,0.94037,0.13047,1.5,-0.50049,2.3754
5.776,0.45503,0.12753,1.105,0.054741,2.3128
5.784,0.43011,0.12485,0.60986,0.35973,2.2502
5.792,0.57527,0.12216,0.39014,0.51515,2.1799
5.8,0.6002,0.11947,0.26025,0.59531,2.1046
5.808,0.58993,0.11678,0.20508,0.63001,2.0274
5.816,0.59531,0.1141,0.16504,0.65005,1.9501
5.824,0.59531,0.11141,0.1499,0.6652,1.8749
5.832,0.6002,0.10897,0.14502,0.6652,1.8055
5.84,0.60508,0.10652,0.14014,0.6652,1.7419
5.848,0.60508,0.10408,0.14502,0.6652,1.6852
5.856,0.60997,0.10213,0.14502,0.66031,1.6364
5.864,0.62023,0.10042,0.15527,0.65494,1.5943
5.872,0.63001,0.098949,0.16504,0.64516,1.5591
5.88,0.6349,0.097484,0.18018,0.64027,1.5318
5.888,0.64516,0.096018,0.2002,0.62512,1.5103
5.896,0.65494,0.094552,0.20996,0.62023,1.4897
5.904,0.6652,0.092841,0.22021,0.60997,1.4702
5.912,0.68035,0.091376,0.23486,0.6002,1.4516
5.92,0.69013,0.08991,0.25,0.59531,1.435
5.928,0.70039,0.088688,0.26514,0.58993,1.4194
5.936,0.71017,0.087711,0.2749,0.58016,1.4037
5.944,0.71994,0.086733,0.29492,0.56989,1.3881
5.952,0.72532,0.085023,0.31006,0.565,1.3715
5.96,0.73998,0.083557,0.33008,0.54985,1.3568
5.968,0.75024,0.081358,0.34521,0.54008,1.3431
5.976,0.7654,0.07916,0.36523,0.52493,1.3314
5.984,0.77517,0.076961,0.39014,0.50978,1.3216
5.992,0.78543,0.074762,0.41016,0.5,1.3099
6,0.79032,0.072563,0.43506,0.47996,1.2962
6.008,0.80499,0.070608,0.46484,0.46481,1.2825
6.016,0.81525,0.067921,0.49512,0.45015,1.2678
6.024,0.8304,0.065478,0.52979,0.43011,1.2542
6.032,0.83529,0.062301,0.56006,0.40469,1.2405
6.04,0.8304,0.05937,0.59521,0.38514,1.2268
6.048,0.82014,0.054728,0.62012,0.36999,1.2141
6.056,0.79521,0.050086,0.62988,0.35973,1.2023
6.064,0.75513,0.044222,0.6001,0.37977,1.1916
6.072,0.70528,0.038358,0.53516,0.41007,1.1808
6.08,0.65494,0.032983,0.45508,0.45992,1.174
6.088,0.60997,0.027608,0.375,0.50489,1.1701
6.096,0.57527,0.022233,0.31006,0.54497,1.1632
6.104,0.54008,0.017102,0.26025,0.57527,1.1564
6.112,0.52493,0.0092841,0.22998,0.59531,1.1496
6.12,0.51515,0.0017102,0.20996,0.60997,1.1437
6.128,0.51515,0.00048864,0.2002,0.61486,1.1378
6.136,0.51515,-0.00048864,0.2002,0.62023,1.1329
6.144,0.50978,-0.00048864,0.2002,0.62023,1.129
6.152,0.51515,-0.00048864,0.2002,0.62023,1.1261
6.16,0.51515,-0.00048864,0.2002,0.62023,1.1232
6.168,0.52004,-0.00048864,0.2002,0.62023,1.1202
6.176,0.51515,-0.00048864,0.2002,0.62023,1.1202
6.184,0.52004,-0.00048864,0.20508,0.61486,1.1193
6.192,0.52004,-0.00048864,0.20996,0.61486,1.1144
6.2,0.51515,-0.00048864,0.21484,0.61486,1.1075
6.208,0.51515,-0.00048864,0.21484,0.60508,1.1056
6.216,0.51515,-0.00048864,0.22021,0.60508,1.1153
6.224,0.50978,-0.00048864,0.22021,0.60997,1.1457
6.232,0.51515,-0.00048864,0.22021,0.6002,1.2063
6.24,0.50978,-0.00048864,0.22021,0.60508,1.3021
6.248,0.50978,-0.00048864,0.22021,0.6002,1.435
6.256,0.50978,-0.00048864,0.22021,0.6002,1.5992
6.264,0.51515,-0.00048864,0.2251,0.6002,1.7859
6.272,0.53519,-0.00048864,0.24512,0.58993,1.9824
6.28,0.56012,-0.00048864,0.29004,0.565,2.1525
6.288,0.58993,-0.00048864,0.33008,0.54008,2.3001
6.296,0.61486,-0.00048864,0.35986,0.52004,2.4516
6.304,0.62512,-0.00048864,0.38525,0.49511,2.5894
6.312,0.60997,-0.00048864,0.3999,0.47996,2.7067
6.32,0.6002,-0.00048864,0.43018,0.45992,2.8016
6.328,0.58016,-0.00048864,0.43506,0.45503,2.8739
6.336,0.54985,-0.00048864,0.3501,0.50489,2.9257
6.344,0.52493,-0.00048864,0.30029,0.54497,2.9609
6.352,0.5,-0.00048864,0.24512,0.58993,2.9804
6.36,0.49022,-0.00048864,0.2002,0.62023,2.9873
6.368,0.49022,-0.00048864,0.18018,0.6349,2.9834
6.376,0.48485,-0.00048864,0.18018,0.6349,2.9697
6.384,0.49022,-0.00048864,0.18018,0.63001,2.9482
6.392,0.48485,-0.00048864,0.18018,0.6349,2.9218
6.4,0.49511,-0.00048864,0.18506,0.62512,2.8915
6.408,0.49511,-0.00048864,0.18994,0.63001,2.8583
6.416,0.50489,-0.00048864,0.2002,0.62023,2.8211
6.424,0.50489,-0.00048864,0.18506,0.62023,2.781
6.432,0.5,-0.00048864,0.11523,0.67009,2.7361
6.44,0.58504,-0.00048864,0.024902,0.71505,2.6882
6.448,0.77028,-0.00048864,0.43506,0.41007,2.6373
6.456,0.95015,-0.00048864,1.3599,-0.20528,2.5836
6.464,1.1256,-0.00048864,1.5,-0.50049,2.5249
6.472,0.73998,-0.00048864,1.5,-0.3304,2.4682
6.48,0.41007,-0.00048864,0.89014,0.17498,2.4106
6.488,0.49511,-0.00048864,0.53516,0.41007,2.3451
6.496,0.57527,-0.00048864,0.33984,0.54008,2.2737
6.504,0.58016,-0.00048864,0.23486,0.60508,2.1975
6.512,0.57527,-0.00048864,0.18994,0.6349,2.1183
6.52,0.58016,-0.00048864,0.15527,0.65005,2.0371
6.528,0.57527,-0.00048864,0.14502,0.6652,1.957
6.536,0.58016,-0.00048864,0.14502,0.6652,1.8788
6.544,0.58016,-0.00048864,0.1499,0.66031,1.8055
6.552,0.58504,-0.00048864,0.1499,0.65494,1.739
6.56,0.6002,-0.00048864,0.16016,0.64516,1.6794
6.568,0.60508,-0.00048864,0.16016,0.64516,1.6285
6.576,0.61486,-0.00048864,0.17529,0.64027,1.5894
6.584,0.63001,-0.00048864,0.18994,0.62512,1.5601
6.592,0.6349,-0.00048864,0.20508,0.62023,1.5318
6.6,0.65005,-0.00048864,0.22021,0.60997,1.5064
6.608,0.66031,0.00097728,0.23486,0.6002,1.4839
6.616,0.67498,0.0026875,0.24512,0.59531,1.4633
6.624,0.68035,0.0048864,0.26025,0.58504,1.4448
6.632,0.69501,0.0073296,0.27002,0.57527,1.4282
6.64,0.70039,0.0095285,0.29004,0.56989,1.4125
6.648,0.71505,0.011727,0.31006,0.55523,1.3969
6.656,0.71994,0.013926,0.31982,0.54985,1.3812
6.664,0.73021,0.016369,0.33984,0.54008,1.3656
6.672,0.73998,0.018813,0.35986,0.52493,1.3529
6.68,0.75024,0.0215,0.37988,0.51515,1.3421
6.688,0.7654,0.02321,0.39502,0.5,1.3284
6.696,0.77517,0.024921,0.4248,0.48485,1.3128
6.704,0.78543,0.025898,0.4502,0.47507,1.2981
6.712,0.79521,0.027119,0.4751,0.45503,1.2825
6.72,0.81036,0.028097,0.50488,0.435,1.2678
6.728,0.81525,0.029074,0.53516,0.41984,1.2532
6.736,0.82014,0.029807,0.56982,0.3998,1.2385
6.744,0.81525,0.030784,0.60498,0.37488,1.2248
6.752,0.8001,0.030051,0.625,0.35973,1.2111
6.76,0.77028,0.029563,0.62012,0.35973,1.1994
6.768,0.73021,0.027608,0.58496,0.37977,1.1887
6.776,0.68035,0.025654,0.51514,0.41496,1.1808
6.784,0.63001,0.021256,0.43994,0.45992,1.175
6.792,0.58504,0.016858,0.36523,0.50489,1.1672
6.8,0.54985,0.01075,0.30518,0.54497,1.1593
6.808,0.52981,0.0046421,0.26514,0.56989,1.1515
6.816,0.51515,0.0019546,0.23486,0.59531,1.1447
6.824,0.50489,-0.00048864,0.21484,0.60508,1.1388
6.832,0.50489,-0.00048864,0.20508,0.60997,1.1329
6.84,0.5,-0.00048864,0.20508,0.60997,1.1271
6.848,0.50978,-0.00048864,0.20508,0.61486,1.1232
6.856,0.50489,-0.00048864,0.20508,0.60997,1.1212
6.864,0.50978,-0.00048864,0.20996,0.60997,1.1183
6.872,0.50978,-0.00048864,0.21484,0.60508,1.1173
6.88,0.50978,-0.00048864,0.21484,0.60508,1.1173
6.888,0.50978,-0.00048864,0.22021,0.6002,1.1124
6.896,0.50978,-0.00048864,0.22021,0.6002,1.1036
6.904,0.50978,-0.00048864,0.22021,0.6002,1.0958
6.912,0.50978,-0.00048864,0.2251,0.59531,1.0938
6.92,0.50978,-0.00048864,0.2251,0.59531,1.1065
6.928,0.50978,-0.00048864,0.2251,0.59531,1.1427
6.936,0.50978,-0.00048864,0.22998,0.59531,1.2111
6.944,0.50978,-0.00048864,0.22998,0.59531,1.3157
6.952,0.50978,-0.00048864,0.22998,0.59531,1.4555
6.96,0.50978,-0.00048864,0.22998,0.59531,1.6246
6.968,0.50978,-0.00048864,0.23486,0.58993,1.8123
6.976,0.50978,-0.00048864,0.24512,0.58504,1.9804
6.984,0.53519,-0.00048864,0.27002,0.56989,2.1329
6.992,0.565,-0.00048864,0.31982,0.54497,2.2933
7,0.59531,-0.00048864,0.35986,0.52004,2.4448
7.008,0.60997,-0.00048864,0.37988,0.5,2.5767
7.016,0.61486,-0.00048864,0.41016,0.47507,2.6862
7.024,0.59531,-0.00048864,0.41504,0.46481,2.7722
7.032,0.58993,-0.00048864,0.4502,0.44477,2.8368
7.04,0.56012,-0.00048864,0.41992,0.45992,2.8827
7.048,0.52981,-0.00048864,0.35498,0.49511,2.911
7.056,0.50489,-0.00048864,0.30518,0.54008,2.9257
7.064,0.49022,-0.00048864,0.25,0.58504,2.9286
7.072,0.48485,-0.00048864,0.20508,0.62023,2.9198
7.08,0.48485,-0.00048864,0.19531,0.62023,2.9032
7.088,0.47996,-0.00048864,0.19531,0.62023,2.8837
7.096,0.48485,-0.00048864,0.19531,0.62023,2.8592
7.104,0.48485,-0.00048864,0.2002,0.62023,2.8299
7.112,0.48485,-0.00048864,0.2002,0.62023,2.7957
7.12,0.49022,-0.00048864,0.2002,0.62023,2.7576
7.128,0.49511,-0.00048864,0.20508,0.62023,2.7155
7.136,0.49022,-0.00048864,0.18506,0.62023,2.6686
7.144,0.52981,-0.00048864,0.090332,0.69013,2.6188
7.152,0.61486,-0.00048864,0.035156,0.72532,2.566
7.16,0.82014,-0.00048864,0.64502,0.26002,2.5093
7.168,0.98534,0.00024432,1.5,-0.32551,2.4487
7.176,1.0855,0.0012216,1.5,-0.50049,2.391
7.184,0.58993,0.0043977,1.4697,-0.17058,2.3333
7.192,0.41984,0.0078182,0.76514,0.26002,2.2669
7.2,0.53519,0.011483,0.47021,0.45503,2.1945
7.208,0.58504,0.015392,0.30518,0.56012,2.1183
7.216,0.58016,0.019546,0.22998,0.60997,2.0391
7.224,0.57527,0.023699,0.18994,0.6349,1.9599
7.232,0.58016,0.027608,0.16504,0.65005,1.8817
7.24,0.58016,0.031762,0.15527,0.65494,1.8074
7.248,0.58504,0.035426,0.1499,0.66031,1.739
7.256,0.58504,0.039335,0.1499,0.6652,1.6774
7.264,0.60508,0.043,0.15527,0.65005,1.6227
7.272,0.60508,0.046665,0.16504,0.64516,1.5816
7.28,0.62023,0.050086,0.17529,0.64027,1.5494
7.288,0.62512,0.053506,0.18018,0.64027,1.5191
7.296,0.6349,0.056682,0.2002,0.62512,1.4917
7.304,0.64516,0.060103,0.20508,0.62023,1.4682
7.312,0.65494,0.063279,0.22021,0.60997,1.4487
7.32,0.67009,0.066455,0.24023,0.6002,1.4301
7.328,0.67498,0.069875,0.25488,0.58993,1.4135
7.336,0.68035,0.07354,0.27002,0.58504,1.3978
7.344,0.69501,0.077205,0.28516,0.57527,1.3822
7.352,0.70039,0.081114,0.29492,0.56989,1.3666
7.36,0.71505,0.084535,0.31006,0.55523,1.3509
7.368,0.71994,0.088199,0.31982,0.54985,1.3353
7.376,0.73509,0.091376,0.33984,0.54008,1.3226
7.384,0.74536,0.094796,0.35986,0.52493,1.3118
7.392,0.76002,0.098705,0.37988,0.50978,1.2991
7.4,0.77028,0.10286,0.40479,0.49511,1.2845
7.408,0.78006,0.10726,0.4248,0.47996,1.2698
7.416,0.79032,0.11165,0.44482,0.47507,1.2551
7.424,0.8001,0.11556,0.4751,0.45992,1.2405
7.432,0.81036,0.11972,0.5,0.43988,1.2268
7.44,0.81525,0.12314,0.53516,0.41984,1.2131
7.448,0.81525,0.12656,0.5752,0.39492,1.2004
7.456,0.81036,0.129,0.60498,0.37488,1.1867
7.464,0.79521,0.13144,0.62012,0.35973,1.174
7.472,0.76002,0.13291,0.60986,0.35973,1.1662
7.48,0.72532,0.13462,0.56494,0.38514,1.1603
7.488,0.67498,0.13462,0.49023,0.43011,1.1525
7.496,0.6349,0.13486,0.41016,0.47996,1.1447
7.504,0.58993,0.13364,0.34521,0.52004,1.1369
7.512,0.565,0.13267,0.29004,0.55523,1.13
7.52,0.54497,0.13096,0.25,0.58504,1.1241
7.528,0.52981,0.12949,0.22021,0.6002,1.1183
7.536,0.52004,0.12753,0.20996,0.61486,1.1134
7.544,0.52004,0.12558,0.2002,0.62023,1.1095
7.552,0.51515,0.1224,0.20508,0.60997,1.1046
7.56,0.52004,0.11947,0.2002,0.62023,1.1007
7.568,0.52493,0.11556,0.2002,0.62023,1.0978
7.576,0.52493,0.1119,0.20996,0.62023,1.0978
7.584,0.52981,0.10946,0.2002,0.62023,1.0987
7.592,0.52493,0.10701,0.20996,0.62023,1.0958
7.6,0.52981,0.10603,0.20508,0.62023,1.0899
7.608,0.52493,0.10506,0.20996,0.60997,1.0821
7.616,0.52493,0.10628,0.21484,0.60508,1.0753
7.624,0.52493,0.1075,0.20996,0.60997,1.0762
7.632,0.52493,0.11068,0.22021,0.60997,1.0938
7.64,0.51515,0.11385,0.22021,0.60508,1.1359
7.648,0.52004,0.11898,0.22021,0.6002,1.2111
7.656,0.51515,0.12411,0.22021,0.60508,1.3216
7.664,0.51515,0.13096,0.22021,0.60508,1.4663
7.672,0.51515,0.1378,0.22021,0.60508,1.6119
7.68,0.50978,0.14513,0.22021,0.60508,1.7634
7.688,0.51515,0.15246,0.22998,0.6002,1.9404
7.696,0.53519,0.16003,0.26025,0.58016,2.1232
7.704,0.56012,0.16785,0.29492,0.56012,2.2972
7.712,0.58993,0.17591,0.3252,0.54008,2.4526
7.72,0.60997,0.18397,0.35986,0.52004,2.5846
7.728,0.61486,0.19228,0.39502,0.49022,2.6911
7.736,0.62023,0.20059,0.41992,0.47019,2.7732
7.744,0.60508,0.20865,0.4502,0.45015,2.8328
7.752,0.60997,0.21696,0.45508,0.44477,2.8729
7.76,0.54497,0.22477,0.36523,0.49511,2.8974
7.768,0.52004,0.23284,0.30518,0.54497,2.9081
7.776,0.5,0.23992,0.25,0.58504,2.9062
7.784,0.48485,0.24725,0.19531,0.62023,2.8944
7.792,0.48485,0.25409,0.18506,0.63001,2.8788
7.8,0.48485,0.26093,0.17529,0.6349,2.8583
7.808,0.47996,0.26826,0.18018,0.63001,2.8319
7.816,0.48485,0.27584,0.18506,0.63001,2.8006
7.824,0.48485,0.28366,0.18018,0.63001,2.7644
7.832,0.48485,0.29147,0.18506,0.63001,2.7253
7.84,0.49022,0.29929,0.18994,0.62023,2.6823
7.848,0.5,0.30711,0.17529,0.62512,2.6354
7.856,0.49022,0.31493,0.10498,0.67498,2.5855
7.864,0.58993,0.32299,0.024902,0.71994,2.5327
7.872,0.8001,0.33276,0.43994,0.3998,2.4819
7.88,0.99022,0.34254,1.2998,-0.18035,2.4301
7.888,1.0606,0.35426,1.5,-0.50049,2.3715
7.896,0.64516,0.36599,1.5,-0.25073,2.306
7.904,0.37488,0.37992,0.81982,0.22483,2.2356
7.912,0.47996,0.39384,0.49512,0.435,2.1593
7.92,0.55523,0.40924,0.31006,0.55523,2.0792
7.928,0.565,0.42463,0.2251,0.60508,1.9971
7.936,0.55523,0.4388,0.16992,0.65005,1.9159
7.944,0.55523,0.45321,0.1499,0.65494,1.8377
7.952,0.56012,0.46665,0.14502,0.66031,1.7654
7.96,0.57527,0.48033,0.12988,0.6652,1.6989
7.968,0.57527,0.49597,0.125,0.67498,1.6393
7.976,0.57527,0.51161,0.14014,0.66031,1.5924
7.984,0.58504,0.52895,0.1499,0.65005,1.5562
7.992,0.58993,0.5463,0.1499,0.65494,1.521
8,0.59531,0.56242,0.16992,0.64027,1.4888
8.008,0.60508,0.57879,0.18018,0.63001,1.4467
8.016,0.61486,0.59443,0.18994,0.62512,1.4018
8.024,0.62512,0.61007,0.2002,0.62023,1.3695
8.032,0.6349,0.62766,0.21484,0.61486,1.3441
8.04,0.64516,0.64549,0.22998,0.6002,1.3226
8.048,0.65494,0.66528,0.24512,0.58993,1.304
8.056,0.66031,0.68507,0.26025,0.58016,1.2864
8.064,0.67009,0.70682,0.27002,0.56989,1.2688
8.072,0.67498,0.72856,0.28027,0.56989,1.2551
8.08,0.69013,0.75128,0.29492,0.56012,1.2444
8.088,0.70039,0.77425,0.31494,0.54985,1.2307
8.096,0.71017,0.79477,0.33984,0.52981,1.2151
8.104,0.71994,0.81554,0.35498,0.52004,1.1984
8.112,0.72532,0.83411,0.37988,0.50489,1.1818
8.12,0.73509,0.85292,0.41016,0.49022,1.1652
8.128,0.75024,0.87222,0.43018,0.47507,1.1486
8.136,0.75513,0.89177,0.45996,0.45503,1.132
8.144,0.77028,0.91156,0.48486,0.435,1.1163
8.152,0.77028,0.93159,0.51514,0.42473,1.1007
8.16,0.77028,0.94894,0.54492,0.3998,1.086
8.168,0.77028,0.96653,0.58496,0.37488,1.0723
8.176,0.76002,0.98192,0.60986,0.35973,1.0626
8.184,0.73509,0.99756,0.6001,0.35973,1.0567
8.192,0.70528,0.99878,0.56982,0.38514,1.0489
8.2,0.6652,1,0.49512,0.41984,1.0391
8.208,0.62512,1,0.41992,0.47019,1.0293
8.216,0.58016,1,0.35498,0.51515,1.0196
8.224,0.54985,1,0.29492,0.56012,1.0108
8.232,0.52981,1,0.25,0.58504,1.0029
8.24,0.50978,1,0.22998,0.6002,0.99511
8.248,0.50489,1,0.20508,0.62023,0.98729
8.256,0.49511,1,0.2002,0.62023,0.97947
8.264,0.5,1,0.2002,0.62023,0.97263
8.272,0.49022,1,0.20508,0.62512,0.9697
8.28,0.5,1,0.19531,0.62023,0.9697
8.288,0.5,1,0.20508,0.62512,0.96774
8.296,0.5,1,0.21484,0.61486,0.96481
8.304,0.50489,1,0.20996,0.61486,0.9609
8.312,0.5,1,0.21484,0.60508,0.95503
8.32,0.49511,1,0.2251,0.60508,0.94721
8.328,0.49022,1,0.22021,0.60997,0.93842
8.336,0.49022,1,0.22021,0.60508,0.93451
8.344,0.48485,1,0.22998,0.6002,0.94233
8.352,0.48485,1,0.2251,0.59531,0.97067
8.36,0.48485,1,0.23486,0.6002,1.0293
8.368,0.48485,1,0.24023,0.6002,1.1065
8.376,0.48485,1,0.23486,0.59531,1.2082
8.384,0.47996,1,0.23486,0.59531,1.3509
8.392,0.48485,1,0.23486,0.59531,1.5259
8.4,0.48485,1,0.22998,0.59531,1.7195
8.408,0.49511,1,0.26025,0.58504,1.9189
8.416,0.52004,1,0.29492,0.565,2.1105
8.424,0.54985,1,0.3252,0.54497,2.2864
8.432,0.58016,1,0.35498,0.52981,2.4389
8.44,0.58016,1,0.37988,0.5,2.564
8.448,0.58993,1,0.41504,0.47507,2.6637
8.456,0.58993,1,0.43994,0.45992,2.74
8.464,0.59531,1,0.47998,0.435,2.7937
8.472,0.54985,1,0.4248,0.45992,2.825
8.48,0.52004,1,0.35986,0.50978,2.8387
8.488,0.49022,1,0.28027,0.56989,2.8446
8.496,0.47019,1,0.22998,0.60508,2.8426
8.504,0.46481,1,0.2002,0.62023,2.8328
8.512,0.46481,1,0.18506,0.63001,2.8152
8.52,0.46481,1,0.18506,0.6349,2.7908
8.528,0.46481,1,0.18994,0.63001,2.7605
8.536,0.47019,1,0.18994,0.63001,2.7243
8.544,0.47996,1,0.18994,0.63001,2.6833
8.552,0.47996,1,0.2002,0.62023,2.6393
8.56,0.49022,1,0.2002,0.62023,2.5914
8.568,0.47996,1,0.16016,0.64516,2.5435
8.576,0.54985,1,0.055176,0.71505,2.4946
8.584,0.71017,1,0.044922,0.57527,2.4389
8.592,0.98045,1,0.97998,0.039589,2.3773
8.6,1.1056,1,1.5,-0.47067,2.3099
8.608,0.85044,1,1.5,-0.50049,2.2385
8.616,0.3998,1,1.1001,0.064516,2.1613
8.624,0.35484,1,0.60986,0.35973,2.0792
8.632,0.52493,1,0.3999,0.50489,1.9932
8.64,0.55523,1,0.28027,0.58016,1.9062
8.648,0.54985,1,0.22021,0.62023,1.8201
8.656,0.54497,1,0.18994,0.6349,1.738
8.664,0.55523,1,0.17529,0.64027,1.6618
8.672,0.56012,1,0.16992,0.64027,1.6012
8.68,0.57527,1,0.17529,0.64027,1.5513
8.688,0.58016,1,0.17529,0.64027,1.5015
8.696,0.58504,1,0.18506,0.64027,1.4565
8.704,0.59531,1,0.19531,0.62512,1.4164
8.712,0.60508,1,0.2002,0.62023,1.3832
8.72,0.61486,1,0.21484,0.60997,1.3548
8.728,0.63001,1,0.2251,0.61486,1.3314
8.736,0.64027,1,0.24023,0.59531,1.3109
8.744,0.65005,1,0.25488,0.58993,1.2923
8.752,0.6652,1,0.26514,0.58016,1.2757
8.76,0.67498,1,0.28516,0.56989,1.26
8.768,0.69013,1,0.30029,0.56012,1.2493
8.776,0.69501,1,0.31494,0.54985,1.2405
8.784,0.70528,1,0.33008,0.54497,1.2297
8.792,0.71994,1,0.34521,0.52981,1.218
8.8,0.73021,1,0.36523,0.52493,1.2053
8.808,0.73998,1,0.38525,0.50489,1.1916
8.816,0.75024,1,0.40479,0.5,1.1769
8.824,0.76002,1,0.41992,0.48485,1.1632
8.832,0.77028,1,0.44482,0.47507,1.1496
8.84,0.78543,1,0.47021,0.45503,1.1349
8.848,0.79521,1,0.49512,0.43988,1.1202
8.856,0.80499,1,0.52002,0.43011,1.1056
8.864,0.81525,1,0.5498,0.40469,1.0919
8.872,0.81036,1,0.58496,0.38514,1.0831
8.88,0.81525,1,0.61475,0.36999,1.0762
8.888,0.8001,1,0.6499,0.34506,1.0674
8.896,0.78543,1,0.66016,0.3348,1.0577
8.904,0.75513,1,0.62988,0.35484,1.0469
8.912,0.71505,1,0.5752,0.38514,1.0362
8.92,0.67009,1,0.5,0.435,1.0254
8.928,0.6349,1,0.4248,0.47996,1.0147
8.936,0.6002,1,0.35498,0.52493,1.0049
8.944,0.57527,1,0.30518,0.55523,0.99511
8.952,0.54985,1,0.26514,0.58016,0.98631
8.96,0.54008,1,0.24023,0.59531,0.97752
8.968,0.53519,1,0.2251,0.60508,0.97263
8.976,0.52981,0.99976,0.22021,0.60997,0.9697
8.984,0.53519,0.99976,0.21484,0.61486,0.96579
8.992,0.52981,0.96702,0.20996,0.62023,0.96188
9,0.52981,0.93452,0.20996,0.61486,0.95797
9.008,0.53519,0.89665,0.20996,0.61486,0.95308
9.016,0.52981,0.85903,0.22021,0.60997,0.94819
9.024,0.53519,0.81871,0.22021,0.60508,0.94135
9.032,0.52981,0.7784,0.22021,0.60997,0.93353
9.04,0.52493,0.73711,0.22021,0.6002,0.92473
9.048,0.52493,0.69607,0.2251,0.6002,0.91984
9.056,0.52004,0.65966,0.2251,0.6002,0.92473
9.064,0.52004,0.62326,0.2251,0.6002,0.94819
9.072,0.52004,0.59101,0.2251,0.6002,0.98729
9.08,0.52004,0.55876,0.2251,0.6002,1.0499
9.088,0.52004,0.52822,0.2251,0.59531,1.1525
9.096,0.52004,0.49792,0.22021,0.6002,1.2942
9.104,0.51515,0.46909,0.2251,0.60508,1.4682
9.112,0.52493,0.44051,0.22998,0.59531,1.6647
9.12,0.53519,0.41632,0.25488,0.58504,1.871
9.128,0.565,0.39238,0.29492,0.565,2.0743
9.136,0.58993,0.3721,0.33008,0.54985,2.2639
9.144,0.61486,0.35182,0.36523,0.52493,2.4321
9.152,0.62023,0.33423,0.39502,0.5,2.5748
9.16,0.60508,0.31664,0.41016,0.48485,2.6901
9.168,0.6002,0.30149,0.43018,0.46481,2.7693
9.176,0.58016,0.28634,0.43994,0.45503,2.8221
9.184,0.54497,0.27462,0.36523,0.50489,2.8651
9.192,0.52493,0.26313,0.31006,0.54497,2.8954
9.2,0.5,0.25434,0.24512,0.58993,2.912
9.208,0.49022,0.24579,0.19531,0.62023,2.9179
9.216,0.48485,0.23943,0.18018,0.6349,2.912
9.224,0.48485,0.23308,0.18018,0.6349,2.8964
9.232,0.48485,0.22819,0.18018,0.6349,2.8739
9.24,0.48485,0.22355,0.18018,0.63001,2.8456
9.248,0.49022,0.22013,0.18506,0.63001,2.8104
9.256,0.49511,0.21671,0.18506,0.62512,2.7713
9.264,0.50489,0.21427,0.19531,0.62512,2.7283
9.272,0.5,0.21183,0.18506,0.62512,2.6833
9.28,0.52004,0.21011,0.1001,0.68035,2.6364
9.288,0.6002,0.20865,0.030273,0.72532,2.5826
9.296,0.80499,0.20743,0.53516,0.34995,2.5239
9.304,1.0254,0.20621,1.5,-0.28055,2.4604
9.312,1.1657,0.2045,1.5,-0.50049,2.391
9.32,0.68524,0.20303,1.5,-0.28543,2.3167
9.328,0.3998,0.20059,0.83496,0.21457,2.2385
9.336,0.5,0.19814,0.50488,0.435,2.1564
9.344,0.58016,0.19448,0.3252,0.55523,2.0733
9.352,0.57527,0.19106,0.22998,0.60997,1.9892
9.36,0.56989,0.18642,0.18018,0.64027,1.9062
9.368,0.56989,0.18202,0.1499,0.65494,1.8348
9.376,0.58016,0.17762,0.14014,0.6652,1.7732
9.384,0.58016,0.17322,0.14014,0.6652,1.7107
9.392,0.58504,0.16882,0.14502,0.6652,1.651
9.4,0.58993,0.16467,0.1499,0.66031,1.5973
9.408,0.6002,0.1593,0.1499,0.65494,1.5494
9.416,0.60508,0.15392,0.16016,0.65005,1.5083
9.424,0.60997,0.14757,0.16992,0.64027,1.4741
9.432,0.62023,0.14122,0.18506,0.6349,1.4448
9.44,0.63001,0.1356,0.2002,0.62023,1.4203
9.448,0.64516,0.13022,0.20996,0.61486,1.3988
9.456,0.66031,0.12509,0.2251,0.6002,1.3793
9.464,0.67009,0.12021,0.24512,0.59531,1.3617
9.472,0.67498,0.11434,0.25488,0.58993,1.348
9.48,0.69013,0.10872,0.27002,0.58016,1.3372
9.488,0.70039,0.10213,0.28027,0.56989,1.3255
9.496,0.71017,0.095773,0.29492,0.56012,1.3109
9.504,0.71994,0.088688,0.31494,0.54985,1.2962
9.512,0.73021,0.081847,0.33008,0.54497,1.2815
9.52,0.74536,0.074517,0.3501,0.52981,1.2669
9.528,0.75513,0.067432,0.37012,0.52493,1.2522
9.536,0.76002,0.061324,0.38525,0.50978,1.2366
9.544,0.77028,0.055461,0.41016,0.49511,1.2209
9.552,0.79032,0.05033,0.43994,0.47507,1.2053
9.56,0.8001,0.045199,0.4751,0.45992,1.1906
9.568,0.81036,0.039091,0.50488,0.43988,1.1808
9.576,0.81525,0.032983,0.54004,0.41984,1.172
9.584,0.81525,0.026142,0.5752,0.3998,1.1613
9.592,0.81525,0.019301,0.61475,0.37977,1.1505
9.6,0.79521,0.013193,0.63477,0.35973,1.1388
9.608,0.77028,0.0073296,0.625,0.35973,1.1271
9.616,0.72532,0.0034205,0.5752,0.39003,1.1163
9.624,0.67498,-0.00048864,0.50488,0.43011,1.1065
9.632,0.62023,-0.00048864,0.41992,0.47996,1.0968
9.64,0.58016,-0.00048864,0.33984,0.52493,1.089
9.648,0.54985,-0.00048864,0.28516,0.56012,1.0821
9.656,0.52493,-0.00048864,0.25,0.58504,1.0753
9.664,0.50978,-0.00048864,0.21484,0.6002,1.0694
9.672,0.5,-0.00048864,0.2002,0.61486,1.0665
9.68,0.50489,-0.00048864,0.2002,0.62023,1.0655
9.688,0.5,-0.00048864,0.18994,0.62023,1.0635
9.696,0.50489,-0.00048864,0.2002,0.62023,1.0616
9.704,0.50489,-0.00048864,0.19531,0.62023,1.0587
9.712,0.50978,-0.00048864,0.2002,0.62023,1.0557
9.72,0.50978,-0.00048864,0.2002,0.62023,1.0528
9.728,0.50978,-0.00048864,0.20508,0.62023,1.0479
9.736,0.50978,-0.00048864,0.20996,0.61486,1.0411
9.744,0.51515,-0.00048864,0.22021,0.60508,1.0323
9.752,0.50978,-0.00048864,0.22021,0.60508,1.0254
9.76,0.50978,-0.00048864,0.22021,0.60508,1.0274
9.768,0.50978,-0.00048864,0.22021,0.6002,1.043
9.776,0.50978,-0.00048864,0.22021,0.6002,1.0772
9.784,0.5,-0.00048864,0.22021,0.60508,1.1417
9.792,0.50489,-0.00048864,0.22021,0.6002,1.2424
9.8,0.50978,-0.00048864,0.22021,0.6002,1.3812
9.808,0.50489,-0.00048864,0.2251,0.59531,1.5533
9.816,0.51515,-0.00048864,0.24023,0.58504,1.7478
9.824,0.54008,-0.00048864,0.2749,0.56989,1.9521
9.832,0.56989,-0.00048864,0.31494,0.54497,2.1544
9.84,0.6002,-0.00048864,0.3501,0.52493,2.3431
9.848,0.60997,-0.00048864,0.37988,0.50489,2.5103
9.856,0.61486,-0.00048864,0.3999,0.47996,2.652
9.864,0.58993,-0.00048864,0.41016,0.47507,2.7674
9.872,0.58504,-0.00048864,0.44482,0.45015,2.8465
9.88,0.56012,-0.00048864,0.40479,0.47019,2.8993
9.888,0.52981,-0.00048864,0.34521,0.50978,2.9443
9.896,0.50489,-0.00048864,0.29004,0.55523,2.9765
9.904,0.48485,-0.00048864,0.23486,0.6002,2.9971
9.912,0.48485,-0.00048864,0.19531,0.62023,3.0059
9.92,0.47996,-0.00048864,0.18018,0.63001,3.0039
9.928,0.48485,-0.00048864,0.18506,0.62023,2.9932
9.936,0.48485,-0.00048864,0.18506,0.62023,2.9746
9.944,0.48485,-0.00048864,0.18994,0.62023,2.9492
9.952,0.48485,-0.00048864,0.19531,0.62023,2.9179
9.96,0.49022,-0.00048864,0.2002,0.62023,2.8827
9.968,0.49511,-0.00048864,0.2002,0.62023,2.8456
9.976,0.49022,-0.00048864,0.17529,0.63001,2.8055
9.984,0.52981,-0.00048864,0.075195,0.70039,2.7605
9.992,0.6349,-0.00048864,0.030273,0.72532,2.7116
10,0.84018,-0.00048864,0.74512,0.1999,2.6598
10.008,1.0254,-0.00048864,1.5,-0.39052,2.6041
10.016,1.1403,-0.00048864,1.5,-0.50049,2.5435
10.024,0.56989,-0.00048864,1.4248,-0.14027,2.479
10.032,0.41496,-0.00048864,0.75,0.26979,2.4096
10.04,0.52981,-0.00048864,0.45996,0.45992,2.3363
10.048,0.58016,-0.00048864,0.30029,0.56012,2.2571
10.056,0.57527,-0.00048864,0.22021,0.61486,2.1828
10.064,0.57527,-0.00048864,0.18018,0.6349,2.1202
10.072,0.57527,-0.00048864,0.1499,0.65494,2.0567
10.08,0.58016,-0.00048864,0.14502,0.6652,1.9853
10.088,0.58504,-0.00048864,0.14014,0.6652,1.912
10.096,0.58993,-0.00048864,0.14502,0.6652,1.8416
10.104,0.59531,-0.00048864,0.1499,0.65494,1.7761
10.112,0.60508,-0.00048864,0.15527,0.65005,1.7165
10.12,0.60508,-0.00048864,0.16504,0.64027,1.6647
10.128,0.61486,-0.00048864,0.17529,0.6349,1.6207
10.136,0.62023,-0.00048864,0.18994,0.62512,1.5826
10.144,0.63001,-0.00048864,0.2002,0.62023,1.5503
10.152,0.65005,-0.00048864,0.22021,0.61486,1.522
10.16,0.66031,-0.00048864,0.23486,0.60508,1.4985
10.168,0.67009,-0.00048864,0.24512,0.59531,1.4809
10.176,0.67498,-0.00048864,0.26514,0.58504,1.4673
10.184,0.69013,-0.00048864,0.2749,0.58016,1.4526
10.192,0.70039,-0.00048864,0.29004,0.56989,1.4379
10.2,0.71017,-0.00048864,0.30518,0.565,1.4233
10.208,0.71505,-0.00048864,0.31494,0.54985,1.4086
10.216,0.72532,-0.00048864,0.33984,0.54008,1.3939
10.224,0.73998,-0.00048864,0.35498,0.52493,1.3783
10.232,0.75024,-0.00048864,0.375,0.51515,1.3627
10.24,0.77028,-0.00048864,0.3999,0.5,1.347
10.248,0.78006,-0.00048864,0.4248,0.48485,1.3304
10.256,0.79032,-0.00048864,0.4502,0.47019,1.3148
10.264,0.8001,-0.00048864,0.47998,0.45503,1.303
10.272,0.81036,-0.00048864,0.50977,0.435,1.2933
10.28,0.81525,-0.00048864,0.54492,0.41496,1.2805
10.288,0.81525,-0.00048864,0.5752,0.39492,1.2669
10.296,0.81036,-0.00048864,0.60498,0.37977,1.2532
10.304,0.78543,-0.00048864,0.62012,0.36999,1.2395
10.312,0.76002,-0.00048864,0.60498,0.37488,1.2268
10.32,0.71505,-0.00048864,0.5498,0.3998,1.2151
10.328,0.6652,-0.00048864,0.47998,0.435,1.2043
10.336,0.61486,-0.00048864,0.3999,0.47996,1.1935
10.344,0.57527,-0.00048864,0.33496,0.52004,1.1838
10.352,0.54008,-0.00048864,0.28027,0.55523,1.175
10.36,0.52493,-0.00048864,0.24023,0.58016,1.1681
10.368,0.50978,-0.00048864,0.22021,0.6002,1.1642
10.376,0.50489,-0.00048864,0.20508,0.60508,1.1632
10.384,0.5,-0.00048864,0.2002,0.61486,1.1593
10.392,0.5,-0.00048864,0.2002,0.62023,1.1554
10.4,0.5,-0.00048864,0.2002,0.62023,1.1515
10.408,0.50489,-0.00048864,0.2002,0.62023,1.1476
10.416,0.5,-0.00048864,0.2002,0.61486,1.1427
10.424,0.50489,-0.00048864,0.20508,0.60997,1.1369
10.432,0.50489,-0.00048864,0.20996,0.60997,1.13
10.44,0.50489,-0.00048864,0.21484,0.6002,1.1202
10.448,0.50978,-0.00048864,0.21484,0.6002,1.1105
10.456,0.5,-0.00048864,0.22021,0.60508,1.1046
10.464,0.50489,-0.00048864,0.22021,0.59531,1.1065
10.472,0.50489,-0.00048864,0.2251,0.59531,1.1232
10.48,0.50978,-0.00048864,0.22998,0.59531,1.1613
10.488,0.50489,-0.00048864,0.2251,0.59531,1.2297
10.496,0.50978,-0.00048864,0.22998,0.59531,1.3343
10.504,0.50489,-0.00048864,0.22998,0.59531,1.4731
10.512,0.50489,-0.00048864,0.2251,0.59531,1.6393
10.52,0.5,-0.00048864,0.2251,0.59531,1.824
10.528,0.50978,-0.00048864,0.22998,0.59531,2.0156
10.536,0.52493,-0.00048864,0.24512,0.58504,2.2014
10.544,0.55523,-0.00048864,0.28516,0.56012,2.3715
10.552,0.58016,-0.00048864,0.33008,0.53519,2.5191
10.56,0.60508,-0.00048864,0.35986,0.50978,2.6413
10.568,0.61486,-0.00048864,0.39014,0.49022,2.7263
10.576,0.62023,-0.00048864,0.41016,0.47507,2.7859
10.584,0.59531,-0.00048864,0.43018,0.45503,2.8368
10.592,0.58504,-0.00048864,0.43994,0.45015,2.8759
10.6,0.54985,-0.00048864,0.37988,0.47996,2.9013
10.608,0.52493,-0.00048864,0.33008,0.52493,2.915
10.616,0.50489,-0.00048864,0.2749,0.565,2.9189
10.624,0.49511,-0.00048864,0.22021,0.6002,2.914
10.632,0.48485,-0.00048864,0.18994,0.62023,2.9022
10.64,0.48485,-0.00048864,0.18994,0.62023,2.8837
10.648,0.49022,-0.00048864,0.18994,0.62023,2.8592
10.656,0.48485,-0.00048864,0.19531,0.62023,2.8289
10.664,0.49022,-0.00048864,0.2002,0.62023,2.7957
10.672,0.49511,-0.00048864,0.2002,0.62023,2.7595
10.68,0.5,-0.00048864,0.2002,0.62023,2.7195
10.688,0.50489,-0.00048864,0.20508,0.61486,2.6745
10.696,0.49511,-0.00048864,0.15527,0.64027,2.6256
10.704,0.56012,-0.00048864,0.044922,0.71017,2.5738
10.712,0.71505,-0.00048864,0.29004,0.50489,2.52
10.72,0.91544,-0.00048864,1.1196,-0.05523,2.4624
10.728,1.0953,-0.00048864,1.5,-0.50049,2.3998
10.736,0.88025,-0.00048864,1.5,-0.47556,2.3333
10.744,0.43011,-0.00048864,1.0698,0.059629,2.263
10.752,0.41007,-0.00048864,0.61475,0.35484,2.1887
10.76,0.565,-0.00048864,0.39502,0.50489,2.1114
10.768,0.58016,-0.00048864,0.28027,0.58016,2.0411
10.776,0.57527,-0.00048864,0.21484,0.61486,1.9756
10.784,0.56989,-0.00048864,0.18018,0.6349,1.9042
10.792,0.57527,-0.00048864,0.16504,0.65005,1.8338
10.8,0.58016,-0.00048864,0.15527,0.65005,1.7674
10.808,0.58504,-0.00048864,0.15527,0.64516,1.7058
10.816,0.58993,-0.00048864,0.16016,0.64516,1.65
10.824,0.6002,-0.00048864,0.16504,0.64027,1.6012
10.832,0.60508,-0.00048864,0.17529,0.64027,1.5591
10.84,0.60997,-0.00048864,0.18506,0.63001,1.5239
10.848,0.62023,-0.00048864,0.2002,0.62023,1.4936
10.856,0.63001,-0.00048864,0.20996,0.62023,1.4682
10.864,0.64516,-0.00048864,0.22021,0.60997,1.4497
10.872,0.65494,-0.00048864,0.23486,0.6002,1.436
10.88,0.67009,-0.00048864,0.24512,0.59531,1.4203
10.888,0.68035,-0.00048864,0.26025,0.58504,1.4047
10.896,0.69013,0.00073296,0.2749,0.56989,1.39
10.904,0.69501,0.0019546,0.29004,0.56989,1.3754
10.912,0.70528,0.0048864,0.30029,0.56012,1.3607
10.92,0.71505,0.0078182,0.31006,0.54985,1.347
10.928,0.72532,0.01075,0.33008,0.54008,1.3333
10.936,0.73509,0.013926,0.35498,0.52493,1.3187
10.944,0.75024,0.016369,0.36523,0.52004,1.304
10.952,0.7654,0.019057,0.38525,0.50489,1.2893
10.96,0.77517,0.021256,0.41016,0.49022,1.2747
10.968,0.78543,0.023699,0.43506,0.47507,1.2639
10.976,0.79521,0.025654,0.45996,0.45992,1.2551
10.984,0.81036,0.027608,0.49512,0.44477,1.2434
10.992,0.81525,0.029074,0.52002,0.42473,1.2268
11,0.81525,0.03054,0.56494,0.3998,1.2131
11.008,0.81525,0.030296,0.58984,0.38514,1.2023
11.016,0.8001,0.030296,0.62012,0.35973,1.1916
11.024,0.78543,0.02883,0.62012,0.35973,1.1808
11.032,0.75024,0.027608,0.59521,0.37488,1.1701
11.04,0.70039,0.026142,0.53516,0.3998,1.1593
11.048,0.65005,0.024921,0.46484,0.45015,1.1505
11.056,0.60997,0.02321,0.37988,0.49511,1.1417
11.064,0.57527,0.021744,0.31982,0.53519,1.1369
11.072,0.54497,0.018324,0.27002,0.56989,1.1339
11.08,0.52981,0.014903,0.24023,0.58993,1.13
11.088,0.51515,0.010017,0.22021,0.6002,1.1261
11.096,0.50978,0.0051307,0.21484,0.60997,1.1222
11.104,0.50978,0.0021989,0.20508,0.60997,1.1183
11.112,0.50978,-0.00048864,0.20508,0.60997,1.1144
11.12,0.52004,-0.00048864,0.2002,0.62023,1.1114
11.128,0.52004,-0.00048864,0.20996,0.60997,1.1085
11.136,0.52004,-0.00048864,0.21484,0.60997,1.1056
11.144,0.52493,-0.00048864,0.21484,0.60508,1.1017
11.152,0.52493,-0.00048864,0.21484,0.60508,1.0958
11.16,0.52981,-0.00048864,0.21484,0.60508,1.089
11.168,0.52493,-0.00048864,0.22021,0.6002,1.085
11.176,0.52981,-0.00048864,0.2251,0.60508,1.086
11.184,0.52981,-0.00048864,0.2251,0.6002,1.0938
11.192,0.52493,-0.00048864,0.2251,0.59531,1.1163
11.2,0.52004,-0.00048864,0.22021,0.6002,1.1652
11.208,0.52004,-0.00048864,0.2251,0.59531,1.2473
11.216,0.51515,-0.00048864,0.22021,0.59531,1.3636
11.224,0.52004,-0.00048864,0.22998,0.59531,1.5132
11.232,0.51515,-0.00048864,0.22021,0.6002,1.6872
11.24,0.51515,-0.00048864,0.22998,0.59531,1.8749
11.248,0.52493,0,0.24512,0.58504,2.0626
11.256,0.54985,0.00073296,0.27002,0.57527,2.2405
11.264,0.57527,0.0092841,0.31006,0.54497,2.3832
11.272,0.60508,0.01808,0.34521,0.52493,2.4976
11.28,0.62023,0.027608,0.37012,0.50978,2.6051
11.288,0.62512,0.037137,0.3999,0.48485,2.697
11.296,0.61486,0.046665,0.41992,0.46481,2.7713
11.304,0.60997,0.056194,0.4502,0.44477,2.826
11.312,0.58504,0.065478,0.41992,0.45992,2.8641
11.32,0.54985,0.074762,0.34521,0.50489,2.8876
11.328,0.52004,0.083802,0.29004,0.55523,2.8983
11.336,0.5,0.092841,0.24023,0.58993,2.8983
11.344,0.49511,0.10139,0.2002,0.62023,2.8895
11.352,0.48485,0.11019,0.18506,0.62512,2.8729
11.36,0.49022,0.11801,0.18994,0.62023,2.8485
11.368,0.49022,0.12582,0.18506,0.63001,2.8192
11.376,0.49022,0.13291,0.18994,0.62023,2.7879
11.384,0.49022,0.14024,0.19531,0.62023,2.7527
11.392,0.5,0.14757,0.18994,0.62023,2.7136
11.4,0.50489,0.1549,0.18994,0.62512,2.6706
11.408,0.49511,0.16247,0.16992,0.63001,2.6246
11.416,0.54008,0.17029,0.075195,0.70039,2.5758
11.424,0.64027,0.17835,0.030273,0.71994,2.523
11.432,0.87048,0.18666,0.68506,0.22483,2.4663
11.44,1.0152,0.19497,1.5,-0.34066,2.4057
11.448,1.0753,0.20327,1.5,-0.50049,2.3412
11.456,0.51515,0.21085,1.3296,-0.095308,2.2727
11.464,0.39492,0.21842,0.71484,0.28495,2.2082
11.472,0.52493,0.22575,0.4502,0.45992,2.1447
11.48,0.57527,0.23308,0.28027,0.56989,2.0723
11.488,0.56989,0.24237,0.21484,0.61486,1.9971
11.496,0.56989,0.25165,0.16992,0.6349,1.9208
11.504,0.56989,0.2624,0.15527,0.65005,1.8456
11.512,0.58016,0.27339,0.14502,0.65494,1.7752
11.52,0.58016,0.28366,0.14502,0.66031,1.7107
11.528,0.58993,0.29392,0.1499,0.65494,1.653
11.536,0.58993,0.30369,0.1499,0.65005,1.6031
11.544,0.59531,0.31371,0.16504,0.64027,1.5601
11.552,0.60508,0.32495,0.17529,0.6349,1.5249
11.56,0.60997,0.33618,0.16504,0.64027,1.4946
11.568,0.61486,0.34889,0.18506,0.62512,1.4731
11.576,0.63001,0.36159,0.19531,0.62023,1.4555
11.584,0.6349,0.37576,0.21484,0.60508,1.4379
11.592,0.65005,0.39018,0.22021,0.6002,1.4213
11.6,0.65494,0.40533,0.24023,0.59531,1.4037
11.608,0.67009,0.42047,0.25,0.58504,1.3871
11.616,0.67498,0.43513,0.26514,0.57527,1.3715
11.624,0.68035,0.44979,0.28516,0.56989,1.3558
11.632,0.69501,0.46421,0.30029,0.56012,1.3402
11.64,0.70039,0.47862,0.30518,0.55523,1.3255
11.648,0.71017,0.49475,0.33008,0.54008,1.3109
11.656,0.71994,0.51112,0.33984,0.52981,1.2962
11.664,0.72532,0.52871,0.36523,0.52004,1.2845
11.672,0.74536,0.54654,0.39014,0.5,1.2747
11.68,0.75024,0.56242,0.41504,0.47996,1.261
11.688,0.7654,0.57855,0.44482,0.45992,1.2463
11.696,0.77028,0.59321,0.4751,0.45015,1.2307
11.704,0.77517,0.60787,0.50488,0.43011,1.216
11.712,0.78006,0.62326,0.53516,0.40469,1.2023
11.72,0.78006,0.63865,0.56494,0.39003,1.1887
11.728,0.78543,0.65453,0.59521,0.37488,1.175
11.736,0.7654,0.67066,0.60986,0.35973,1.1603
11.744,0.73509,0.68581,0.6001,0.35973,1.1476
11.752,0.70039,0.70095,0.55518,0.39003,1.1369
11.76,0.65494,0.71488,0.47021,0.435,1.1261
11.768,0.60997,0.72881,0.39502,0.48485,1.1193
11.776,0.57527,0.7398,0.3252,0.52981,1.1153
11.784,0.54008,0.75104,0.2749,0.56989,1.1095
11.792,0.52493,0.76008,0.24023,0.58993,1.1036
11.8,0.50978,0.76912,0.22021,0.60997,1.0978
11.808,0.50978,0.77718,0.2002,0.62023,1.0919
11.816,0.50489,0.78549,0.18994,0.62512,1.086
11.824,0.5,0.79306,0.2002,0.62023,1.0811
11.832,0.49511,0.80064,0.2002,0.62023,1.0772
11.84,0.5,0.80674,0.20508,0.62023,1.0743
11.848,0.50489,0.8131,0.20508,0.62023,1.0704
11.856,0.50489,0.81847,0.20996,0.61486,1.0665
11.864,0.50489,0.82385,0.21484,0.60508,1.0645
11.872,0.5,0.82971,0.22021,0.59531,1.0626
11.88,0.49511,0.83557,0.23486,0.59531,1.0557
11.888,0.50489,0.84217,0.2251,0.6002,1.0479
11.896,0.49511,0.84901,0.23486,0.59531,1.044
11.904,0.49511,0.85781,0.23486,0.59531,1.0528
11.912,0.5,0.8666,0.2251,0.60508,1.0821
11.92,0.49022,0.87686,0.24023,0.59531,1.1398
11.928,0.49511,0.88712,0.22998,0.6002,1.2317
11.936,0.49511,0.89714,0.2251,0.60508,1.3597
11.944,0.5,0.90716,0.22998,0.59531,1.5181
11.952,0.49022,0.91718,0.24023,0.59531,1.697
11.96,0.49022,0.92719,0.24512,0.59531,1.8612
11.968,0.50489,0.93941,0.26025,0.58504,2.0127
11.976,0.53519,0.95187,0.29004,0.565,2.174
11.984,0.56012,0.9658,0.33008,0.53519,2.3275
11.992,0.58993,0.97997,0.35986,0.52004,2.4624
12,0.59531,0.98998,0.39014,0.49511,2.5748
12.008,0.6002,1,0.41504,0.47507,2.6647
12.016,0.59531,1,0.4502,0.45503,2.737
12.024,0.58993,1,0.48486,0.43011,2.7879
12.032,0.54985,1,0.41992,0.46481,2.8152
12.04,0.52981,1,0.35986,0.51515,2.8299
12.048,0.5,1,0.28516,0.565,2.8338
12.056,0.48485,1,0.2251,0.60997,2.8289
12.064,0.47507,1,0.2002,0.62023,2.8143
12.072,0.47507,1,0.18994,0.63001,2.7937
12.08,0.47507,1,0.19531,0.63001,2.7693
12.088,0.47507,1,0.2002,0.62512,2.741
12.096,0.47507,1,0.2002,0.62023,2.7087
12.104,0.47996,1,0.2002,0.62512,2.6852
12.112,0.48485,1,0.20508,0.61486,2.6637
12.12,0.49022,1,0.20996,0.62023,2.6285
12.128,0.48485,1,0.1499,0.64516,2.5836
12.136,0.55523,1,0.040039,0.72532,2.5318
12.144,0.73021,1,0.25,0.54497,2.4741
12.152,0.9956,1,1.0801,-0.020528,2.4115
12.16,1.1056,1,1.5,-0.50049,2.3519
12.168,0.80499,1,1.5,-0.4306,2.2913
12.176,0.38514,1,1.0098,0.10948,2.2209
12.184,0.3651,1,0.58496,0.37977,2.1437
12.192,0.53519,1,0.39014,0.50978,2.0626
12.2,0.55523,1,0.28027,0.58016,1.9795
12.208,0.55523,1,0.22021,0.61486,1.8964
12.216,0.55523,1,0.18994,0.6349,1.8152
12.224,0.56012,1,0.17529,0.64027,1.739
12.232,0.565,1,0.17529,0.64027,1.6686
12.24,0.58016,1,0.17529,0.64027,1.607
12.248,0.58016,1,0.17529,0.64027,1.5533
12.256,0.58504,1,0.18018,0.6349,1.5064
12.264,0.6002,1,0.18506,0.63001,1.4721
12.272,0.60508,1,0.2002,0.62512,1.4457
12.28,0.61486,1,0.20996,0.62023,1.4194
12.288,0.62512,1,0.2251,0.60508,1.3949
12.296,0.64027,1,0.24023,0.6002,1.3734
12.304,0.65005,1,0.25,0.59531,1.3539
12.312,0.66031,1,0.26514,0.58504,1.3372
12.32,0.67009,1,0.2749,0.56989,1.3206
12.328,0.68524,1,0.29004,0.56989,1.305
12.336,0.69013,1,0.30518,0.55523,1.2893
12.344,0.70039,1,0.31982,0.54985,1.2747
12.352,0.71017,1,0.33984,0.54008,1.26
12.36,0.71994,1,0.3501,0.52493,1.2493
12.368,0.72532,1,0.37012,0.51515,1.2395
12.376,0.74536,1,0.38525,0.50978,1.2278
12.384,0.75024,1,0.40479,0.49511,1.2141
12.392,0.7654,1,0.43018,0.47996,1.2004
12.4,0.77028,1,0.45508,0.47019,1.1867
12.408,0.78543,1,0.48486,0.45015,1.172
12.416,0.78543,1,0.50977,0.43011,1.1574
12.424,0.79032,1,0.54492,0.41496,1.1437
12.432,0.79521,1,0.5752,0.39003,1.13
12.44,0.79521,1,0.61475,0.36999,1.1163
12.448,0.78543,1,0.64014,0.35973,1.1036
12.456,0.7654,1,0.64502,0.34995,1.0909
12.464,0.73998,1,0.61475,0.3651,1.0831
12.472,0.70528,1,0.55518,0.3998,1.0782
12.48,0.65494,1,0.48486,0.44477,1.0704
12.488,0.62512,1,0.40479,0.49022,1.0626
12.496,0.58993,1,0.33496,0.53519,1.0538
12.504,0.56012,1,0.29004,0.56989,1.045
12.512,0.54497,1,0.25488,0.58993,1.0371
12.52,0.52981,1,0.2251,0.60508,1.0293
12.528,0.52493,1,0.22021,0.61486,1.0225
12.536,0.52493,1,0.21484,0.62023,1.0166
12.544,0.52004,0.99511,0.21484,0.62023,1.0117
12.552,0.52004,0.99023,0.22021,0.62023,1.0068
12.56,0.52493,0.95553,0.22021,0.61486,1.0059
12.568,0.52004,0.92108,0.22021,0.60997,1.0068
12.576,0.52493,0.88835,0.2251,0.60997,1.0049
12.584,0.52981,0.85585,0.2251,0.60997,1
12.592,0.52493,0.82482,0.2251,0.60997,0.99316
12.6,0.52981,0.79404,0.2251,0.61486,0.98436
12.608,0.52493,0.76252,0.22998,0.60508,0.97654
12.616,0.52493,0.731,0.22998,0.60997,0.97654
12.624,0.52493,0.69924,0.2251,0.60508,0.99316
12.632,0.52004,0.66748,0.2251,0.60997,1.0371
12.64,0.52493,0.63963,0.22998,0.6002,1.1153
12.648,0.52004,0.61178,0.2251,0.60508,1.2317
12.656,0.52004,0.5871,0.2251,0.60508,1.3851
12.664,0.52493,0.56267,0.2251,0.60508,1.5415
12.672,0.52981,0.5397,0.23486,0.59531,1.7019
12.68,0.54008,0.51698,0.25,0.58504,1.8905
12.688,0.56989,0.49548,0.29004,0.565,2.087
12.696,0.59531,0.47398,0.33008,0.54008,2.2747
12.704,0.62023,0.45443,0.35986,0.52004,2.4428
12.712,0.63001,0.43489,0.39014,0.5,2.5855
12.72,0.62512,0.41705,0.40479,0.49022,2.7019
12.728,0.60508,0.39946,0.4248,0.47019,2.7928
12.736,0.6002,0.38456,0.44482,0.45503,2.8602
12.744,0.56989,0.3699,0.375,0.49022,2.9062
12.752,0.54497,0.3572,0.33008,0.52981,2.9345
12.76,0.52004,0.34449,0.26514,0.57527,2.9453
12.768,0.50978,0.33325,0.20996,0.61486,2.9433
12.776,0.5,0.32201,0.18018,0.6349,2.9355
12.784,0.49511,0.31175,0.18018,0.64027,2.9218
12.792,0.5,0.30149,0.18018,0.64027,2.9013
12.8,0.5,0.29294,0.18018,0.6349,2.8739
12.808,0.50489,0.28463,0.18506,0.6349,2.8416
12.816,0.50978,0.27755,0.18994,0.63001,2.8035
12.824,0.51515,0.27046,0.18994,0.6349,2.7605
12.832,0.51515,0.26411,0.18994,0.63001,2.7126
12.84,0.50978,0.258,0.13525,0.65494,2.6598
12.848,0.57527,0.25214,0.02002,0.73509,2.6022
12.856,0.74536,0.24652,0.29492,0.51515,2.5406
12.864,0.9653,0.2409,1.1851,-0.075269,2.48
12.872,1.1804,0.23552,1.5,-0.50049,2.4194
12.88,0.90518,0.23039,1.5,-0.4609,2.349
12.888,0.42473,0.22551,1.0249,0.099707,2.2727
12.896,0.41984,0.22135,0.58008,0.38514,2.1916
12.904,0.56989,0.2172,0.35986,0.52981,2.1085
12.912,0.58993,0.21354,0.25,0.6002,2.0244
12.92,0.58016,0.20987,0.18994,0.6349,1.9433
12.928,0.58016,0.20621,0.15527,0.65494,1.8651
12.936,0.58504,0.20254,0.13525,0.6652,1.7928
12.944,0.58993,0.19888,0.12988,0.67009,1.7283
12.952,0.59531,0.19546,0.12988,0.6652,1.6716
12.96,0.60508,0.19228,0.13525,0.6652,1.6276
12.968,0.60508,0.18935,0.14014,0.6652,1.5924
12.976,0.61486,0.18666,0.1499,0.66031,1.5582
12.984,0.62023,0.18422,0.16016,0.65005,1.5269
12.992,0.63001,0.18202,0.17529,0.64027,1.4995
13,0.6349,0.18006,0.18506,0.6349,1.4761
13.008,0.65005,0.17811,0.2002,0.62023,1.4545
13.016,0.66031,0.17615,0.22021,0.61486,1.435
13.024,0.67498,0.17396,0.22998,0.60508,1.4164
13.032,0.68035,0.17176,0.24512,0.59531,1.3988
13.04,0.69013,0.16931,0.26025,0.58993,1.3773
13.048,0.70039,0.16687,0.2749,0.58016,1.3587
13.056,0.71505,0.16467,0.29004,0.56989,1.346
13.064,0.71994,0.16272,0.30518,0.56012,1.3363
13.072,0.73509,0.16101,0.31982,0.54985,1.3275
13.08,0.74536,0.1593,0.33984,0.54008,1.3157
13.088,0.75513,0.1571,0.35986,0.52493,1.303
13.096,0.7654,0.15514,0.38525,0.50978,1.2893
13.104,0.77028,0.1527,0.41016,0.5,1.2757
13.112,0.79032,0.1505,0.43506,0.48485,1.261
13.12,0.8001,0.14806,0.45996,0.47019,1.2463
13.128,0.81036,0.14561,0.48486,0.45503,1.2326
13.136,0.81525,0.14293,0.52002,0.435,1.219
13.144,0.82502,0.14024,0.55518,0.41496,1.2063
13.152,0.82014,0.13584,0.58984,0.39492,1.1935
13.16,0.81036,0.13169,0.62012,0.37488,1.1857
13.168,0.78543,0.12582,0.62012,0.36999,1.1789
13.176,0.75024,0.12021,0.58496,0.38514,1.1701
13.184,0.70039,0.11165,0.52002,0.41984,1.1603
13.192,0.65005,0.10335,0.43994,0.47019,1.1515
13.2,0.59531,0.092841,0.35986,0.51515,1.1427
13.208,0.56012,0.082336,0.30029,0.55523,1.1349
13.216,0.52981,0.072074,0.25488,0.58016,1.1281
13.224,0.52004,0.062057,0.2251,0.59531,1.1222
13.232,0.50978,0.05204,0.2002,0.61486,1.1173
13.24,0.50978,0.042023,0.19531,0.62023,1.1134
13.248,0.50489,0.030051,0.2002,0.62023,1.1095
13.256,0.50978,0.01808,0.18994,0.62512,1.1065
13.264,0.50978,0.0087955,0.19531,0.62023,1.1065
13.272,0.50978,-0.00048864,0.2002,0.62023,1.1075
13.28,0.50978,-0.00048864,0.2002,0.62023,1.1065
13.288,0.50978,-0.00048864,0.2002,0.62023,1.1036
13.296,0.51515,-0.00048864,0.20508,0.62023,1.0987
13.304,0.50978,-0.00048864,0.21484,0.60997,1.0909
13.312,0.51515,-0.00048864,0.22021,0.60997,1.0821
13.32,0.50978,-0.00048864,0.22021,0.60508,1.0772
13.328,0.51515,-0.00048864,0.22021,0.60508,1.0831
13.336,0.50978,-0.00048864,0.22021,0.60508,1.1105
13.344,0.51515,-0.00048864,0.22021,0.6002,1.1691
13.352,0.50978,-0.00048864,0.22021,0.60508,1.2639
13.36,0.51515,-0.00048864,0.22021,0.6002,1.3734
13.368,0.50978,-0.00048864,0.22021,0.6002,1.5024
13.376,0.52004,-0.00048864,0.22998,0.59531,1.6725
13.384,0.53519,-0.00048864,0.26025,0.58504,1.8661
13.392,0.565,-0.00048864,0.29492,0.56012,2.0674
13.4,0.59531,-0.00048864,0.33496,0.53519,2.263
13.408,0.61486,-0.00048864,0.36523,0.51515,2.4428
13.416,0.62512,-0.00048864,0.39502,0.49511,2.6002
13.424,0.60508,-0.00048864,0.41016,0.47996,2.7312
13.432,0.59531,-0.00048864,0.43018,0.45992,2.8358
13.44,0.58016,-0.00048864,0.44482,0.45503,2.9169
13.448,0.54985,-0.00048864,0.36523,0.5,2.9756
13.456,0.52493,-0.00048864,0.30518,0.54497,3.0147
13.464,0.5,-0.00048864,0.25,0.58993,3.0332
13.472,0.49022,-0.00048864,0.20508,0.62023,3.0381
13.48,0.48485,-0.00048864,0.18506,0.63001,3.0371
13.488,0.48485,-0.00048864,0.18506,0.63001,3.0293
13.496,0.48485,-0.00048864,0.18506,0.63001,3.0156
13.504,0.49022,-0.00048864,0.18506,0.63001,2.9941
13.512,0.49022,-0.00048864,0.18994,0.62512,2.9668
13.52,0.49511,-0.00048864,0.19531,0.62512,2.9335
13.528,0.50489,-0.00048864,0.19531,0.62023,2.8954
13.536,0.50489,-0.00048864,0.2002,0.62512,2.8524
13.544,0.5,-0.00048864,0.12012,0.67009,2.8055
13.552,0.57527,-0.00048864,0.030273,0.71994,2.7546
13.56,0.75513,-0.00048864,0.40479,0.43011,2.7058
13.568,0.94526,-0.00048864,1.3149,-0.17058,2.6559
13.576,1.1403,-0.00048864,1.5,-0.50049,2.6002
13.584,0.78543,-0.00048864,1.5,-0.37048,2.5396
13.592,0.41007,-0.00048864,0.92969,0.14956,2.4751
13.6,0.49022,-0.00048864,0.54492,0.40469,2.4057
13.608,0.57527,-0.00048864,0.34521,0.53519,2.3314
13.616,0.58016,-0.00048864,0.24023,0.60508,2.2522
13.624,0.58016,-0.00048864,0.18994,0.6349,2.1701
13.632,0.57527,-0.00048864,0.15527,0.65005,2.086
13.64,0.58016,-0.00048864,0.14014,0.6652,2.001
13.648,0.58016,-0.00048864,0.14014,0.67009,1.9189
13.656,0.58504,-0.00048864,0.14014,0.6652,1.8426
13.664,0.58993,-0.00048864,0.14502,0.6652,1.7801
13.672,0.6002,-0.00048864,0.1499,0.66031,1.7283
13.68,0.60508,-0.00048864,0.15527,0.65005,1.6774
13.688,0.60997,-0.00048864,0.16992,0.64027,1.6305
13.696,0.62023,-0.00048864,0.18018,0.6349,1.5885
13.704,0.63001,-0.00048864,0.2002,0.62512,1.5533
13.712,0.64516,-0.00048864,0.20996,0.62023,1.5239
13.72,0.65005,-0.00048864,0.2251,0.60997,1.4985
13.728,0.67009,-0.00048864,0.24023,0.59531,1.4761
13.736,0.67498,-0.00048864,0.25,0.58993,1.4565
13.744,0.69013,-0.00048864,0.27002,0.58504,1.4389
13.752,0.70039,-0.00048864,0.28027,0.56989,1.4233
13.76,0.71017,-0.00048864,0.29492,0.56012,1.4106
13.768,0.71994,-0.00048864,0.31006,0.54985,1.3988
13.776,0.72532,-0.00048864,0.3252,0.54008,1.3851
13.784,0.73998,-0.00048864,0.34521,0.52981,1.3695
13.792,0.75513,-0.00048864,0.36523,0.52004,1.3539
13.8,0.7654,-0.00048864,0.38525,0.50489,1.3382
13.808,0.78006,-0.00048864,0.41504,0.49022,1.3236
13.816,0.79032,-0.00048864,0.43506,0.47996,1.3079
13.824,0.80499,-0.00048864,0.46484,0.45992,1.2923
13.832,0.81036,-0.00048864,0.49512,0.43988,1.2766
13.84,0.82014,-0.00048864,0.5249,0.43011,1.261
13.848,0.81525,-0.00048864,0.56006,0.40469,1.2454
13.856,0.81525,-0.00048864,0.58984,0.38514,1.2346
13.864,0.8001,-0.00048864,0.61475,0.36999,1.2258
13.872,0.77517,-0.00048864,0.62012,0.3651,1.2141
13.88,0.73021,-0.00048864,0.56494,0.38514,1.2014
13.888,0.68524,-0.00048864,0.50488,0.42473,1.1887
13.896,0.6349,-0.00048864,0.41992,0.47019,1.176
13.904,0.58993,-0.00048864,0.3501,0.51515,1.1652
13.912,0.54985,-0.00048864,0.29004,0.54985,1.1544
13.92,0.52981,-0.00048864,0.25,0.57527,1.1457
13.928,0.50978,-0.00048864,0.2251,0.59531,1.1388
13.936,0.50978,-0.00048864,0.20996,0.60508,1.1329
13.944,0.50489,-0.00048864,0.2002,0.61486,1.1281
13.952,0.50489,-0.00048864,0.19531,0.61486,1.1232
13.96,0.50978,-0.00048864,0.2002,0.62023,1.1212
13.968,0.50978,-0.00048864,0.2002,0.62023,1.1222
13.976,0.50978,-0.00048864,0.2002,0.61486,1.1202
13.984,0.50978,-0.00048864,0.20508,0.61486,1.1173
13.992,0.51515,-0.00048864,0.20508,0.60997,1.1114
14,0.51515,-0.00048864,0.21484,0.60997,1.1036
14.008,0.51515,-0.00048864,0.22021,0.60997,1.0938
14.016,0.50978,-0.00048864,0.22021,0.6002,1.0841
14.024,0.50978,-0.00048864,0.22021,0.6002,1.0792
14.032,0.51515,-0.00048864,0.22021,0.59531,1.087
14.04,0.52004,-0.00048864,0.22021,0.59531,1.1163
14.048,0.51515,-0.00048864,0.22021,0.6002,1.1779
14.056,0.50978,-0.00048864,0.22021,0.59531,1.2561
14.064,0.50978,-0.00048864,0.22021,0.59531,1.4086
14.072,0.50978,-0.00048864,0.22021,0.59531,1.5777
14.08,0.50978,-0.00048864,0.2251,0.59531,1.7155
14.088,0.51515,-0.00048864,0.23486,0.58993,1.8915
14.096,0.53519,-0.00048864,0.26025,0.57527,2.0811
14.104,0.56989,-0.00048864,0.29492,0.55523,2.2678
14.112,0.59531,-0.00048864,0.33496,0.52981,2.4389
14.12,0.61486,-0.00048864,0.36523,0.50978,2.5875
14.128,0.62512,-0.00048864,0.39502,0.48485,2.7107
14.136,0.60997,-0.00048864,0.41016,0.47507,2.8084
14.144,0.60508,-0.00048864,0.43506,0.45015,2.8817
14.152,0.58504,-0.00048864,0.43994,0.44477,2.9189
14.16,0.54985,-0.00048864,0.36523,0.49022,2.9257
14.168,0.52004,-0.00048864,0.31494,0.52981,2.9257
14.176,0.50489,-0.00048864,0.25,0.58016,2.9247
14.184,0.49511,-0.00048864,0.20508,0.60997,2.9189
14.192,0.49022,-0.00048864,0.18994,0.62023,2.9071
14.2,0.49022,-0.00048864,0.18994,0.62023,2.8886
14.208,0.49022,-0.00048864,0.18994,0.62023,2.8641
14.216,0.49022,-0.00048864,0.18994,0.62023,2.8358
14.224,0.5,-0.00048864,0.18994,0.62023,2.8025
14.232,0.5,-0.00048864,0.18994,0.62023,2.7664
14.24,0.50978,-0.00048864,0.2002,0.62023,2.7273
14.248,0.50489,-0.00048864,0.18994,0.62023,2.6843
14.256,0.52004,-0.00048864,0.12012,0.6652,2.6422
14.264,0.58504,-0.00048864,0.040039,0.71017,2.5982
14.272,0.7654,-0.00048864,0.43018,0.40469,2.5494
14.28,0.95015,-0.00048864,1.3296,-0.19062,2.4956
14.288,1.1305,-0.00048864,1.5,-0.50049,2.4379
14.296,0.75024,-0.00048864,1.5,-0.34066,2.3754
14.304,0.41496,-0.00048864,0.8999,0.1696,2.3079
14.312,0.50489,-0.00048864,0.53516,0.40469,2.2356
14.32,0.58504,-0.00048864,0.34521,0.53519,2.1593
14.328,0.58993,-0.00048864,0.24512,0.6002,2.0802
14.336,0.58016,-0.00048864,0.19531,0.62512,2
14.344,0.58016,-0.00048864,0.16504,0.64516,1.9208
14.352,0.58016,-0.00048864,0.14502,0.65494,1.8446
14.36,0.58016,-0.00048864,0.14014,0.6652,1.781
14.368,0.58993,0.0019546,0.14014,0.6652,1.7273
14.376,0.6002,0.0046421,0.1499,0.66031,1.6745
14.384,0.60508,0.0083069,0.15527,0.65494,1.6256
14.392,0.60997,0.011972,0.16504,0.64516,1.5816
14.4,0.61486,0.015636,0.17529,0.64027,1.5435
14.408,0.63001,0.019301,0.19531,0.62512,1.5122
14.416,0.63001,0.022722,0.2002,0.62023,1.4858
14.424,0.65005,0.026142,0.21484,0.61486,1.4624
14.432,0.66031,0.029563,0.2251,0.60508,1.4418
14.44,0.67498,0.032983,0.24023,0.6002,1.4233
14.448,0.67498,0.036404,0.25,0.59531,1.4066
14.456,0.69013,0.039824,0.27002,0.58016,1.3949
14.464,0.70039,0.043,0.28516,0.57527,1.3851
14.472,0.71017,0.046176,0.30029,0.565,1.3724
14.48,0.71994,0.049353,0.31494,0.54985,1.3587
14.488,0.73021,0.052529,0.3252,0.54497,1.3431
14.496,0.73998,0.055705,0.33984,0.53519,1.3275
14.504,0.75024,0.058881,0.36523,0.52004,1.3118
14.512,0.76002,0.061813,0.39014,0.50489,1.2962
14.52,0.77028,0.064745,0.41016,0.5,1.2805
14.528,0.78543,0.067677,0.43506,0.47996,1.2659
14.536,0.79521,0.070608,0.45996,0.45992,1.2512
14.544,0.80499,0.073296,0.49512,0.43988,1.2375
14.552,0.81036,0.076228,0.52002,0.42473,1.2248
14.56,0.81036,0.078182,0.56006,0.3998,1.217
14.568,0.81036,0.080381,0.58984,0.37977,1.2102
14.576,0.79521,0.081847,0.61475,0.3651,1.2004
14.584,0.77517,0.083557,0.60986,0.3651,1.1896
14.592,0.73509,0.083313,0.56982,0.37977,1.1789
14.6,0.69013,0.083069,0.50977,0.41984,1.1681
14.608,0.64516,0.081114,0.4248,0.46481,1.1584
14.616,0.6002,0.079404,0.34521,0.52004,1.1496
14.624,0.565,0.075739,0.29492,0.55523,1.1408
14.632,0.54008,0.072319,0.25,0.58504,1.1329
14.64,0.52981,0.067677,0.22021,0.60508,1.1261
14.648,0.51515,0.063279,0.20508,0.60997,1.1202
14.656,0.51515,0.05937,0.2002,0.62023,1.1183
14.664,0.51515,0.055461,0.19531,0.62023,1.1193
14.672,0.51515,0.05204,0.18506,0.62512,1.1193
14.68,0.52004,0.048864,0.18994,0.62023,1.1183
14.688,0.52493,0.045932,0.19531,0.62512,1.1173
14.696,0.52493,0.043245,0.2002,0.62023,1.1144
14.704,0.52493,0.041046,0.2002,0.61486,1.1105
14.712,0.52004,0.038847,0.20508,0.61486,1.1036
14.72,0.51515,0.037625,0.20508,0.61486,1.0938
14.728,0.52493,0.036648,0.21484,0.60997,1.085
14.736,0.52004,0.036648,0.22021,0.60508,1.0811
14.744,0.52493,0.036892,0.21484,0.6002,1.0899
14.752,0.52004,0.038602,0.22021,0.59531,1.1202
14.76,0.52004,0.040557,0.22021,0.60508,1.1672
14.768,0.52004,0.044222,0.22021,0.6002,1.2375
14.776,0.51515,0.047887,0.22021,0.6002,1.347
14.784,0.51515,0.05375,0.21484,0.60508,1.4907
14.792,0.50978,0.059858,0.22021,0.60508,1.6618
14.8,0.51515,0.067677,0.2251,0.59531,1.8485
14.808,0.52981,0.075495,0.23486,0.59531,2.0391
14.816,0.54985,0.083557,0.26025,0.56989,2.2209
14.824,0.58016,0.091864,0.30518,0.54985,2.3871
14.832,0.6002,0.10017,0.33984,0.52981,2.5308
14.84,0.61486,0.10848,0.37012,0.50489,2.65
14.848,0.62023,0.11678,0.39502,0.47996,2.7429
14.856,0.61486,0.12509,0.4248,0.45992,2.8045
14.864,0.60508,0.13315,0.4502,0.45015,2.8426
14.872,0.57527,0.14146,0.3999,0.46481,2.8719
14.88,0.54008,0.14879,0.33496,0.51515,2.8905
14.888,0.51515,0.15612,0.28027,0.56012,2.8974
14.896,0.50489,0.16272,0.22021,0.60508,2.8944
14.904,0.49511,0.16931,0.18506,0.62023,2.8837
14.912,0.49022,0.17591,0.17529,0.63001,2.8651
14.92,0.48485,0.18275,0.17529,0.6349,2.8407
14.928,0.49022,0.18984,0.17529,0.62512,2.8113
14.936,0.49022,0.19692,0.17529,0.6349,2.7781
14.944,0.49511,0.20474,0.17529,0.63001,2.74
14.952,0.5,0.2128,0.18018,0.63001,2.6989
14.96,0.50978,0.22111,0.18506,0.62512,2.6588
14.968,0.5,0.22966,0.14502,0.64516,2.6168
14.976,0.54985,0.23748,0.050293,0.71017,2.5709
14.984,0.6652,0.2453,0.015137,0.72532,2.52
14.992,0.90029,0.25287,0.76514,0.1696,2.4653
15,1.0503,0.26044,1.5,-0.40078,2.4066
15.008,1.0655,0.27046,1.5,-0.50049,2.3431
15.016,0.47019,0.28048,1.2246,-0.030303,2.2757
15.024,0.38514,0.29245,0.64014,0.32991,2.2033
15.032,0.52493,0.30442,0.41016,0.49022,2.1271
15.04,0.565,0.31591,0.27002,0.57527,2.0489
15.048,0.56012,0.32763,0.20508,0.62023,1.9687
15.056,0.565,0.33912,0.15527,0.64516,1.8993
15.064,0.565,0.3506,0.12988,0.6652,1.8368
15.072,0.56989,0.36428,0.13525,0.66031,1.7703
15.08,0.56989,0.37796,0.12988,0.6652,1.7067
15.088,0.57527,0.3936,0.14014,0.66031,1.6393
15.096,0.58016,0.40924,0.1499,0.65005,1.5836
15.104,0.58504,0.42609,0.14502,0.64516,1.5474
15.112,0.58993,0.4432,0.16016,0.64027,1.5152
15.12,0.6002,0.46103,0.15527,0.64516,1.4868
15.128,0.6002,0.47887,0.18018,0.6349,1.4624
15.136,0.60997,0.49548,0.19531,0.62023,1.4409
15.144,0.62512,0.51209,0.2002,0.61486,1.4223
15.152,0.6349,0.52797,0.21484,0.60508,1.4047
15.16,0.64516,0.5441,0.2251,0.59531,1.392
15.168,0.65005,0.56145,0.24512,0.58504,1.3812
15.176,0.6652,0.57904,0.24512,0.58016,1.3675
15.184,0.67498,0.59761,0.27002,0.56989,1.3529
15.192,0.68524,0.61617,0.29004,0.565,1.3372
15.2,0.69013,0.63328,0.30518,0.54985,1.3216
15.208,0.70039,0.65062,0.31494,0.54008,1.306
15.216,0.71017,0.66675,0.33984,0.52493,1.2903
15.224,0.71994,0.68312,0.35986,0.51515,1.2747
15.232,0.73021,0.70071,0.38525,0.5,1.259
15.24,0.74536,0.71854,0.40479,0.49022,1.2434
15.248,0.74536,0.73736,0.43018,0.47507,1.2287
15.256,0.75513,0.75641,0.45996,0.45503,1.218
15.264,0.77028,0.77523,0.49023,0.43988,1.2092
15.272,0.77028,0.79428,0.52002,0.41496,1.1984
15.28,0.77028,0.81261,0.55518,0.39492,1.1867
15.288,0.7654,0.83118,0.58984,0.36999,1.174
15.296,0.74536,0.84706,0.60498,0.35973,1.1623
15.304,0.71994,0.86294,0.58496,0.36999,1.1505
15.312,0.68524,0.87662,0.52979,0.3998,1.1388
15.32,0.64027,0.89054,0.46484,0.44477,1.1281
15.328,0.58993,0.90398,0.38525,0.48485,1.1173
15.336,0.56012,0.91742,0.31982,0.53519,1.1075
15.344,0.53519,0.93037,0.26514,0.565,1.0978
15.352,0.50978,0.94356,0.24023,0.58993,1.089
15.36,0.49511,0.95407,0.22021,0.60508,1.085
15.368,0.49022,0.96482,0.20508,0.60997,1.0841
15.376,0.49511,0.97337,0.2002,0.62023,1.0802
15.384,0.49511,0.98192,0.2002,0.61486,1.0762
15.392,0.5,0.99023,0.20996,0.60997,1.0733
15.4,0.50489,0.99853,0.2002,0.61486,1.0704
15.408,0.50489,0.99927,0.20996,0.60997,1.0674
15.416,0.49511,1,0.22021,0.60508,1.0645
15.424,0.50489,1,0.2251,0.6002,1.0606
15.432,0.50489,1,0.2251,0.59531,1.0538
15.44,0.50489,1,0.22998,0.6002,1.0459
15.448,0.5,1,0.24023,0.59531,1.0381
15.456,0.50489,1,0.23486,0.59531,1.0362
15.464,0.50489,1,0.2251,0.6002,1.045
15.472,0.50489,1,0.22021,0.59531,1.0684
15.48,0.49511,1,0.24023,0.58504,1.1173
15.488,0.50489,1,0.23486,0.59531,1.1994
15.496,0.49511,1,0.22998,0.59531,1.3167
15.504,0.5,1,0.24023,0.59531,1.4673
15.512,0.49022,1,0.23486,0.58993,1.6422
15.52,0.49511,1,0.24512,0.59531,1.8309
15.528,0.50978,1,0.25,0.58504,2.0215
15.536,0.54008,1,0.2749,0.565,2.2023
15.544,0.56012,1,0.3252,0.54008,2.3636
15.552,0.58993,1,0.35986,0.51515,2.5015
15.56,0.6002,1,0.39014,0.49511,2.6012
15.568,0.60508,1,0.43018,0.47507,2.6725
15.576,0.60508,1,0.4502,0.45015,2.7341
15.584,0.60508,1,0.47998,0.43011,2.781
15.592,0.56989,1,0.41992,0.45992,2.8143
15.6,0.54008,1,0.3501,0.50978,2.8338
15.608,0.50489,1,0.29004,0.56012,2.8407
15.616,0.48485,1,0.24023,0.59531,2.8377
15.624,0.47996,1,0.20508,0.61486,2.827
15.632,0.47507,1,0.2002,0.62023,2.8084
15.64,0.48485,1,0.18994,0.62023,2.783
15.648,0.48485,1,0.18506,0.62023,2.7527
15.656,0.48485,1,0.2002,0.62023,2.7195
15.664,0.49022,1,0.2002,0.62023,2.6843
15.672,0.49022,1,0.20508,0.61486,2.6452
15.68,0.5,1,0.19531,0.62023,2.6022
15.688,0.49022,1,0.14502,0.64516,2.5552
15.696,0.56012,1,0.040039,0.71994,2.5044
15.704,0.71994,1,0.18994,0.57527,2.4497
15.712,0.9956,1,0.97998,0.039589,2.3891
15.72,1.1256,1,1.5,-0.49071,2.3236
15.728,0.86022,1,1.5,-0.50049,2.2532
15.736,0.41007,1,1.0498,0.084555,2.1789
15.744,0.37488,1,0.58008,0.37977,2.1007
15.752,0.54008,1,0.37988,0.50978,2.0283
15.76,0.56012,1,0.26514,0.58016,1.9609
15.768,0.55523,1,0.20996,0.61486,1.8866
15.776,0.56012,1,0.18018,0.6349,1.8123
15.784,0.56012,1,0.15527,0.64516,1.7419
15.792,0.56012,1,0.15527,0.65005,1.6774
15.8,0.56989,1,0.15527,0.65005,1.6197
15.808,0.58016,1,0.16016,0.64516,1.5689
15.816,0.58504,1,0.16504,0.64027,1.5239
15.824,0.59531,1,0.17529,0.64027,1.4848
15.832,0.59531,1,0.18506,0.62512,1.4516
15.84,0.60508,1,0.2002,0.62023,1.4233
15.848,0.61486,1,0.20996,0.60997,1.3988
15.856,0.63001,1,0.22998,0.6002,1.3812
15.864,0.6349,1,0.24512,0.58993,1.3666
15.872,0.65005,1,0.27002,0.57527,1.3509
15.88,0.65494,1,0.2749,0.56989,1.3353
15.888,0.67009,1,0.28516,0.565,1.3206
15.896,0.68035,1,0.30029,0.55523,1.3079
15.904,0.69013,1,0.31982,0.54008,1.2952
15.912,0.70039,1,0.33984,0.52981,1.2825
15.92,0.71505,1,0.35498,0.52493,1.2698
15.928,0.71994,1,0.36523,0.51515,1.2581
15.936,0.73998,1,0.38525,0.5,1.2454
15.944,0.74536,1,0.41016,0.48485,1.2326
15.952,0.76002,1,0.43506,0.47507,1.2229
15.96,0.77028,1,0.45996,0.45503,1.2151
15.968,0.78006,1,0.48486,0.43988,1.2043
15.976,0.79032,1,0.51514,0.43011,1.1926
15.984,0.79521,1,0.54492,0.41007,1.1799
15.992,0.80499,1,0.58496,0.38514,1.1681
16,0.80499,1,0.61475,0.35973,1.1564
16.008,0.79521,1,0.64502,0.34995,1.1447
16.016,0.77517,1,0.66016,0.3348,1.1329
16.024,0.75513,1,0.64014,0.34506,1.1212
16.032,0.71505,1,0.58008,0.37977,1.1105
16.04,0.67498,1,0.50977,0.41984,1.0997
16.048,0.6349,1,0.43018,0.47996,1.0899
16.056,0.6002,1,0.36523,0.52004,1.0841
16.064,0.57527,1,0.31006,0.54985,1.0811
16.072,0.56012,1,0.27002,0.57527,1.0743
16.08,0.54008,1,0.24512,0.58993,1.0674
16.088,0.54008,1,0.23486,0.6002,1.0596
16.096,0.53519,1,0.22021,0.60508,1.0518
16.104,0.53519,1,0.22021,0.60508,1.0459
16.112,0.54008,1,0.21484,0.60997,1.0401
16.12,0.54008,1,0.21484,0.60997,1.0362
16.128,0.54008,1,0.22021,0.60997,1.0332
16.136,0.54008,1,0.22021,0.60508,1.0274
16.144,0.54497,1,0.2251,0.6002,1.0205
16.152,0.54008,1,0.2251,0.60508,1.0186
16.16,0.54008,0.9829,0.2251,0.6002,1.0166
16.168,0.54008,0.9658,0.22021,0.6002,1.0117
16.176,0.53519,0.93745,0.2251,0.60508,1.0098
16.184,0.53519,0.90911,0.2251,0.6002,1.0156
16.192,0.53519,0.87662,0.22021,0.6002,1.0411
16.2,0.53519,0.84437,0.22021,0.6002,1.1339
16.208,0.54008,0.80845,0.22021,0.6002,1.2454
16.216,0.54008,0.77278,0.22021,0.6002,1.347
16.224,0.53519,0.73565,0.22021,0.6002,1.4976
16.232,0.53519,0.69851,0.22021,0.6002,1.6804
16.24,0.54985,0.66137,0.24023,0.58993,1.8807
16.248,0.57527,0.62424,0.27002,0.56989,2.0831
16.256,0.6002,0.59101,0.30518,0.54985,2.2522
16.264,0.62512,0.55778,0.34521,0.52981,2.4242
16.272,0.64027,0.52797,0.37988,0.50489,2.5797
16.28,0.64516,0.49841,0.3999,0.49022,2.6804
16.288,0.62512,0.47056,0.41016,0.47507,2.7703
16.296,0.62023,0.44295,0.43506,0.45992,2.8436
16.304,0.58993,0.41681,0.39014,0.47996,2.8974
16.312,0.56012,0.39091,0.33496,0.52004,2.9335
16.32,0.53519,0.36941,0.28027,0.565,2.9541
16.328,0.51515,0.34816,0.21484,0.60997,2.957
16.336,0.50978,0.33081,0.18018,0.63001,2.9443
16.344,0.50489,0.31371,0.17529,0.6349,2.9306
16.352,0.50978,0.29954,0.17529,0.6349,2.9159
16.36,0.50978,0.28537,0.17529,0.63001,2.8915
16.368,0.50978,0.27364,0.17529,0.6349,2.8602
16.376,0.50978,0.26215,0.17529,0.62512,2.8231
16.384,0.51515,0.25336,0.18018,0.6349,2.782
16.392,0.52981,0.24456,0.18506,0.63001,2.7361
16.4,0.51515,0.23821,0.14502,0.64516,2.6852
16.408,0.56012,0.23186,0.024902,0.72532,2.6305
16.416,0.70039,0.22697,0.015137,0.61486,2.5709
16.424,0.92522,0.22233,0.87012,0.12463,2.4878
16.432,1.1457,0.21891,1.5,-0.47556,2.4106
16.44,1.1857,0.21549,1.5,-0.50049,2.3519
16.448,0.50489,0.21256,1.27,-0.040567,2.2815
16.456,0.41496,0.20963,0.66016,0.32502,2.1926
16.464,0.565,0.20694,0.40479,0.49022,2.0938
16.472,0.6002,0.2045,0.26514,0.58504,2.0235
16.48,0.58993,0.20205,0.19531,0.62512,1.9677
16.488,0.59531,0.19985,0.16016,0.64516,1.9013
16.496,0.59531,0.19741,0.13525,0.6652,1.8328
16.504,0.6002,0.19521,0.12988,0.67009,1.7664
16.512,0.6002,0.19179,0.125,0.67009,1.7048
16.52,0.60508,0.18837,0.12988,0.6652,1.6422
16.528,0.60508,0.18373,0.12988,0.6652,1.5904
16.536,0.61486,0.17909,0.14502,0.66031,1.5562
16.544,0.62023,0.17322,0.1499,0.65005,1.5249
16.552,0.63001,0.16736,0.16504,0.64516,1.4956
16.56,0.6349,0.16052,0.18018,0.64027,1.4741
16.568,0.65005,0.15392,0.19531,0.62023,1.4585
16.576,0.66031,0.14757,0.20996,0.61486,1.4428
16.584,0.67498,0.14122,0.22021,0.60508,1.4223
16.592,0.68035,0.13511,0.23486,0.59531,1.4008
16.6,0.69013,0.129,0.25,0.58993,1.3871
16.608,0.70039,0.12216,0.27002,0.58504,1.3763
16.616,0.71017,0.11556,0.28027,0.56989,1.3636
16.624,0.71994,0.10848,0.29492,0.565,1.35
16.632,0.73021,0.10139,0.31006,0.55523,1.3353
16.64,0.74536,0.094796,0.33496,0.54497,1.3216
16.648,0.75513,0.088444,0.35498,0.52981,1.3069
16.656,0.7654,0.082336,0.375,0.51515,1.2962
16.664,0.77028,0.076228,0.39502,0.5,1.2874
16.672,0.79032,0.069142,0.4248,0.48485,1.2776
16.68,0.79032,0.062057,0.4502,0.47507,1.2669
16.688,0.80499,0.053995,0.47998,0.45503,1.2542
16.696,0.81525,0.046176,0.51514,0.435,1.2414
16.704,0.81525,0.037137,0.5498,0.41007,1.2297
16.712,0.82014,0.028341,0.58984,0.39492,1.2141
16.72,0.80499,0.018813,0.61475,0.37488,1.1984
16.728,0.78543,0.0092841,0.625,0.3651,1.1877
16.736,0.75513,0.0043977,0.60498,0.37488,1.1799
16.744,0.71017,-0.00048864,0.54004,0.3998,1.1711
16.752,0.66031,-0.00048864,0.46484,0.45015,1.1662
16.76,0.60997,-0.00048864,0.37988,0.5,1.1623
16.768,0.57527,-0.00048864,0.31494,0.54008,1.1564
16.776,0.54008,-0.00048864,0.26514,0.56989,1.1476
16.784,0.52493,-0.00048864,0.22998,0.59531,1.1398
16.792,0.50978,-0.00048864,0.20996,0.60508,1.1349
16.8,0.50978,-0.00048864,0.2002,0.62023,1.13
16.808,0.50978,-0.00048864,0.19531,0.62023,1.1241
16.816,0.50978,-0.00048864,0.18994,0.62023,1.1193
16.824,0.50978,-0.00048864,0.19531,0.62023,1.1163
16.832,0.50978,-0.00048864,0.19531,0.62023,1.1144
16.84,0.51515,-0.00048864,0.2002,0.62023,1.1114
16.848,0.51515,-0.00048864,0.2002,0.62023,1.1095
16.856,0.52004,-0.00048864,0.2002,0.62023,1.1105
16.864,0.51515,-0.00048864,0.20508,0.62023,1.1085
16.872,0.52004,-0.00048864,0.20996,0.60997,1.1017
16.88,0.52004,-0.00048864,0.21484,0.60508,1.0948
16.888,0.51515,-0.00048864,0.21484,0.60508,1.0938
16.896,0.52004,-0.00048864,0.22021,0.60508,1.1075
16.904,0.52004,-0.00048864,0.22021,0.60997,1.175
16.912,0.50978,-0.00048864,0.21484,0.60508,1.3001
16.92,0.51515,-0.00048864,0.22021,0.60508,1.4037
16.928,0.51515,-0.00048864,0.22021,0.60508,1.5044
16.936,0.51515,-0.00048864,0.22021,0.6002,1.7136
16.944,0.52004,-0.00048864,0.23486,0.59531,1.9267
16.952,0.54497,-0.00048864,0.26514,0.57527,2.0577
16.96,0.58016,-0.00048864,0.31006,0.55523,2.2395
16.968,0.60997,-0.00048864,0.34521,0.52981,2.4575
16.976,0.62512,-0.00048864,0.37012,0.50978,2.6285
16.984,0.63001,-0.00048864,0.39502,0.49022,2.7625
16.992,0.60508,-0.00048864,0.40479,0.47507,2.8651
17,0.60508,-0.00048864,0.43506,0.45503,2.9423
17.008,0.58016,-0.00048864,0.40479,0.47507,2.9912
17.016,0.54985,-0.00048864,0.34521,0.51515,3.0235
17.024,0.51515,-0.00048864,0.29004,0.55523,3.0479
17.032,0.5,-0.00048864,0.23486,0.59531,3.0577
17.04,0.49511,-0.00048864,0.19531,0.62023,3.0567
17.048,0.49511,-0.00048864,0.17529,0.6349,3.044
17.056,0.49511,-0.00048864,0.18018,0.6349,3.0225
17.064,0.49022,-0.00048864,0.18506,0.63001,2.9971
17.072,0.49022,-0.00048864,0.18506,0.63001,2.9668
17.08,0.49511,-0.00048864,0.18994,0.62512,2.9316
17.088,0.50489,-0.00048864,0.19531,0.62512,2.8915
17.096,0.50978,-0.00048864,0.2002,0.62023,2.8475
17.104,0.50978,-0.00048864,0.18018,0.62512,2.8006
17.112,0.50489,-0.00048864,0.090332,0.69501,2.7498
17.12,0.62512,-0.00048864,0.030273,0.73021,2.695
17.128,0.82014,-0.00048864,0.63477,0.28006,2.6373
17.136,1.0103,-0.00048864,1.5,-0.3304,2.5748
17.144,1.1354,-0.00048864,1.5,-0.50049,2.5152
17.152,0.63001,-0.00048864,1.5,-0.21065,2.4545
17.16,0.41496,-0.00048864,0.79492,0.23998,2.3861
17.168,0.52493,-0.00048864,0.48486,0.44477,2.3109
17.176,0.58993,-0.00048864,0.31494,0.55523,2.2317
17.184,0.58504,-0.00048864,0.23486,0.60508,2.1496
17.192,0.58016,-0.00048864,0.18994,0.63001,2.0665
17.2,0.58016,-0.00048864,0.16016,0.64516,1.9844
17.208,0.58016,-0.00048864,0.1499,0.65494,1.9238
17.216,0.58504,-0.00048864,0.1499,0.65494,1.8602
17.224,0.58993,-0.00048864,0.1499,0.65494,1.7801
17.232,0.59531,-0.00048864,0.1499,0.64516,1.7136
17.24,0.60508,-0.00048864,0.16016,0.64516,1.6579
17.248,0.60508,-0.00048864,0.16504,0.64027,1.6168
17.256,0.62023,-0.00048864,0.18018,0.6349,1.5855
17.264,0.62512,-0.00048864,0.19531,0.62023,1.5562
17.272,0.63001,-0.00048864,0.20996,0.61486,1.5298
17.28,0.64516,-0.00048864,0.22021,0.60508,1.5064
17.288,0.65494,-0.00048864,0.23486,0.59531,1.4848
17.296,0.6652,-0.00048864,0.25,0.58993,1.4653
17.304,0.67498,-0.00048864,0.27002,0.57527,1.4477
17.312,0.68524,-0.00048864,0.28027,0.56989,1.4291
17.32,0.70039,-0.00048864,0.29004,0.55523,1.4115
17.328,0.70528,-0.00048864,0.31006,0.54985,1.3939
17.336,0.71994,-0.00048864,0.3252,0.54008,1.3773
17.344,0.73021,-0.00048864,0.34521,0.52493,1.3656
17.352,0.74536,-0.00048864,0.36523,0.51515,1.3558
17.36,0.75513,-0.00048864,0.38525,0.5,1.3431
17.368,0.7654,-0.00048864,0.40479,0.49022,1.3284
17.376,0.78006,-0.00048864,0.43018,0.47996,1.3138
17.384,0.79032,-0.00048864,0.45508,0.46481,1.2991
17.392,0.8001,-0.00048864,0.48486,0.44477,1.2835
17.4,0.81525,-0.00048864,0.52002,0.43011,1.2688
17.408,0.81525,-0.00048864,0.55518,0.40469,1.2532
17.416,0.81525,-0.00048864,0.58984,0.38514,1.2385
17.424,0.80499,-0.00048864,0.62012,0.36999,1.2248
17.432,0.79032,-0.00048864,0.63477,0.35973,1.2121
17.44,0.75513,-0.00048864,0.62012,0.35973,1.2033
17.448,0.71017,-0.00048864,0.5752,0.38514,1.1975
17.456,0.66031,-0.00048864,0.5,0.42473,1.1887
17.464,0.60997,-0.00048864,0.41992,0.47507,1.1799
17.472,0.56989,-0.00048864,0.34521,0.52004,1.1711
17.48,0.54008,-0.00048864,0.29492,0.54985,1.1623
17.488,0.52493,-0.00048864,0.26514,0.56989,1.1544
17.496,0.50978,-0.00048864,0.22998,0.59531,1.1476
17.504,0.50489,-0.00048864,0.22021,0.6002,1.1408
17.512,0.5,-0.00048864,0.21484,0.60508,1.1359
17.52,0.50489,-0.00048864,0.20996,0.60508,1.132
17.528,0.49511,-0.00048864,0.21484,0.60997,1.129
17.536,0.50489,-0.00048864,0.20996,0.60997,1.1261
17.544,0.5,-0.00048864,0.20996,0.60508,1.1261
17.552,0.50978,-0.00048864,0.21484,0.60508,1.1261
17.56,0.50978,-0.00048864,0.21484,0.6002,1.1222
17.568,0.50978,-0.00048864,0.22021,0.6002,1.1134
17.576,0.50978,-0.00048864,0.22021,0.59531,1.1036
17.584,0.50978,-0.00048864,0.22998,0.59531,1.0987
17.592,0.50978,-0.00048864,0.22998,0.59531,1.1056
17.6,0.50978,-0.00048864,0.22998,0.59531,1.1339
17.608,0.50978,-0.00048864,0.22998,0.58993,1.1926
17.616,0.50978,-0.00048864,0.23486,0.58993,1.2884
17.624,0.50978,-0.00048864,0.23486,0.58993,1.4213
17.632,0.50978,-0.00048864,0.22998,0.59531,1.5875
17.64,0.50978,-0.00048864,0.22998,0.59531,1.7478
17.648,0.51515,-0.00048864,0.24023,0.58993,1.9071
17.656,0.52981,-0.00048864,0.25,0.58504,2.089
17.664,0.54985,-0.00048864,0.28516,0.565,2.2708
17.672,0.58016,-0.00048864,0.33008,0.54008,2.4409
17.68,0.60997,-0.00048864,0.35986,0.52004,2.5885
17.688,0.62512,-0.00048864,0.39014,0.49511,2.7107
17.696,0.62023,-0.00048864,0.41504,0.47507,2.8074
17.704,0.60508,-0.00048864,0.43018,0.45992,2.8807
17.712,0.59531,-0.00048864,0.4502,0.44477,2.9326
17.72,0.56012,-0.00048864,0.3999,0.47019,2.9668
17.728,0.53519,-0.00048864,0.34521,0.51515,2.9844
17.736,0.50978,-0.00048864,0.28027,0.56012,2.9892
17.744,0.49022,-0.00048864,0.2251,0.60508,2.9814
17.752,0.48485,-0.00048864,0.19531,0.62023,2.9658
17.76,0.48485,-0.00048864,0.18994,0.62512,2.9453
17.768,0.49022,-0.00048864,0.18506,0.62512,2.9208
17.776,0.48485,-0.00048864,0.18994,0.62023,2.8905
17.784,0.49022,-0.00048864,0.19531,0.62023,2.8563
17.792,0.49511,-0.00048864,0.2002,0.62023,2.8182
17.8,0.50489,-0.00048864,0.2002,0.62023,2.7761
17.808,0.50978,-0.00048864,0.20508,0.61486,2.7312
17.816,0.5,-0.00048864,0.16992,0.6349,2.6833
17.824,0.54497,-0.00048864,0.060059,0.71017,2.6325
17.832,0.67009,-0.00048864,0.044922,0.6002,2.5787
17.84,0.88514,-0.00048864,0.89502,0.099707,2.5269
17.848,1.0704,-0.00048864,1.5,-0.47556,2.4731
17.856,1.1256,-0.00048864,1.5,-0.50049,2.4115
17.864,0.49511,-0.00048864,1.2598,-0.045455,2.3431
17.872,0.41496,-0.00048864,0.68506,0.30987,2.2698
17.88,0.54985,-0.00048864,0.43018,0.47507,2.1916
17.888,0.58016,-0.00048864,0.29492,0.565,2.1095
17.896,0.57527,-0.00048864,0.2251,0.60997,2.0254
17.904,0.58016,-0.00048864,0.18506,0.6349,1.9423
17.912,0.58016,-0.00048864,0.16504,0.64516,1.8631
17.92,0.58504,-0.00048864,0.1499,0.65005,1.7889
17.928,0.58993,-0.00048864,0.1499,0.65005,1.7214
17.936,0.58993,-0.00048864,0.15527,0.65005,1.6608
17.944,0.59531,-0.00048864,0.16016,0.64516,1.6149
17.952,0.60508,-0.00048864,0.16992,0.64027,1.5787
17.96,0.60997,-0.00048864,0.18018,0.63001,1.5435
17.968,0.62023,-0.00048864,0.2002,0.62512,1.5132
17.976,0.62512,-0.00048864,0.20996,0.61486,1.4868
17.984,0.64027,-0.00048864,0.22021,0.60508,1.4633
17.992,0.65005,-0.00048864,0.24512,0.59531,1.4438
18,0.66031,-0.00048864,0.25488,0.58504,1.4252
18.008,0.67009,-0.00048864,0.27002,0.57527,1.4086
18.016,0.67498,-0.00048864,0.28516,0.56989,1.3939
18.024,0.69501,-0.00048864,0.29492,0.565,1.3783
18.032,0.70039,-0.00048864,0.31006,0.55523,1.3627
18.04,0.71017,-0.00048864,0.3252,0.54497,1.3519
18.048,0.71505,-0.00048864,0.33984,0.53519,1.3421
18.056,0.72532,-0.00048864,0.35986,0.52493,1.3304
18.064,0.73509,0.0026875,0.375,0.51515,1.3167
18.072,0.74536,0.0058637,0.3999,0.5,1.3021
18.08,0.7654,0.0085512,0.41992,0.48485,1.2874
18.088,0.77517,0.011483,0.4502,0.47019,1.2727
18.096,0.79032,0.013926,0.47021,0.45503,1.2581
18.104,0.79521,0.016369,0.5,0.435,1.2434
18.112,0.80499,0.01808,0.52979,0.41984,1.2297
18.12,0.81036,0.01979,0.56494,0.3998,1.216
18.128,0.81036,0.020523,0.6001,0.37977,1.2033
18.136,0.8001,0.0215,0.625,0.35973,1.1916
18.144,0.78006,0.020279,0.64014,0.35973,1.1838
18.152,0.74536,0.019057,0.62012,0.35973,1.1779
18.16,0.70528,0.016369,0.56006,0.39492,1.1701
18.168,0.65005,0.013682,0.49023,0.435,1.1613
18.176,0.60508,0.01075,0.41016,0.47996,1.1515
18.184,0.565,0.0078182,0.34521,0.52004,1.1427
18.192,0.54008,0.0046421,0.29492,0.54985,1.1349
18.2,0.52493,0.0014659,0.26514,0.56989,1.1281
18.208,0.51515,0.00048864,0.24512,0.58993,1.1212
18.216,0.50978,-0.00048864,0.2251,0.6002,1.1163
18.224,0.50978,-0.00048864,0.22021,0.6002,1.1114
18.232,0.50978,-0.00048864,0.22021,0.60508,1.1075
18.24,0.50978,-0.00048864,0.2251,0.6002,1.086
18.248,0.50978,-0.00048864,0.22998,0.59531,1.0557
18.256,0.50978,-0.00048864,0.23486,0.59531,1.0391
18.264,0.51515,-0.00048864,0.22998,0.59531,1.0274
18.272,0.52004,-0.00048864,0.24023,0.58993,1.0166
18.28,0.51515,-0.00048864,0.24512,0.59531,1.0059
18.288,0.52493,-0.00048864,0.24023,0.58993,0.99707
18.296,0.51515,-0.00048864,0.24512,0.58993,0.99511
18.304,0.52493,-0.00048864,0.24512,0.58504,1.0078
18.312,0.52004,-0.00048864,0.24512,0.58504,1.044
18.32,0.52004,-0.00048864,0.25,0.58993,1.1134
18.328,0.51515,-0.00048864,0.24512,0.58993,1.2199
18.336,0.52004,-0.00048864,0.25,0.58504,1.3627
18.344,0.51515,-0.00048864,0.25,0.58993,1.5093
18.352,0.51515,-0.00048864,0.25,0.58993,1.6637
18.36,0.51515,-0.00048864,0.25488,0.58504,1.8475
18.368,0.52981,-0.00048864,0.26514,0.57527,2.0401
18.376,0.54497,-0.00048864,0.29004,0.56012,2.2239
18.384,0.57527,-0.00048864,0.33496,0.53519,2.3881
18.392,0.6002,-0.00048864,0.37012,0.51515,2.5279
18.4,0.62023,-0.00048864,0.39502,0.49022,2.6413
18.408,0.63001,-0.00048864,0.4248,0.47019,2.7302
18.416,0.61486,-0.00048864,0.43994,0.45992,2.7957
18.424,0.60997,-0.00048864,0.47021,0.435,2.8407
18.432,0.58016,-0.00048864,0.43506,0.45015,2.87
18.44,0.54985,-0.00048864,0.375,0.49511,2.8817
18.448,0.52493,-0.00048864,0.3252,0.54008,2.8807
18.456,0.50978,-0.00048864,0.26514,0.58504,2.8749
18.464,0.5,-0.00024432,0.2251,0.60508,2.8631
18.472,0.49511,0.00024432,0.21484,0.61486,2.8446
18.48,0.49511,0.0070853,0.20996,0.61486,2.8192
18.488,0.49511,0.013926,0.21484,0.61486,2.7889
18.496,0.49511,0.020767,0.20996,0.61486,2.7537
18.504,0.5,0.027852,0.22021,0.60997,2.7136
18.512,0.50489,0.035182,0.21484,0.60997,2.6696
18.52,0.50978,0.042512,0.22021,0.60997,2.6217
18.528,0.50489,0.050086,0.20508,0.61486,2.5709
18.536,0.53519,0.057904,0.12012,0.67498,2.5181
18.544,0.62512,0.065966,0.064941,0.71017,2.4663
18.552,0.8304,0.074029,0.62988,0.27468,2.4145
18.56,0.98045,0.081603,1.5,-0.32063,2.3568
18.568,1.0704,0.089421,1.5,-0.50049,2.2923
18.576,0.59531,0.096751,1.4946,-0.19062,2.2229
18.584,0.41984,0.10408,0.78516,0.24487,2.1476
18.592,0.52981,0.11165,0.49023,0.44477,2.0684
18.6,0.58504,0.11947,0.3252,0.55523,1.9873
18.608,0.58016,0.12753,0.25,0.6002,1.9052
18.616,0.57527,0.13584,0.20996,0.62512,1.824
18.624,0.58016,0.14415,0.18018,0.64027,1.7478
18.632,0.58016,0.15246,0.16992,0.65005,1.6774
18.64,0.58504,0.16052,0.16504,0.64516,1.6197
18.648,0.59531,0.16882,0.16504,0.65005,1.5728
18.656,0.60508,0.1764,0.16504,0.64516,1.5279
18.664,0.60508,0.18397,0.17529,0.64027,1.4868
18.672,0.62023,0.19081,0.17529,0.64027,1.4516
18.68,0.62023,0.1979,0.19531,0.63001,1.4223
18.688,0.62512,0.20474,0.20508,0.62023,1.3969
18.696,0.63001,0.21158,0.22021,0.61486,1.3754
18.704,0.65005,0.21842,0.22998,0.60997,1.3568
18.712,0.66031,0.22526,0.23486,0.6002,1.3392
18.72,0.67009,0.23235,0.25,0.58993,1.3226
18.728,0.67498,0.23943,0.27002,0.58016,1.306
18.736,0.68524,0.24652,0.28516,0.56989,1.2903
18.744,0.69013,0.25385,0.29004,0.56989,1.2786
18.752,0.70039,0.26142,0.31006,0.54985,1.2688
18.76,0.71017,0.26924,0.3252,0.54008,1.2561
18.768,0.71994,0.2773,0.33984,0.52981,1.2414
18.776,0.73021,0.28561,0.36523,0.52004,1.2258
18.784,0.74536,0.29465,0.38525,0.50489,1.2102
18.792,0.75024,0.30369,0.3999,0.5,1.1945
18.8,0.7654,0.31322,0.41992,0.48485,1.1799
18.808,0.77517,0.32299,0.4502,0.47019,1.1642
18.816,0.78006,0.33154,0.4751,0.45015,1.1486
18.824,0.79032,0.34009,0.50977,0.43011,1.1339
18.832,0.79032,0.34767,0.54004,0.40469,1.1183
18.84,0.79521,0.35548,0.58008,0.38514,1.1075
18.848,0.78543,0.36233,0.60986,0.3651,1.1007
18.856,0.77028,0.36941,0.625,0.35973,1.0909
18.864,0.74536,0.37576,0.60986,0.35973,1.0811
18.872,0.71017,0.38212,0.56006,0.39003,1.0704
18.88,0.66031,0.38749,0.49512,0.42473,1.0587
18.888,0.60997,0.39287,0.41992,0.47019,1.0489
18.896,0.57527,0.39726,0.35498,0.51515,1.0401
18.904,0.55523,0.40191,0.30029,0.54985,1.0323
18.912,0.53519,0.40533,0.26514,0.58016,1.0254
18.92,0.52004,0.40875,0.24023,0.59531,1.0196
18.928,0.50978,0.41119,0.22021,0.60508,1.0137
18.936,0.50978,0.41388,0.21484,0.61486,1.0088
18.944,0.50978,0.41559,0.20508,0.60997,1.0078
18.952,0.51515,0.41754,0.2002,0.62023,1.0078
18.96,0.50978,0.41901,0.20996,0.62023,1.0059
18.968,0.52004,0.42047,0.20508,0.61486,1.0029
18.976,0.50978,0.42194,0.20996,0.62023,1
18.984,0.50978,0.42341,0.21484,0.60997,0.99413
18.992,0.50978,0.42536,0.22021,0.60997,0.98631
19,0.50978,0.42731,0.2251,0.6002,0.97752
19.008,0.51515,0.43122,0.2251,0.6002,0.97263
19.016,0.51515,0.43538,0.2251,0.6002,0.97849
19.024,0.50978,0.441,0.23486,0.59531,1.0049
19.032,0.50978,0.44662,0.2251,0.6002,1.0596
19.04,0.50978,0.45272,0.23486,0.59531,1.131
19.048,0.50978,0.45883,0.23486,0.59531,1.2268
19.056,0.50978,0.46543,0.23486,0.59531,1.3646
19.064,0.50978,0.47227,0.23486,0.59531,1.5357
19.072,0.50978,0.48082,0.22998,0.6002,1.7273
19.08,0.50489,0.48962,0.24512,0.58993,1.9267
19.088,0.51515,0.50012,0.25,0.59531,2.1193
19.096,0.53519,0.51087,0.24512,0.57527,2.2962
19.104,0.565,0.52284,0.31006,0.54985,2.4506
19.112,0.58993,0.53506,0.3501,0.52004,2.5787
19.12,0.61486,0.54801,0.37012,0.50978,2.6804
19.128,0.62512,0.56096,0.40479,0.49022,2.7566
19.136,0.61486,0.57317,0.43018,0.47019,2.8104
19.144,0.62023,0.58539,0.47021,0.43988,2.8407
19.152,0.6002,0.59712,0.47998,0.435,2.8543
19.16,0.55523,0.60909,0.37012,0.49022,2.8612
19.168,0.52981,0.62204,0.31982,0.54008,2.8592
19.176,0.50489,0.63523,0.25488,0.58504,2.8485
19.184,0.49511,0.6494,0.2002,0.62023,2.8309
19.192,0.48485,0.66382,0.19531,0.62512,2.8055
19.2,0.48485,0.6775,0.2002,0.62512,2.7742
19.208,0.48485,0.69142,0.19531,0.62512,2.737
19.216,0.48485,0.70511,0.18994,0.62023,2.697
19.224,0.49022,0.71903,0.2002,0.61486,2.653
19.232,0.49511,0.73565,0.19531,0.62023,2.6051
19.24,0.5,0.7525,0.20508,0.60508,2.5582
19.248,0.49511,0.77205,0.18994,0.62023,2.5103
19.256,0.52493,0.79184,0.1001,0.68035,2.4575
19.264,0.61486,0.81407,0.030273,0.72532,2.3998
19.272,0.84506,0.83631,0.52979,0.33969,2.3382
19.28,1.0352,0.86,1.4648,-0.26051,2.2717
19.288,1.0953,0.88395,1.5,-0.50049,2.2004
19.296,0.58993,0.90618,1.5,-0.1955,2.1251
19.304,0.37977,0.92866,0.75488,0.26491,2.045
19.312,0.49022,0.94991,0.46484,0.45503,1.9619
19.32,0.55523,0.97117,0.30518,0.56012,1.8788
19.328,0.56012,0.98559,0.22021,0.60997,1.7967
19.336,0.55523,1,0.18506,0.6349,1.7273
19.344,0.55523,1,0.1499,0.65494,1.6676
19.352,0.56989,1,0.14014,0.6652,1.6061
19.36,0.56989,1,0.12988,0.66031,1.5494
19.368,0.58016,1,0.12988,0.6652,1.4976
19.376,0.58016,1,0.14502,0.65494,1.4526
19.384,0.58993,1,0.1499,0.64516,1.4145
19.392,0.59531,1,0.16016,0.64516,1.3822
19.4,0.6002,1,0.16992,0.64027,1.3548
19.408,0.60508,1,0.18018,0.6349,1.3314
19.416,0.61486,1,0.19531,0.62023,1.3109
19.424,0.63001,1,0.20508,0.62023,1.2913
19.432,0.63001,1,0.22021,0.60508,1.2727
19.44,0.65005,1,0.24023,0.59531,1.259
19.448,0.65494,1,0.23486,0.59531,1.2483
19.456,0.65494,1,0.26514,0.58016,1.2346
19.464,0.67009,1,0.2749,0.56989,1.2199
19.472,0.68524,1,0.28516,0.565,1.2043
19.48,0.69013,1,0.30029,0.55523,1.1887
19.488,0.70039,1,0.33008,0.54008,1.173
19.496,0.70528,1,0.33496,0.53519,1.1564
19.504,0.71017,1,0.3501,0.52493,1.1408
19.512,0.71994,1,0.37988,0.5,1.1251
19.52,0.73509,1,0.40479,0.48485,1.1095
19.528,0.74536,1,0.43506,0.47507,1.0948
19.536,0.75513,1,0.45508,0.45503,1.085
19.544,0.7654,1,0.48486,0.43988,1.0782
19.552,0.77028,1,0.52002,0.41496,1.0684
19.56,0.77028,1,0.54492,0.3998,1.0577
19.568,0.7654,1,0.58008,0.37977,1.0469
19.576,0.74536,1,0.60498,0.35973,1.0362
19.584,0.73021,1,0.60986,0.3651,1.0254
19.592,0.70039,1,0.56982,0.37977,1.0147
19.6,0.66031,1,0.5,0.41984,1.0049
19.608,0.61486,1,0.4248,0.47019,0.99511
19.616,0.58016,1,0.35498,0.51515,0.98631
19.624,0.55523,1,0.30518,0.54985,0.97849
19.632,0.52981,1,0.26514,0.58016,0.97165
19.64,0.51515,1,0.24023,0.59531,0.96872
19.648,0.50489,1,0.22021,0.60508,0.96774
19.656,0.5,1,0.22021,0.61486,0.96481
19.664,0.50489,1,0.22021,0.61486,0.9609
19.672,0.50489,1,0.22021,0.60997,0.95699
19.68,0.50978,1,0.2251,0.60997,0.95308
19.688,0.50978,1,0.23486,0.59531,0.95015
19.696,0.50978,1,0.24512,0.59531,0.94624
19.704,0.50978,1,0.24512,0.59531,0.94037
19.712,0.51515,1,0.25,0.59531,0.93255
19.72,0.52493,1,0.25488,0.58016,0.92278
19.728,0.52493,1,0.26514,0.58016,0.91593
19.736,0.52981,1,0.26514,0.58016,0.91691
19.744,0.52493,1,0.27002,0.58016,0.93157
19.752,0.52981,1,0.27002,0.57527,0.96579
19.76,0.52493,1,0.27002,0.58016,1.0293
19.768,0.52981,1,0.27002,0.58016,1.131
19.776,0.53519,1,0.27002,0.58504,1.2698
19.784,0.52981,1,0.27002,0.58016,1.4418
19.792,0.53519,1,0.26514,0.58504,1.6354
19.8,0.52981,1,0.26025,0.58993,1.8387
19.808,0.53519,1,0.27002,0.58016,2.0391
19.816,0.56012,1,0.29492,0.56012,2.2248
19.824,0.59531,1,0.33496,0.54008,2.3871
19.832,0.62512,1,0.37012,0.52004,2.5239
19.84,0.64516,1,0.40479,0.49511,2.6207
19.848,0.65005,1,0.43018,0.47507,2.6901
19.856,0.6349,1,0.43994,0.46481,2.7488
19.864,0.63001,1,0.47021,0.44477,2.7937
19.872,0.6349,1,0.47998,0.435,2.824
19.88,0.58993,1,0.39014,0.47996,2.8407
19.888,0.56989,1,0.33984,0.52493,2.8456
19.896,0.54008,1,0.27002,0.57527,2.8397
19.904,0.53519,1,0.22021,0.60508,2.825
19.912,0.52981,1,0.2002,0.62023,2.8025
19.92,0.53519,1,0.2002,0.62023,2.7732
19.928,0.53519,1,0.2002,0.62023,2.738
19.936,0.53519,1,0.2002,0.62023,2.6999
19.944,0.53519,1,0.2002,0.62023,2.6588
19.952,0.54497,1,0.2002,0.62023,2.6139
19.96,0.54497,1,0.2002,0.62023,2.564
19.968,0.54985,1,0.18994,0.61486,2.5093
19.976,0.54008,1,0.1001,0.68035,2.4506
19.984,0.65494,1,0.035156,0.71994,2.3871
19.992,0.87537,1,0.53516,0.34995,2.3187
20,1.0953,1,1.5,-0.28055,2.2454
20.008,1.2004,1,1.5,-0.50049,2.1672
20.016,0.69501,1,1.5,-0.25562,2.0841
20.024,0.41984,1,0.81006,0.22972,1.998
20.032,0.52981,1,0.49023,0.435,1.911
20.04,0.60508,1,0.31982,0.55523,1.8358
20.048,0.60508,1,0.2251,0.60997,1.7683
20.056,0.6002,1,0.18506,0.6349,1.6979
20.064,0.60508,0.99707,0.15527,0.65005,1.6305
20.072,0.60508,0.99414,0.14014,0.66031,1.5689
20.08,0.60508,0.9719,0.13525,0.6652,1.5142
20.088,0.61486,0.94967,0.13525,0.6652,1.4682
20.096,0.61486,0.92915,0.14014,0.65494,1.4291
20.104,0.62023,0.90862,0.1499,0.65494,1.3969
20.112,0.63001,0.88932,0.16016,0.64516,1.3695
20.12,0.6349,0.87027,0.16992,0.64027,1.347
20.128,0.64516,0.85048,0.18018,0.63001,1.3275
20.136,0.65494,0.83069,0.2002,0.62023,1.3138
20.144,0.66031,0.81041,0.22021,0.60997,1.304
20.152,0.67498,0.79013,0.22998,0.6002,1.2923
20.16,0.68035,0.77181,0.24512,0.59531,1.2805
20.168,0.69501,0.75348,0.26025,0.58016,1.2688
20.176,0.70528,0.73662,0.2749,0.56989,1.2571
20.184,0.71505,0.71977,0.29004,0.565,1.2444
20.192,0.71994,0.70266,0.30518,0.55523,1.2317
20.2,0.73509,0.68581,0.31982,0.54985,1.219
20.208,0.73998,0.6687,0.33984,0.54497,1.2063
20.216,0.75024,0.6516,0.35986,0.52493,1.1935
20.224,0.76002,0.63474,0.375,0.51515,1.1808
20.232,0.77517,0.61813,0.3999,0.5,1.1681
20.24,0.79032,0.60176,0.43018,0.48485,1.1584
20.248,0.79521,0.58563,0.45508,0.47019,1.1515
20.256,0.81036,0.57097,0.48486,0.45503,1.1417
20.264,0.81525,0.55656,0.52002,0.43011,1.131
20.272,0.82014,0.54312,0.5498,0.41007,1.1202
20.28,0.81525,0.52993,0.58984,0.39003,1.1095
20.288,0.81525,0.51527,0.625,0.36999,1.1212
20.296,0.79521,0.50086,0.64502,0.34995,1.1457
20.304,0.77517,0.48497,0.64014,0.35484,1.1525
20.312,0.73509,0.46934,0.59521,0.37977,1.1515
20.32,0.69501,0.45419,0.5249,0.41496,1.1466
20.328,0.64027,0.43904,0.43994,0.46481,1.1398
20.336,0.6002,0.42389,0.36523,0.50978,1.1369
20.344,0.56989,0.40875,0.30518,0.54985,1.1359
20.352,0.54497,0.39067,0.26514,0.56989,1.1329
20.36,0.53519,0.37259,0.23486,0.59531,1.13
20.368,0.52493,0.35182,0.21484,0.60508,1.1261
20.376,0.51515,0.33105,0.20508,0.60997,1.1232
20.384,0.52004,0.30858,0.20508,0.61486,1.1212
20.392,0.52004,0.28634,0.20508,0.61486,1.1202
20.4,0.52004,0.26338,0.20996,0.61486,1.1193
20.408,0.52493,0.24041,0.20996,0.60997,1.1183
20.416,0.52004,0.22013,0.21484,0.60997,1.1163
20.424,0.52493,0.19985,0.22021,0.60997,1.1124
20.432,0.52493,0.18202,0.22021,0.60508,1.1056
20.44,0.52493,0.16443,0.22021,0.6002,1.1017
20.448,0.52493,0.14781,0.22021,0.60508,1.1026
20.456,0.52004,0.1312,0.22021,0.6002,1.1095
20.464,0.52004,0.11581,0.22021,0.6002,1.132
20.472,0.52493,0.10042,0.2251,0.59531,1.1808
20.48,0.51515,0.088199,0.2251,0.6002,1.2649
20.488,0.51515,0.075983,0.22021,0.60508,1.3871
20.496,0.52004,0.066211,0.22021,0.60508,1.5464
20.504,0.51515,0.056682,0.22021,0.6002,1.7351
20.512,0.51515,0.04862,0.2251,0.6002,1.9413
20.52,0.53519,0.040557,0.25,0.58504,2.1505
20.528,0.55523,0.033716,0.28516,0.565,2.3509
20.536,0.59531,0.027119,0.3252,0.54008,2.5122
20.544,0.61486,0.021744,0.36523,0.52004,2.6413
20.552,0.63001,0.016369,0.39014,0.49511,2.7644
20.56,0.62023,0.012216,0.41016,0.47507,2.871
20.568,0.60508,0.0080625,0.4248,0.46481,2.956
20.576,0.58993,0.0051307,0.44482,0.45503,3.0205
20.584,0.56012,0.0024432,0.37988,0.47996,3.0655
20.592,0.53519,0.00097728,0.33008,0.52004,3.0929
20.6,0.50978,-0.00048864,0.26514,0.56989,3.1065
20.608,0.5,-0.00048864,0.20996,0.61486,3.1085
20.616,0.49022,-0.00048864,0.18506,0.62512,3.0997
20.624,0.49022,-0.00048864,0.18018,0.63001,3.0821
20.632,0.48485,-0.00048864,0.18018,0.62512,3.0577
20.64,0.49022,-0.00048864,0.18018,0.63001,3.0274
20.648,0.49022,-0.00048864,0.18018,0.62512,2.9922
20.656,0.5,-0.00048864,0.18994,0.62023,2.9531
20.664,0.50489,-0.00048864,0.18994,0.62023,2.9101
20.672,0.50978,-0.00048864,0.19531,0.62023,2.8631
20.68,0.5,-0.00048864,0.14502,0.64516,2.8123
20.688,0.55523,-0.00048864,0.030273,0.72532,2.7576
20.696,0.70528,-0.00048864,0.24512,0.54497,2.6999
20.704,0.91007,-0.00048864,1.04,0.0043988,2.6393
20.712,1.1153,-0.00048864,1.5,-0.50049,2.5748
20.72,1.1256,-0.00048864,1.5,-0.50049,2.5064
20.728,0.45503,-0.00048864,1.1396,0.029814,2.433
20.736,0.41984,-0.00048864,0.625,0.34506,2.3636
20.744,0.56989,-0.00048864,0.39014,0.50489,2.2962
20.752,0.58504,-0.00048864,0.27002,0.58016,2.219
20.76,0.58016,-0.00048864,0.20508,0.62023,2.1378
20.768,0.58016,-0.00048864,0.16992,0.64027,2.0547
20.776,0.58016,-0.00048864,0.1499,0.65494,1.9746
20.784,0.58504,-0.00048864,0.14014,0.6652,1.8983
20.792,0.58993,-0.00048864,0.14014,0.6652,1.828
20.8,0.59531,-0.00048864,0.14502,0.6652,1.7654
20.808,0.6002,-0.00048864,0.1499,0.66031,1.7107
20.816,0.60508,-0.00048864,0.15527,0.64516,1.6637
20.824,0.60997,-0.00048864,0.16992,0.64027,1.6237
20.832,0.62512,-0.00048864,0.18506,0.63001,1.5894
20.84,0.63001,-0.00048864,0.2002,0.62023,1.564
20.848,0.64027,-0.00048864,0.21484,0.60997,1.5445
20.856,0.65494,-0.00048864,0.22998,0.60508,1.5259
20.864,0.6652,-0.00048864,0.24023,0.59531,1.5073
20.872,0.67498,-0.00048864,0.26025,0.58504,1.4888
20.88,0.68035,-0.00048864,0.27002,0.58016,1.4712
20.888,0.69501,-0.00048864,0.28516,0.56989,1.4536
20.896,0.70039,-0.00048864,0.29492,0.565,1.436
20.904,0.71017,-0.00048864,0.31494,0.55523,1.4184
20.912,0.71994,-0.00048864,0.33496,0.54497,1.4018
20.92,0.73509,-0.00048864,0.3501,0.52981,1.3842
20.928,0.74536,-0.00048864,0.375,0.52004,1.3666
20.936,0.76002,-0.00048864,0.39014,0.50489,1.3529
20.944,0.7654,-0.00048864,0.41504,0.49511,1.3421
20.952,0.78006,-0.00048864,0.43994,0.47996,1.3284
20.96,0.79032,-0.00048864,0.46484,0.46481,1.3128
20.968,0.8001,-0.00048864,0.49512,0.45015,1.2972
20.976,0.81525,-0.00048864,0.5249,0.43011,1.2815
20.984,0.81525,-0.00048864,0.56494,0.40469,1.2669
20.992,0.81036,-0.00048864,0.6001,0.38514,1.2532
21,0.79521,-0.00048864,0.62012,0.3651,1.2395
21.008,0.77517,-0.00048864,0.62988,0.35973,1.2278
21.016,0.73998,-0.00048864,0.6001,0.37977,1.217
21.024,0.68524,-0.00048864,0.53516,0.41007,1.2063
21.032,0.6349,-0.00048864,0.45508,0.45503,1.1994
21.04,0.58504,-0.00048864,0.37988,0.50489,1.1945
21.048,0.54985,-0.00048864,0.31982,0.54008,1.1877
21.056,0.52004,-0.00048864,0.2749,0.565,1.1799
21.064,0.50978,-0.00048864,0.23486,0.59531,1.1711
21.072,0.49511,-0.00048864,0.21484,0.60508,1.1632
21.08,0.5,-0.00048864,0.2002,0.61486,1.1564
21.088,0.49022,-0.00048864,0.2002,0.61486,1.1505
21.096,0.49022,-0.00048864,0.2002,0.62023,1.1457
21.104,0.49511,-0.00048864,0.19531,0.62023,1.1417
21.112,0.49511,-0.00048864,0.2002,0.62023,1.1388
21.12,0.5,-0.00048864,0.2002,0.62023,1.1349
21.128,0.5,-0.00048864,0.2002,0.62023,1.129
21.136,0.5,-0.00048864,0.20508,0.61486,1.1251
21.144,0.50489,-0.00048864,0.20996,0.61486,1.1222
21.152,0.5,-0.00048864,0.20996,0.61486,1.1163
21.16,0.5,-0.00048864,0.21484,0.61486,1.1144
21.168,0.5,-0.00048864,0.21484,0.60997,1.1261
21.176,0.5,-0.00048864,0.22021,0.60997,1.1603
21.184,0.49511,-0.00048864,0.22021,0.60508,1.2258
21.192,0.5,-0.00048864,0.22021,0.60997,1.3294
21.2,0.5,-0.00048864,0.22021,0.60997,1.4702
21.208,0.5,-0.00048864,0.22021,0.6002,1.6432
21.216,0.5,-0.00048864,0.22021,0.6002,1.8368
21.224,0.5,-0.00048864,0.22021,0.59531,2.0391
21.232,0.51515,-0.00048864,0.24023,0.58504,2.2131
21.24,0.54497,-0.00048864,0.2749,0.56989,2.3636
21.248,0.57527,-0.00048864,0.31982,0.54497,2.5152
21.256,0.6002,-0.00048864,0.35498,0.52493,2.653
21.264,0.60508,-0.00048864,0.37988,0.5,2.7693
21.272,0.60997,-0.00048864,0.40479,0.47996,2.8622
21.28,0.58504,-0.00048864,0.41504,0.46481,2.9326
21.288,0.58993,-0.00048864,0.43506,0.45503,2.9824
21.296,0.54497,-0.00048864,0.375,0.48485,3.0147
21.304,0.52004,-0.00048864,0.3252,0.52981,3.0323
21.312,0.49022,-0.00048864,0.26025,0.57527,3.0371
21.32,0.48485,-0.00048864,0.21484,0.61486,3.0313
21.328,0.47996,-0.00048864,0.18018,0.63001,3.0166
21.336,0.47996,-0.00048864,0.17529,0.64027,2.9941
21.344,0.47996,-0.00048864,0.17529,0.6349,2.9648
21.352,0.48485,-0.00048864,0.18018,0.6349,2.9316
21.36,0.48485,-0.00048864,0.18018,0.63001,2.8944
21.368,0.49022,-0.00048864,0.18506,0.62512,2.8543
21.376,0.49511,-0.00048864,0.18018,0.62512,2.8104
21.384,0.50489,-0.00048864,0.18506,0.62512,2.7634
21.392,0.49022,-0.00048864,0.13525,0.65494,2.7126
21.4,0.54497,-0.00048864,0.024902,0.73021,2.6598
21.408,0.69013,-0.00048864,0.2251,0.56012,2.6041
21.416,0.89052,-0.00048864,1.02,0.0097752,2.5445
21.424,1.0704,-0.00048864,1.5,-0.50049,2.4809
21.432,1.0806,-0.00048864,1.5,-0.48583,2.4213
