Time [s], RESP, PLETH, II, V, AVR
0,1,0.52981,0.64118,0.19412,0.43945
0.008,1,0.52688,0.62549,0.18824,0.44531
0.016,1,0.52395,0.5902,0.19412,0.48438
0.024,1,0.52004,0.56078,0.2098,0.51562
0.032,1,0.51711,0.52549,0.2451,0.56445
0.04,1,0.51417,0.5,0.27843,0.60547
0.048,1,0.51222,0.48039,0.31373,0.64062
0.056,1,0.51026,0.46471,0.33529,0.66016
0.064,1,0.50831,0.44902,0.34902,0.67578
0.072,1,0.50635,0.4451,0.37059,0.68555
0.08,1,0.5044,0.44902,0.38431,0.68945
0.088,1,0.50147,0.43922,0.38039,0.69531
0.096,1,0.49951,0.4549,0.38431,0.68945
0.104,1,0.49756,0.4451,0.38039,0.69531
0.112,1,0.4956,0.4549,0.37451,0.69531
0.12,1,0.49365,0.44902,0.38039,0.68945
0.128,1,0.49169,0.4451,0.37059,0.68555
0.136,1,0.48974,0.4451,0.37451,0.68945
0.144,1,0.48876,0.46078,0.37059,0.67969
0.152,1,0.4868,0.46078,0.37059,0.67969
0.16,1,0.48583,0.46471,0.36471,0.67578
0.168,1,0.48387,0.46471,0.3549,0.66992
0.176,1,0.48192,0.46078,0.35882,0.66992
0.184,1,0.48094,0.46471,0.3549,0.66406
0.192,1,0.47898,0.46078,0.35882,0.66992
0.2,1,0.47703,0.47059,0.3549,0.66406
0.208,1,0.47507,0.47451,0.34902,0.66992
0.216,1,0.4741,0.47059,0.3549,0.66992
0.224,1,0.47214,0.46078,0.37451,0.67578
0.232,1,0.47116,0.46471,0.38039,0.66406
0.24,1,0.47019,0.4902,0.4,0.65039
0.248,1,0.47214,0.5098,0.40392,0.63477
0.256,1,0.47507,0.52941,0.4,0.60938
0.264,1,0.48192,0.56471,0.38039,0.58008
0.272,1,0.49169,0.58039,0.36471,0.57031
0.28,1,0.50538,0.58039,0.3451,0.56055
0.288,1,0.52199,0.5549,0.32941,0.58008
0.296,1,0.54252,0.51569,0.33529,0.61523
0.304,1,0.56403,0.47451,0.32941,0.66016
0.312,1,0.58651,0.44902,0.32941,0.67578
0.32,1,0.60899,0.43529,0.32941,0.68555
0.328,1,0.6305,0.42549,0.32941,0.69531
0.336,1,0.65005,0.42941,0.32941,0.68945
0.344,1,0.66764,0.43529,0.32941,0.68945
0.352,1,0.68231,0.43529,0.32941,0.68555
0.36,1,0.69208,0.43529,0.32941,0.69531
0.368,1,0.69892,0.42941,0.32941,0.68945
0.376,1,0.70479,0.42549,0.3549,0.71484
0.384,1,0.7087,0.5,0.36471,0.67578
0.392,1,0.71065,0.70588,0.27843,0.44922
0.4,1,0.71163,0.95098,0.16863,0.32422
0.408,1,0.71065,1.0275,-0.10588,0.32031
0.416,1,0.7087,0.50588,-0.35294,0.74414
0.424,1,0.70674,0.14314,-0.50196,0.92969
0.432,1,0.70381,0.04902,-0.47255,0.95508
0.44,1,0.6999,0.18431,-0.22745,0.81055
0.448,1,0.69599,0.32941,0.078431,0.69922
0.456,1,0.6911,0.4098,0.26471,0.66016
0.464,1,0.68622,0.43922,0.32353,0.64453
0.472,1,0.68035,0.4549,0.3451,0.64453
0.48,1,0.67351,0.44902,0.36471,0.65039
0.488,1,0.66569,0.46078,0.37451,0.65039
0.496,1,0.65689,0.46471,0.37451,0.65039
0.504,1,0.64712,0.46078,0.38039,0.65039
0.512,1,0.63832,0.4549,0.38039,0.65039
0.52,1,0.62854,0.4549,0.37451,0.65039
0.528,1,0.61877,0.46078,0.38039,0.64453
0.536,1,0.60899,0.46078,0.37451,0.64453
0.544,1,0.60117,0.46471,0.37451,0.63477
0.552,1,0.59433,0.46078,0.37451,0.64453
0.56,1,0.58847,0.46078,0.37451,0.64453
0.568,1,0.58358,0.47059,0.37059,0.63477
0.576,1,0.57869,0.48431,0.36471,0.62891
0.584,1,0.5738,0.48431,0.36471,0.61914
0.592,1,0.56891,0.48431,0.35882,0.61914
0.6,1,0.56403,0.5,0.3549,0.60547
0.608,1,0.55914,0.51569,0.3451,0.58984
0.616,1,0.55621,0.52941,0.32941,0.57031
0.624,1,0.5523,0.5451,0.31961,0.55469
0.632,1,0.54936,0.57059,0.3,0.52539
0.64,1,0.54741,0.5902,0.27843,0.5
0.648,1,0.54545,0.59608,0.2549,0.49023
0.656,1,0.54448,0.6098,0.23333,0.46094
0.664,1,0.54154,0.62549,0.2098,0.44531
0.672,1,0.53959,0.62941,0.20392,0.43945
0.68,1,0.53763,0.6,0.20392,0.46484
0.688,1,0.5347,0.58039,0.20392,0.49414
0.696,1,0.53177,0.5451,0.23333,0.53906
0.704,1,0.52786,0.5098,0.24902,0.58398
0.712,1,0.52493,0.48431,0.27843,0.625
0.72,1,0.52199,0.46078,0.33529,0.6543
0.728,0.99707,0.51906,0.46078,0.36471,0.67578
0.736,0.99316,0.51515,0.44902,0.37451,0.69531
0.744,0.98143,0.51222,0.43922,0.37451,0.69922
0.752,0.96872,0.50831,0.43529,0.3902,0.71484
0.76,0.9521,0.50538,0.43529,0.39412,0.7207
0.768,0.93451,0.50342,0.44902,0.38431,0.70508
0.776,0.913,0.50049,0.46471,0.38039,0.69922
0.784,0.8915,0.49756,0.46078,0.3902,0.69922
0.792,0.86706,0.4956,0.46078,0.38431,0.69922
0.8,0.8436,0.49365,0.46471,0.37451,0.69531
0.808,0.81818,0.49169,0.4549,0.37059,0.69922
0.816,0.79179,0.48974,0.43922,0.37451,0.69922
0.824,0.7566,0.48778,0.43529,0.37059,0.70508
0.832,0.72141,0.48583,0.46471,0.34902,0.68555
0.84,0.67937,0.48289,0.47059,0.34902,0.67969
0.848,0.63636,0.47996,0.46078,0.35882,0.68555
0.856,0.58651,0.47801,0.46078,0.3549,0.68555
0.864,0.53666,0.47605,0.48431,0.34902,0.67578
0.872,0.48192,0.47312,0.46078,0.35882,0.68945
0.88,0.42815,0.47019,0.4549,0.36471,0.68555
0.888,0.3783,0.46725,0.46078,0.34902,0.68945
0.896,0.32942,0.46432,0.46471,0.36471,0.69531
0.904,0.28446,0.46139,0.4451,0.3902,0.68555
0.912,0.24047,0.45943,0.43922,0.41569,0.67578
0.92,0.19648,0.45846,0.51569,0.4,0.64062
0.928,0.15249,0.46041,0.56078,0.39412,0.59961
0.936,0.11046,0.4653,0.56471,0.3902,0.58398
0.944,0.068426,0.47312,0.56471,0.35882,0.58008
0.952,0.034213,0.48583,0.58039,0.32941,0.57422
0.96,0,0.49756,0.55098,0.33529,0.5957
0.968,0,0.51222,0.5,0.33922,0.64062
0.976,0,0.52981,0.48039,0.32353,0.66992
0.984,0,0.54839,0.4549,0.32941,0.68555
0.992,0,0.56794,0.41569,0.33922,0.69922
1,0,0.58651,0.4098,0.32941,0.70508
1.008,0,0.60411,0.44902,0.31373,0.68555
1.016,0,0.61975,0.43529,0.32941,0.68555
1.024,0,0.63245,0.4451,0.33529,0.67969
1.032,0,0.64223,0.43529,0.31961,0.68555
1.04,0,0.65103,0.43922,0.32941,0.67969
1.048,0,0.65591,0.41961,0.37451,0.7207
1.056,0,0.65885,0.51961,0.38039,0.64062
1.064,0,0.6608,0.78039,0.17451,0.33984
1.072,0,0.6608,0.99216,0.078431,0.26562
1.08,0,0.6608,0.77059,0.14314,0.61523
1.088,0,0.65885,0.37059,0.033333,1.0488
1.096,0,0.65689,0.0078431,-0.17647,1.2051
1.104,0,0.65298,-0.086275,-0.22745,1.2188
1.112,0,0.64809,0.1098,-0.082353,0.95508
1.12,0,0.64223,0.2902,0.14902,0.76953
1.128,0,0.63539,0.41961,0.27451,0.64453
1.136,0,0.62659,0.4451,0.30392,0.625
1.144,0,0.61779,0.4451,0.32941,0.625
1.152,0,0.60899,0.46078,0.32941,0.61914
1.16,0,0.6002,0.46471,0.33529,0.61523
1.168,0,0.59238,0.44902,0.3549,0.62891
1.176,0,0.58358,0.48039,0.34902,0.60938
1.184,0,0.5738,0.4902,0.34902,0.60547
1.192,0,0.56403,0.47451,0.33922,0.61523
1.2,0,0.55425,0.48431,0.33922,0.60938
1.208,0,0.54545,0.44902,0.34902,0.625
1.216,0,0.53763,0.46471,0.33529,0.60938
1.224,0,0.53079,0.5,0.3098,0.58398
1.232,0,0.52395,0.53529,0.3,0.57031
1.24,0,0.51711,0.50588,0.33922,0.58398
1.248,0,0.51026,0.5,0.32353,0.58008
1.256,0,0.5044,0.50588,0.31961,0.58398
1.264,0,0.49951,0.5,0.30392,0.58008
1.272,0,0.49267,0.52941,0.28431,0.56445
1.28,0,0.48778,0.56078,0.25882,0.53516
1.288,0,0.48192,0.57059,0.26863,0.51953
1.296,0,0.47801,0.56471,0.24902,0.5
1.304,0,0.47507,0.61961,0.23333,0.46484
1.312,0,0.47312,0.62549,0.21373,0.44531
1.32,0,0.47116,0.61961,0.18824,0.42578
1.328,0,0.46823,0.62941,0.1549,0.41016
1.336,0,0.46628,0.64118,0.13922,0.39453
1.344,0,0.46334,0.6451,0.11961,0.39453
1.352,0,0.45943,0.61961,0.11373,0.41992
1.36,0,0.4565,0.57451,0.16863,0.4707
1.368,0,0.45259,0.53529,0.19412,0.52539
1.376,0,0.44868,0.49412,0.23922,0.58008
1.384,0,0.44575,0.4549,0.2902,0.62891
1.392,0,0.44184,0.47059,0.3098,0.64453
1.4,0,0.43891,0.4549,0.3451,0.66992
1.408,0,0.435,0.43922,0.38039,0.68555
1.416,0,0.41056,0.44902,0.38431,0.68945
1.424,0,0.37439,0.4549,0.4,0.68555
1.432,0,0.35386,0.46078,0.4,0.68945
1.44,0,0.34213,0.43529,0.40392,0.69922
1.448,0,0.33529,0.42941,0.39412,0.69922
1.456,0,0.3304,0.47451,0.3549,0.67578
1.464,0,0.32649,0.49412,0.38039,0.66406
1.472,0,0.32356,0.4451,0.40392,0.67578
1.48,0,0.31965,0.43529,0.37451,0.68555
1.488,0,0.31574,0.4549,0.35882,0.66992
1.496,0,0.31183,0.46471,0.3549,0.66016
1.504,0,0.30792,0.4549,0.37451,0.67578
1.512,0,0.30303,0.47451,0.35882,0.66406
1.52,0,0.29912,0.46078,0.37059,0.66016
1.528,0,0.29423,0.47059,0.3549,0.66992
1.536,0,0.29032,0.47451,0.34902,0.6543
1.544,0,0.28641,0.46471,0.3451,0.66016
1.552,0,0.2825,0.4451,0.3549,0.67578
1.56,0.00097752,0.27957,0.46078,0.34902,0.66992
1.568,0.0029325,0.27761,0.46078,0.3902,0.67578
1.576,0.0078201,0.27566,0.48039,0.39412,0.6543
1.584,0.012708,0.2737,0.48431,0.4,0.64453
1.592,0.017595,0.27175,0.51569,0.40392,0.625
1.6,0.022483,0.27077,0.52941,0.4,0.60938
1.608,0.028348,0.27273,0.58039,0.39412,0.58008
1.616,0.033236,0.27859,0.5902,0.38431,0.57422
1.624,0.039101,0.28739,0.55098,0.3549,0.58398
1.632,0.044966,0.3001,0.52941,0.3451,0.59961
1.64,0.050831,0.31574,0.49412,0.3451,0.63477
1.648,0.057674,0.33431,0.4549,0.34902,0.66406
1.656,0.064516,0.35288,0.42941,0.3451,0.68555
1.664,0.071359,0.37048,0.42549,0.3451,0.69531
1.672,0.078201,0.38905,0.43529,0.34902,0.68555
1.68,0.086022,0.40762,0.43922,0.32941,0.67578
1.688,0.092864,0.4262,0.41961,0.3451,0.67969
1.696,0.099707,0.44379,0.42549,0.3451,0.68555
1.704,0.10557,0.45846,0.43922,0.33529,0.67969
1.712,0.11144,0.47019,0.43922,0.3451,0.67969
1.72,0.11828,0.47996,0.44902,0.37059,0.68945
1.728,0.12414,0.4868,0.52549,0.37451,0.64453
1.736,0.13001,0.49071,0.73529,0.21373,0.38477
1.744,0.13587,0.49462,0.97059,0.1098,0.27539
1.752,0.14076,0.49658,0.98627,0.052941,0.53906
1.76,0.14565,0.4956,0.43922,0.1549,0.98438
1.768,0.14956,0.49462,0.07451,-0.12745,1.1641
1.776,0.15347,0.49169,-0.076471,-0.19608,1.1895
1.784,0.1564,0.48778,0.07451,-0.096078,0.96875
1.792,0.15934,0.48192,0.26471,0.12353,0.78516
1.8,0.16129,0.47507,0.38039,0.27451,0.66406
1.808,0.16325,0.46725,0.42549,0.32941,0.62891
1.816,0.16325,0.45846,0.43922,0.34902,0.625
1.824,0.16325,0.44868,0.43922,0.36471,0.625
1.832,0.16227,0.43891,0.4451,0.37059,0.61523
1.84,0.16129,0.42815,0.4549,0.37059,0.60938
1.848,0.16031,0.41838,0.46078,0.37451,0.60938
1.856,0.15934,0.40958,0.46471,0.37451,0.61523
1.864,0.15738,0.40274,0.47059,0.37451,0.60547
1.872,0.1564,0.39394,0.47451,0.37059,0.60547
1.88,0.15543,0.38612,0.48039,0.37059,0.59961
1.888,0.15445,0.38025,0.48431,0.37059,0.5957
1.896,0.15347,0.37341,0.4902,0.36471,0.58984
1.904,0.15347,0.36852,0.49412,0.36471,0.58984
1.912,0.15249,0.36266,0.49412,0.36471,0.5957
1.92,0.15249,0.35875,0.5,0.35882,0.5957
1.928,0.15249,0.35484,0.5098,0.3549,0.58398
1.936,0.15249,0.35093,0.5098,0.34902,0.58398
1.944,0.15445,0.34897,0.5098,0.3451,0.58008
1.952,0.1564,0.348,0.52941,0.33529,0.56445
1.96,0.15934,0.348,0.53529,0.32353,0.55078
1.968,0.16227,0.34897,0.5549,0.3098,0.5293
1.976,0.16716,0.348,0.57451,0.29412,0.50586
1.984,0.17302,0.34702,0.58431,0.27451,0.48438
1.992,0.18084,0.34409,0.6,0.2549,0.46484
2,0.18768,0.34115,0.61961,0.23333,0.44531
2.008,0.1955,0.33724,0.62549,0.21373,0.42969
2.016,0.20332,0.33431,0.62941,0.20392,0.42578
2.024,0.21114,0.3304,0.61569,0.20392,0.43945
2.032,0.21896,0.32747,0.5902,0.2098,0.47461
2.04,0.22972,0.32356,0.5549,0.23333,0.51562
2.048,0.23949,0.32063,0.52549,0.26863,0.56445
2.056,0.2522,0.31965,0.49412,0.30392,0.59961
2.064,0.26393,0.31769,0.47451,0.3451,0.62891
2.072,0.27566,0.31476,0.46078,0.37059,0.6543
2.08,0.28837,0.31183,0.4549,0.38431,0.66992
2.088,0.3001,0.3089,0.4549,0.4,0.67969
2.096,0.31183,0.30596,0.44902,0.4,0.68555
2.104,0.32454,0.30303,0.43922,0.4,0.68945
2.112,0.33822,0.30108,0.4451,0.4,0.68945
2.12,0.35288,0.29912,0.43922,0.4,0.68555
2.128,0.36755,0.29717,0.4549,0.4,0.68555
2.136,0.38221,0.29521,0.46078,0.3902,0.67578
2.144,0.39785,0.2913,0.46078,0.38431,0.67578
2.152,0.41251,0.28837,0.4549,0.38039,0.67578
2.16,0.42815,0.28543,0.46078,0.37451,0.66992
2.168,0.44086,0.28152,0.46078,0.37059,0.66992
2.176,0.45357,0.27761,0.46078,0.36471,0.66016
2.184,0.4653,0.2737,0.46471,0.35882,0.6543
2.192,0.47605,0.27077,0.47059,0.35882,0.6543
2.2,0.48583,0.26882,0.48039,0.3549,0.6543
2.208,0.49658,0.26491,0.47059,0.34902,0.6543
2.216,0.50538,0.26197,0.47451,0.3549,0.6543
2.224,0.51417,0.25806,0.47451,0.34902,0.6543
2.232,0.52199,0.25513,0.47451,0.36471,0.6543
2.24,0.52884,0.25122,0.47451,0.37451,0.66016
2.248,0.53568,0.24927,0.48431,0.38039,0.6543
2.256,0.54154,0.24927,0.4902,0.39412,0.64453
2.264,0.54839,0.24927,0.5098,0.4098,0.62891
2.272,0.55425,0.24829,0.52549,0.41961,0.61523
2.28,0.56109,0.25024,0.5549,0.40392,0.58984
2.288,0.56696,0.25513,0.58039,0.39412,0.57031
2.296,0.5738,0.26295,0.5902,0.38039,0.56055
2.304,0.57967,0.2737,0.58431,0.35882,0.56055
2.312,0.58651,0.28837,0.56471,0.3451,0.57422
2.32,0.59335,0.30596,0.52549,0.34902,0.60938
2.328,0.6002,0.32649,0.48431,0.3549,0.65039
2.336,0.60606,0.34702,0.46078,0.35882,0.66406
2.344,0.6129,0.36852,0.44902,0.35882,0.67578
2.352,0.61975,0.38807,0.43922,0.3549,0.67578
2.36,0.62854,0.40469,0.43922,0.3549,0.67578
2.368,0.63734,0.42033,0.4451,0.3549,0.67578
2.376,0.64809,0.43597,0.43922,0.34902,0.67578
2.384,0.65885,0.44966,0.43529,0.34902,0.67969
2.392,0.66862,0.46041,0.43529,0.36471,0.67578
2.4,0.67937,0.46921,0.43922,0.3902,0.70508
2.408,0.68915,0.4741,0.5451,0.36471,0.64062
2.416,0.6999,0.47801,0.78039,0.29412,0.41602
2.424,0.71163,0.47996,1.0314,0.13333,0.32031
2.432,0.72336,0.47996,1.0608,-0.12157,0.48047
2.44,0.73705,0.47801,0.46078,-0.39804,0.77539
2.448,0.75073,0.47507,0.084314,-0.50196,0.93945
2.456,0.76442,0.47214,0.029412,-0.40196,0.94922
2.464,0.77908,0.46921,0.18824,-0.14706,0.79492
2.472,0.79277,0.46432,0.32941,0.1549,0.69922
2.48,0.80743,0.45943,0.4,0.31373,0.66992
2.488,0.82014,0.45259,0.41569,0.37059,0.66406
2.496,0.83382,0.44575,0.41961,0.4,0.66992
2.504,0.84653,0.43695,0.42941,0.41569,0.66406
2.512,0.85826,0.42815,0.43529,0.41569,0.66016
2.52,0.87195,0.42033,0.42941,0.41961,0.66406
2.528,0.88465,0.41251,0.44902,0.41961,0.6543
2.536,0.89736,0.40469,0.4549,0.41569,0.66016
2.544,0.91105,0.39687,0.43529,0.41961,0.66406
2.552,0.92278,0.39101,0.4549,0.4098,0.6543
2.56,0.93451,0.38514,0.4549,0.40392,0.6543
2.568,0.94526,0.38025,0.46078,0.40392,0.65039
2.576,0.95601,0.37439,0.46078,0.4,0.6543
2.584,0.96774,0.36755,0.47451,0.4,0.64062
2.592,0.97947,0.36266,0.48039,0.4,0.63477
2.6,0.99022,0.35875,0.4902,0.39412,0.625
2.608,1,0.35484,0.49412,0.38431,0.625
2.616,1,0.35093,0.50588,0.38039,0.61523
2.624,1,0.34702,0.5,0.37451,0.60938
2.632,1,0.34311,0.51569,0.37059,0.59961
2.64,1,0.34018,0.52549,0.3549,0.58398
2.648,1,0.33627,0.5451,0.33922,0.57031
2.656,1,0.33431,0.56471,0.32353,0.54492
2.664,1,0.33333,0.57451,0.30392,0.52539
2.672,1,0.33333,0.6,0.27843,0.5
2.68,1,0.33236,0.61569,0.24902,0.4707
2.688,1,0.33138,0.62549,0.22941,0.46484
2.696,1,0.32942,0.61961,0.21961,0.45508
2.704,1,0.32747,0.60588,0.2098,0.4707
2.712,1,0.32649,0.58039,0.21961,0.5
2.72,1,0.32551,0.5451,0.23333,0.53906
2.728,1,0.32454,0.51569,0.26471,0.57422
2.736,1,0.32258,0.48431,0.3,0.60938
2.744,1,0.3216,0.47059,0.32353,0.63477
2.752,1,0.3216,0.46471,0.34902,0.6543
2.76,1,0.3216,0.4549,0.37059,0.66406
2.768,1,0.32063,0.44902,0.37451,0.67578
2.776,1,0.32063,0.46078,0.38039,0.66992
2.784,1,0.31965,0.47451,0.38039,0.66016
2.792,1,0.31965,0.46078,0.38431,0.66406
2.8,1,0.31867,0.47059,0.37451,0.66992
2.808,1,0.31867,0.47059,0.38431,0.66406
2.816,1,0.31867,0.48431,0.37451,0.6543
2.824,1,0.31867,0.51961,0.37059,0.625
2.832,1,0.31867,0.56078,0.39412,0.58398
2.84,1,0.31769,0.63529,0.4098,0.51953
2.848,1,0.31672,0.7098,0.36471,0.42969
2.856,1,0.31574,0.77647,0.3,0.31055
2.864,1,0.31476,0.91176,0.19412,0.064453
2.872,1,0.31476,1.0569,0.052941,-0.28516
2.88,1,0.31378,1.0961,-0.082353,-0.49805
2.888,1,0.31281,0.71569,0.17451,-0.45312
2.896,1,0.31281,0.47451,1.1471,0.24023
2.904,1,0.31281,0.52941,1.5039,0.68945
2.912,1,0.31281,0.50588,1.5039,0.85547
2.92,1,0.31281,0.42549,0.5451,0.79883
2.928,1,0.31476,0.38431,0.27451,0.80469
2.936,1,0.31769,0.38039,0.2549,0.81445
2.944,1,0.32258,0.39412,0.2451,0.81445
2.952,1,0.3304,0.4,0.22353,0.81445
2.96,1,0.3392,0.4098,0.21961,0.81055
2.968,1,0.35191,0.3902,0.2098,0.80469
2.976,1,0.36852,0.38431,0.19412,0.80469
2.984,1,0.38807,0.36471,0.18431,0.82031
2.992,1,0.40958,0.3549,0.18431,0.83984
3,1,0.43304,0.33529,0.19412,0.85547
3.008,1,0.45748,0.32941,0.18824,0.86523
3.016,1,0.47996,0.32353,0.18431,0.86914
3.024,1,0.50049,0.32353,0.17451,0.86914
3.032,1,0.51808,0.31961,0.16471,0.875
3.04,1,0.53177,0.31961,0.14314,0.87891
3.048,1,0.54154,0.32353,0.13333,0.88477
3.056,1,0.54839,0.32941,0.1098,0.88477
3.064,1,0.5523,0.33529,0.078431,0.89453
3.072,1,0.55523,0.32353,0.039216,0.9043
3.08,1,0.55718,0.33922,0.0039216,0.9043
3.088,1,0.55718,0.3451,-0.05098,0.91016
3.096,1,0.55914,0.3549,-0.10196,0.89453
3.104,1,0.56012,0.36471,-0.16275,0.87891
3.112,1,0.56207,0.3902,-0.21176,0.84961
3.12,1,0.565,0.40392,-0.26275,0.81445
3.128,1,0.56794,0.43529,-0.28235,0.76562
3.136,1,0.56891,0.43529,-0.27647,0.72461
3.144,1,0.56989,0.43922,-0.24314,0.68555
3.152,1,0.56989,0.42941,-0.19216,0.66992
3.16,1,0.56794,0.41569,-0.11765,0.66992
3.168,1,0.565,0.4098,-0.031373,0.67578
3.176,1,0.56012,0.40392,0.058824,0.66406
3.184,1,0.55523,0.41961,0.14902,0.66016
3.192,1,0.54839,0.41569,0.23922,0.66992
3.2,1,0.54154,0.44902,0.32941,0.65039
3.208,1,0.53372,0.49412,0.38431,0.61914
3.216,1,0.5259,0.57059,0.43922,0.57422
3.224,1,0.51808,0.67059,0.44902,0.49023
3.232,1,0.51026,0.8902,0.39412,0.27539
3.24,1,0.50342,1.1412,0.2902,-0.10938
3.248,1,0.49658,1.1961,0.2,-0.41992
3.256,1,0.49169,0.8,0.16863,-0.49805
3.264,1,0.4868,0.48039,0.41961,-0.25977
3.272,1,0.48094,0.088235,1.0608,0.49414
3.28,1,0.47703,-0.24314,1.5039,1.3887
3.288,1,0.4741,-0.31765,1.5039,1.5
3.296,1,0.47312,0.17843,1.402,1.125
3.304,1,0.47214,0.4098,0.5,0.81445
3.312,1,0.47214,0.48039,0.29412,0.73438
3.32,1,0.47214,0.49412,0.27451,0.72461
3.328,1,0.47312,0.5,0.25882,0.72461
3.336,1,0.47312,0.48039,0.25882,0.74414
3.344,1,0.4741,0.4549,0.2549,0.75977
3.352,1,0.4741,0.42549,0.25882,0.76953
3.36,1,0.4741,0.4098,0.2549,0.78516
3.368,1,0.47507,0.40392,0.25882,0.78906
3.376,1,0.47507,0.4098,0.26471,0.7793
3.384,1,0.47507,0.41569,0.26471,0.78516
3.392,1,0.47703,0.42941,0.2549,0.79492
3.4,1,0.47801,0.46471,0.23333,0.75
3.408,1,0.47898,0.49412,0.23333,0.72461
3.416,1,0.47996,0.5098,0.21961,0.71484
3.424,1,0.47996,0.52549,0.20392,0.70898
3.432,1,0.47898,0.52549,0.18431,0.70508
3.44,1,0.47703,0.52941,0.15882,0.70508
3.448,1,0.47605,0.56078,0.11961,0.69531
3.456,1,0.4741,0.58039,0.084314,0.67578
3.464,1,0.49365,0.6098,0.039216,0.6543
3.472,1,0.52395,0.6451,-0.011765,0.625
3.48,1,0.54057,0.68627,-0.066667,0.57422
3.488,1,0.54936,0.71569,-0.10196,0.5293
3.496,1,0.55425,0.72157,-0.12157,0.49023
3.504,1,0.55718,0.7098,-0.10196,0.4707
3.512,1,0.56012,0.68627,-0.066667,0.4707
3.52,1,0.56012,0.6549,-0.011765,0.48438
3.528,1,0.56012,0.62549,0.043137,0.49414
3.536,1,0.55914,0.58431,0.12941,0.5293
3.544,1,0.55718,0.56471,0.2,0.56055
3.552,1,0.55621,0.5451,0.26863,0.58008
3.56,1,0.55523,0.50588,0.3451,0.61523
3.568,1,0.55425,0.47059,0.4,0.64062
3.576,1,0.55327,0.46078,0.42941,0.65039
3.584,1,0.55132,0.44902,0.44902,0.66016
3.592,1,0.54839,0.43529,0.46078,0.67578
3.6,1,0.54545,0.42941,0.4549,0.67969
3.608,0.98729,0.54252,0.4549,0.43529,0.68555
3.616,0.97556,0.53959,0.47451,0.42549,0.66992
3.624,0.95406,0.53666,0.41569,0.47059,0.69531
3.632,0.93353,0.53372,0.39412,0.46471,0.70508
3.64,0.90518,0.52981,0.43529,0.44902,0.68945
3.648,0.87683,0.52688,0.41961,0.4451,0.69922
3.656,0.84262,0.52395,0.4,0.46078,0.70898
3.664,0.80841,0.52199,0.42549,0.4451,0.69531
3.672,0.77322,0.51906,0.43529,0.42941,0.68945
3.68,0.73803,0.51711,0.4,0.4549,0.70898
3.688,0.70186,0.51613,0.39412,0.44902,0.71484
3.696,0.66569,0.51515,0.40392,0.4549,0.71484
3.704,0.62268,0.5132,0.3902,0.4549,0.7207
3.712,0.57967,0.51124,0.38039,0.4451,0.72461
3.72,0.53079,0.50929,0.39412,0.4451,0.71484
3.728,0.48192,0.50733,0.38039,0.44902,0.72461
3.736,0.43011,0.50538,0.34902,0.44902,0.73438
3.744,0.3783,0.50342,0.36471,0.4549,0.72461
3.752,0.32551,0.50244,0.38039,0.4451,0.71484
3.76,0.27273,0.50147,0.36471,0.44902,0.72461
3.768,0.22678,0.50147,0.37451,0.4451,0.72461
3.776,0.18084,0.50244,0.3902,0.42941,0.7207
3.784,0.14076,0.50342,0.36471,0.4451,0.72461
3.792,0.10068,0.50538,0.36471,0.43529,0.72461
3.8,0.062561,0.50733,0.38039,0.41961,0.7207
3.808,0.024438,0.51026,0.38431,0.42941,0.71484
3.816,0.01173,0.5132,0.37451,0.42549,0.7207
3.824,0,0.51808,0.37059,0.41569,0.72461
3.832,0,0.52297,0.39412,0.40392,0.70898
3.84,0,0.52884,0.37059,0.42549,0.7207
3.848,0,0.5347,0.36471,0.41961,0.73047
3.856,0,0.53959,0.36471,0.41569,0.72461
3.864,0,0.54545,0.37451,0.4098,0.72461
3.872,0,0.55034,0.4,0.3902,0.70508
3.88,0,0.55425,0.41569,0.4,0.69531
3.888,0,0.55718,0.35882,0.4098,0.72461
3.896,0,0.55914,0.34902,0.41961,0.73047
3.904,0,0.56012,0.41569,0.38039,0.69922
3.912,0,0.56109,0.40392,0.39412,0.70508
3.92,0,0.56012,0.37059,0.4,0.7207
3.928,0,0.55816,0.38039,0.3902,0.71484
3.936,0,0.55523,0.39412,0.39412,0.70508
3.944,0,0.55034,0.38039,0.38431,0.71484
3.952,0,0.54545,0.41569,0.38039,0.69531
3.96,0,0.54154,0.39412,0.37451,0.69922
3.968,0,0.53568,0.36471,0.40392,0.7207
3.976,0,0.52981,0.39412,0.38039,0.70508
3.984,0,0.52395,0.40392,0.37059,0.69922
3.992,0,0.51808,0.37059,0.4,0.71484
4,0,0.51124,0.3902,0.38039,0.69922
4.008,0,0.50538,0.42941,0.35882,0.68555
4.016,0,0.50049,0.4,0.38431,0.69531
4.024,0,0.4956,0.37451,0.39412,0.70898
4.032,0,0.49169,0.39412,0.37451,0.69531
4.04,0,0.48876,0.38431,0.38431,0.69922
4.048,0,0.4868,0.41961,0.37451,0.68555
4.056,0,0.48583,0.42549,0.35882,0.67969
4.064,0,0.48387,0.40392,0.37451,0.69531
4.072,0,0.48289,0.39412,0.37059,0.69922
4.08,0,0.48094,0.4098,0.37059,0.68945
4.088,0,0.47996,0.41569,0.37451,0.68945
4.096,0,0.47801,0.4098,0.3902,0.68555
4.104,0,0.47605,0.41569,0.37451,0.67578
4.112,0,0.47507,0.4098,0.37059,0.68945
4.12,0,0.47312,0.42941,0.35882,0.67578
4.128,0,0.47019,0.4,0.38039,0.69531
4.136,0,0.46921,0.42549,0.35882,0.67969
4.144,0,0.46725,0.43922,0.3451,0.67578
4.152,0,0.46628,0.42549,0.33529,0.66992
4.16,0,0.4653,0.40392,0.36471,0.68555
4.168,0.00097752,0.46334,0.4098,0.37451,0.68945
4.176,0.0029325,0.46237,0.42941,0.37451,0.67969
4.184,0.030303,0.46041,0.43529,0.37059,0.67578
4.192,0.057674,0.45846,0.41569,0.38431,0.68945
4.2,0.088954,0.4565,0.46078,0.37451,0.66406
4.208,0.12023,0.45552,0.4549,0.4,0.6543
4.216,0.15445,0.45455,0.50588,0.38039,0.625
4.224,0.18964,0.45357,0.51569,0.38431,0.60547
4.232,0.22483,0.45259,0.53922,0.3902,0.58398
4.24,0.261,0.45161,0.53529,0.37059,0.5957
4.248,0.29423,0.45064,0.56471,0.33529,0.57031
4.256,0.32845,0.44868,0.57451,0.32941,0.5957
4.264,0.35973,0.44673,0.48039,0.33529,0.64062
4.272,0.39101,0.44379,0.42549,0.33922,0.67578
4.28,0.42424,0.44086,0.41569,0.32941,0.68555
4.288,0.45846,0.43793,0.41569,0.33922,0.67969
4.296,0.49365,0.435,0.39412,0.33529,0.68555
4.304,0.52884,0.43109,0.3902,0.3549,0.69531
4.312,0.56207,0.42815,0.43529,0.32941,0.66992
4.32,0.59433,0.42522,0.42549,0.32941,0.67578
4.328,0.62463,0.42326,0.41569,0.32353,0.68555
4.336,0.65591,0.42131,0.4451,0.37451,0.69922
4.344,0.68817,0.41838,0.62941,0.2902,0.51562
4.352,0.72043,0.41642,0.91569,0.15882,0.31445
4.36,0.75464,0.41544,1.0471,0.023529,0.31055
4.368,0.78886,0.41349,0.62941,0.039216,0.79883
4.376,0.82405,0.41251,0.20392,-0.24314,1.0352
4.384,0.86022,0.41056,-0.092157,-0.30196,1.1035
4.392,0.89541,0.40958,-0.10588,-0.21176,0.99023
4.4,0.9306,0.4086,0.18431,-0.0058823,0.81055
4.408,0.96285,0.4086,0.33529,0.22353,0.68945
4.416,0.99413,0.40762,0.40392,0.31373,0.64453
4.424,0.99707,0.40762,0.41961,0.34902,0.63477
4.432,1,0.40762,0.42941,0.36471,0.625
4.44,1,0.40762,0.46078,0.36471,0.61914
4.448,1,0.40762,0.46078,0.37059,0.60938
4.456,1,0.40762,0.46078,0.36471,0.60547
4.464,1,0.40762,0.4549,0.36471,0.60938
4.472,1,0.40762,0.46078,0.37451,0.60938
4.48,1,0.40762,0.47059,0.37059,0.60547
4.488,1,0.40762,0.48039,0.37451,0.60547
4.496,1,0.40762,0.46078,0.37451,0.60938
4.504,1,0.40762,0.46471,0.36471,0.60547
4.512,1,0.40762,0.47451,0.3549,0.60547
4.52,1,0.40762,0.48431,0.35882,0.60547
4.528,1,0.40762,0.48431,0.3549,0.59961
4.536,1,0.40762,0.4902,0.3549,0.5957
4.544,1,0.40762,0.48431,0.34902,0.58984
4.552,1,0.40762,0.49412,0.33529,0.58984
4.56,1,0.40762,0.5,0.32941,0.5957
4.568,1,0.40762,0.50588,0.33529,0.58008
4.576,1,0.40762,0.51961,0.32353,0.56445
4.584,1,0.40762,0.52549,0.31961,0.56445
4.592,1,0.40762,0.51569,0.30392,0.56055
4.6,1,0.40762,0.58431,0.27451,0.51953
4.608,1,0.40762,0.66078,0.23333,0.48047
4.616,1,0.40762,0.72157,0.20392,0.44922
4.624,1,0.40762,0.75098,0.18431,0.42969
4.632,1,0.40762,0.76078,0.16863,0.41992
4.64,1,0.40762,0.77647,0.1549,0.41602
4.648,1,0.40762,0.8,0.12941,0.39453
4.656,1,0.40762,0.81176,0.11373,0.39062
4.664,1,0.40762,0.80588,0.11373,0.39062
4.672,1,0.40762,0.7902,0.11961,0.40039
4.68,1,0.40762,0.77647,0.14314,0.41992
4.688,1,0.40762,0.7451,0.17451,0.44922
4.696,1,0.40762,0.6902,0.22353,0.49023
4.704,1,0.40762,0.65098,0.25882,0.51953
4.712,1,0.40762,0.62549,0.28431,0.53516
4.72,1,0.40762,0.61569,0.30392,0.55078
4.728,1,0.40762,0.60588,0.3098,0.56055
4.736,1,0.40762,0.60588,0.31961,0.57031
4.744,1,0.40762,0.6,0.32353,0.56445
4.752,1,0.40762,0.6,0.32353,0.56445
4.76,1,0.40762,0.59608,0.32353,0.56445
4.768,1,0.40762,0.59608,0.31961,0.56055
4.776,1,0.40762,0.5902,0.31961,0.56055
4.784,1,0.40762,0.5902,0.31373,0.56055
4.792,1,0.40762,0.58039,0.3098,0.56055
4.8,1,0.40762,0.58431,0.3098,0.56055
4.808,1,0.40762,0.62549,0.2902,0.5293
4.816,1,0.40762,0.67059,0.27451,0.50977
4.824,1,0.40762,0.69608,0.26471,0.49414
4.832,1,0.40762,0.70588,0.26471,0.49023
4.84,1,0.40762,0.71569,0.25882,0.49023
4.848,1,0.4086,0.72157,0.25882,0.49023
4.856,1,0.40958,0.72157,0.25882,0.49023
4.864,1,0.41153,0.71569,0.26471,0.49023
4.872,1,0.41544,0.72157,0.27843,0.49414
4.88,1,0.42229,0.7098,0.2902,0.50586
4.888,1,0.43304,0.7098,0.3098,0.50586
4.896,1,0.4477,0.71569,0.32353,0.50977
4.904,1,0.46628,0.72157,0.3451,0.49414
4.912,1,0.48778,0.74118,0.34902,0.4707
4.92,1,0.51222,0.76667,0.32941,0.44922
4.928,1,0.53861,0.78039,0.32353,0.43945
4.936,1,0.56403,0.77059,0.30392,0.44531
4.944,1,0.58944,0.7549,0.28431,0.46094
4.952,1,0.60899,0.72549,0.27843,0.48438
4.96,1,0.62561,0.67647,0.29412,0.5293
4.968,1,0.64223,0.6451,0.3,0.56055
4.976,1,0.65787,0.61569,0.30392,0.57422
4.984,1,0.67155,0.60588,0.30392,0.58008
4.992,1,0.68231,0.6,0.30392,0.58008
5,1,0.69013,0.6,0.30392,0.58398
5.008,1,0.69501,0.6,0.30392,0.58984
5.016,1,0.69795,0.5902,0.30392,0.58984
5.024,1,0.69795,0.5902,0.3098,0.58984
5.032,1,0.69697,0.58431,0.32941,0.59961
5.04,1,0.69306,0.6098,0.33922,0.60938
5.048,1,0.68915,0.80588,0.2902,0.43945
5.056,1,0.68524,1.0824,0.18824,0.28516
5.064,1,0.68035,1.2431,-0.16275,0.25586
5.072,1,0.67546,0.84118,-0.39804,0.58398
5.08,1,0.6696,0.34902,-0.50196,0.81445
5.088,1,0.66276,0.12941,-0.50196,0.86523
5.096,0.99609,0.65494,0.22941,-0.34706,0.75977
5.104,0.99316,0.64907,0.39412,-0.015686,0.64062
5.112,0.97849,0.64125,0.5,0.23333,0.5957
5.12,0.96481,0.63343,0.53922,0.33529,0.58398
5.128,0.95015,0.62659,0.5451,0.35882,0.5957
5.136,0.93646,0.61779,0.55098,0.37451,0.5957
5.144,0.92082,0.60997,0.5549,0.38431,0.58984
5.152,0.90518,0.60411,0.5549,0.3902,0.5957
5.16,0.88759,0.59726,0.5549,0.3902,0.58984
5.168,0.86999,0.59238,0.5549,0.39412,0.5957
5.176,0.85142,0.58651,0.5549,0.3902,0.58984
5.184,0.83187,0.58162,0.5549,0.4,0.58984
5.192,0.81232,0.57771,0.5549,0.3902,0.58984
5.2,0.79277,0.5738,0.56078,0.39412,0.5957
5.208,0.77615,0.57185,0.5549,0.3902,0.59961
5.216,0.75855,0.56891,0.5549,0.38431,0.5957
5.224,0.74291,0.56794,0.56078,0.38039,0.58984
5.232,0.72825,0.56598,0.57451,0.37451,0.58008
5.24,0.71261,0.56403,0.58039,0.37451,0.57422
5.248,0.69795,0.56305,0.58431,0.37059,0.57031
5.256,0.68231,0.56109,0.5902,0.35882,0.56055
5.264,0.66764,0.55914,0.60588,0.3549,0.55469
5.272,0.65396,0.55718,0.6,0.34902,0.55078
5.28,0.64125,0.55523,0.61569,0.33529,0.53516
5.288,0.62952,0.55327,0.62941,0.32353,0.51953
5.296,0.61877,0.55132,0.65098,0.30392,0.49414
5.304,0.60899,0.54839,0.66471,0.28431,0.47461
5.312,0.59922,0.54545,0.67647,0.26471,0.46094
5.32,0.59042,0.54252,0.69608,0.24902,0.43945
5.328,0.58162,0.53959,0.7,0.23333,0.43555
5.336,0.57478,0.53666,0.6902,0.22353,0.42969
5.344,0.56794,0.53372,0.66471,0.22353,0.46094
5.352,0.56207,0.53079,0.62549,0.22941,0.49414
5.36,0.55621,0.52786,0.58431,0.2549,0.53906
5.368,0.5523,0.52493,0.5549,0.28431,0.57422
5.376,0.54741,0.52199,0.53529,0.3098,0.60547
5.384,0.54448,0.51906,0.5098,0.33529,0.62891
5.392,0.54057,0.51613,0.5098,0.34902,0.64062
5.4,0.53763,0.5132,0.5,0.36471,0.65039
5.408,0.53568,0.51124,0.49412,0.37451,0.6543
5.416,0.53275,0.50929,0.49412,0.37451,0.66016
5.424,0.53079,0.50831,0.5,0.37059,0.66016
5.432,0.52884,0.50733,0.49412,0.37451,0.66406
5.44,0.52688,0.50635,0.50588,0.37451,0.6543
5.448,0.52493,0.50538,0.50588,0.37059,0.65039
5.456,0.52395,0.50538,0.5098,0.36471,0.65039
5.464,0.52199,0.5044,0.5098,0.35882,0.64453
5.472,0.52004,0.50244,0.5098,0.36471,0.65039
5.48,0.51808,0.50049,0.50588,0.35882,0.6543
5.488,0.51613,0.49853,0.5,0.3549,0.6543
5.496,0.51417,0.49658,0.50588,0.34902,0.6543
5.504,0.51222,0.4956,0.5,0.3549,0.6543
5.512,0.51124,0.48094,0.5,0.3549,0.6543
5.52,0.50929,0.46041,0.50588,0.34902,0.65039
5.528,0.50831,0.45064,0.5,0.34902,0.65039
5.536,0.50733,0.44477,0.50588,0.34902,0.65039
5.544,0.50635,0.44184,0.5,0.34902,0.6543
5.552,0.50538,0.44086,0.5,0.3549,0.65039
5.56,0.5044,0.43988,0.50588,0.36471,0.6543
5.568,0.50342,0.44086,0.5098,0.38039,0.65039
5.576,0.50244,0.44184,0.52549,0.3902,0.62891
5.584,0.50147,0.44379,0.55098,0.40392,0.60938
5.592,0.50147,0.4477,0.57451,0.3902,0.58984
5.6,0.50049,0.45259,0.59608,0.37451,0.56445
5.608,0.50147,0.46139,0.60588,0.35882,0.56055
5.616,0.50147,0.47214,0.6,0.33922,0.56055
5.624,0.50342,0.48485,0.58431,0.32941,0.57031
5.632,0.50538,0.50049,0.55098,0.32941,0.59961
5.64,0.50831,0.52004,0.5098,0.32941,0.63477
5.648,0.51124,0.53666,0.48431,0.33922,0.6543
5.656,0.51613,0.54936,0.46078,0.33529,0.66016
5.664,0.52102,0.56305,0.46078,0.33529,0.66992
5.672,0.5259,0.57771,0.46471,0.33922,0.66406
5.68,0.53177,0.59042,0.46078,0.33529,0.66992
5.688,0.53666,0.60313,0.46078,0.33529,0.67578
5.696,0.54154,0.61388,0.46078,0.32941,0.66992
5.704,0.54741,0.62268,0.46078,0.32941,0.66406
5.712,0.5523,0.62952,0.4549,0.36471,0.68555
5.72,0.55816,0.63539,0.51961,0.37451,0.69531
5.728,0.56403,0.63832,0.75098,0.30392,0.44531
5.736,0.57087,0.64027,1.0314,0.1549,0.31445
5.744,0.57771,0.64125,1.1176,-0.19608,0.31055
5.752,0.58358,0.64027,0.5549,-0.45686,0.69531
5.76,0.59042,0.64027,0.12353,-0.50196,0.88477
5.768,0.59531,0.64027,0.033333,-0.50196,0.91016
5.776,0.60117,0.63832,0.17451,-0.26275,0.7793
5.784,0.60704,0.63539,0.32941,0.07451,0.68555
5.792,0.6129,0.63148,0.39412,0.2902,0.66016
5.8,0.61877,0.62561,0.41961,0.35882,0.6543
5.808,0.62561,0.61877,0.43529,0.38431,0.6543
5.816,0.6305,0.61193,0.4451,0.4,0.66016
5.824,0.63636,0.60508,0.43922,0.4,0.6543
5.832,0.64125,0.59824,0.44902,0.4098,0.65039
5.84,0.64614,0.59042,0.4451,0.41569,0.6543
5.848,0.65005,0.58358,0.4549,0.4098,0.65039
5.856,0.65396,0.57674,0.46078,0.41569,0.64062
5.864,0.65689,0.56989,0.46078,0.40392,0.65039
5.872,0.65982,0.56109,0.46078,0.40392,0.64062
5.88,0.66276,0.55425,0.47059,0.4,0.63477
5.888,0.66569,0.54741,0.46471,0.4,0.64062
5.896,0.6696,0.53959,0.47059,0.3902,0.64453
5.904,0.67253,0.53275,0.46471,0.4,0.62891
5.912,0.67546,0.52688,0.48431,0.3902,0.62891
5.92,0.6784,0.52199,0.4902,0.38431,0.625
5.928,0.68035,0.51711,0.5,0.37451,0.60938
5.936,0.68328,0.51222,0.5098,0.37059,0.60547
5.944,0.68622,0.50831,0.51569,0.35882,0.59961
5.952,0.68915,0.5044,0.52941,0.34902,0.58398
5.96,0.69208,0.50244,0.5549,0.33922,0.56445
5.968,0.69501,0.50049,0.56471,0.32353,0.54492
5.976,0.69892,0.49951,0.58431,0.30392,0.5293
5.984,0.70186,0.49853,0.6,0.28431,0.50977
5.992,0.70577,0.49756,0.61961,0.2549,0.48438
6,0.7087,0.4956,0.62549,0.23333,0.46484
6.008,0.71261,0.49365,0.62941,0.21373,0.46484
6.016,0.71652,0.49071,0.63529,0.20392,0.46094
6.024,0.71945,0.48876,0.59608,0.20392,0.49023
6.032,0.72336,0.48583,0.56078,0.21373,0.52539
6.04,0.72727,0.48289,0.51961,0.23333,0.57031
6.048,0.73118,0.47996,0.4902,0.27843,0.59961
6.056,0.73412,0.47703,0.47059,0.3098,0.62891
6.064,0.73803,0.47507,0.4549,0.33529,0.6543
6.072,0.74096,0.47214,0.44902,0.3451,0.66406
6.08,0.74291,0.46921,0.43922,0.36471,0.67578
6.088,0.74487,0.46628,0.4451,0.35882,0.67578
6.096,0.74682,0.46334,0.43922,0.37451,0.68555
6.104,0.7478,0.46139,0.44902,0.38039,0.67969
6.112,0.74878,0.45943,0.4451,0.37451,0.68555
6.12,0.74976,0.45748,0.44902,0.37451,0.67969
6.128,0.75073,0.45552,0.44902,0.37451,0.67578
6.136,0.75073,0.45455,0.46078,0.37451,0.66406
6.144,0.75073,0.45357,0.46471,0.37451,0.66406
6.152,0.75073,0.45259,0.47059,0.37059,0.66016
6.16,0.75073,0.45161,0.46471,0.36471,0.66406
6.168,0.75073,0.45064,0.47451,0.36471,0.66016
6.176,0.75073,0.44868,0.47059,0.3549,0.6543
6.184,0.74976,0.4477,0.46471,0.35882,0.6543
6.192,0.74976,0.44575,0.47451,0.34902,0.66406
6.2,0.74878,0.44477,0.48039,0.3549,0.6543
6.208,0.7478,0.44379,0.48431,0.35882,0.6543
6.216,0.7478,0.44282,0.48039,0.34902,0.6543
6.224,0.74682,0.44282,0.48431,0.34902,0.6543
6.232,0.74585,0.44282,0.48039,0.37059,0.66016
6.24,0.74487,0.44379,0.48431,0.37451,0.6543
6.248,0.74487,0.44477,0.50588,0.38431,0.64062
6.256,0.74389,0.4477,0.51961,0.4,0.625
6.264,0.74291,0.45259,0.56471,0.3902,0.5957
6.272,0.74291,0.45943,0.56078,0.37451,0.58008
6.28,0.74291,0.46921,0.58039,0.36471,0.56445
6.288,0.74291,0.48289,0.58039,0.3451,0.56055
6.296,0.74389,0.49756,0.5549,0.32941,0.58008
6.304,0.74487,0.51515,0.5098,0.32941,0.61523
6.312,0.74585,0.5347,0.48431,0.32941,0.65039
6.32,0.7478,0.55425,0.44902,0.33529,0.67578
6.328,0.74878,0.5738,0.43529,0.32941,0.67969
6.336,0.75073,0.59238,0.43529,0.33529,0.67578
6.344,0.75269,0.60802,0.4451,0.33922,0.67578
6.352,0.75464,0.61975,0.43922,0.33529,0.67969
6.36,0.7566,0.63148,0.43922,0.33529,0.67578
6.368,0.75953,0.64125,0.43529,0.33529,0.67969
6.376,0.76149,0.65005,0.43529,0.33529,0.67969
6.384,0.76344,0.65591,0.42549,0.35882,0.70508
6.392,0.76442,0.65982,0.48039,0.37451,0.7207
6.4,0.76637,0.66178,0.68627,0.31961,0.49023
6.408,0.76637,0.66373,0.96667,0.18824,0.34961
6.416,0.76735,0.66373,1.0667,-0.17255,0.32422
6.424,0.76735,0.66178,0.57451,-0.42745,0.66406
6.432,0.76833,0.65982,0.14314,-0.50196,0.87891
6.44,0.76833,0.65591,0.017647,-0.50196,0.91016
6.448,0.76931,0.65298,0.14314,-0.27255,0.79492
6.456,0.76833,0.64809,0.3,0.07451,0.69531
6.464,0.76735,0.64321,0.38431,0.2902,0.66992
6.472,0.7654,0.63832,0.41569,0.35882,0.66016
6.48,0.76442,0.63343,0.41961,0.39412,0.66016
6.488,0.76246,0.62757,0.42941,0.4,0.66406
6.496,0.76051,0.62072,0.43529,0.41569,0.6543
6.504,0.75855,0.6129,0.43529,0.4098,0.66016
6.512,0.75758,0.60411,0.43529,0.40392,0.6543
6.52,0.75464,0.59531,0.4451,0.41569,0.6543
6.528,0.75171,0.58651,0.43922,0.40392,0.6543
6.536,0.7478,0.57674,0.4549,0.40392,0.66016
6.544,0.74389,0.56891,0.4451,0.4098,0.65039
6.552,0.739,0.56207,0.46078,0.40392,0.64062
6.56,0.73412,0.55621,0.4549,0.40392,0.65039
6.568,0.72923,0.55034,0.47059,0.4,0.64453
6.576,0.72434,0.54448,0.47451,0.39412,0.63477
6.584,0.71945,0.53959,0.48431,0.39412,0.62891
6.592,0.71359,0.5347,0.48431,0.3902,0.625
6.6,0.70772,0.52981,0.50588,0.38039,0.60938
6.608,0.70283,0.52493,0.50588,0.37451,0.60938
6.616,0.69697,0.52102,0.5098,0.37451,0.59961
6.624,0.69208,0.51613,0.52941,0.35882,0.58398
6.632,0.68719,0.51222,0.53529,0.34902,0.57422
6.64,0.68231,0.50733,0.5549,0.33529,0.55469
6.648,0.67742,0.50342,0.57451,0.31373,0.5293
6.656,0.67253,0.50049,0.6,0.3,0.50586
6.664,0.66764,0.49853,0.6098,0.28431,0.48438
6.672,0.66276,0.4956,0.61569,0.25882,0.4707
6.68,0.65885,0.49365,0.62549,0.23922,0.46484
6.688,0.65396,0.49071,0.61961,0.23333,0.46484
6.696,0.65005,0.48876,0.5902,0.22941,0.48438
6.704,0.64614,0.48583,0.5549,0.24902,0.5293
6.712,0.64223,0.48289,0.5098,0.27451,0.57031
6.72,0.63832,0.47996,0.48431,0.3,0.60938
6.728,0.63539,0.47605,0.46078,0.32353,0.64062
6.736,0.63148,0.47312,0.44902,0.35882,0.6543
6.744,0.62757,0.47019,0.43529,0.37451,0.67578
6.752,0.62463,0.46725,0.43529,0.38431,0.67969
6.76,0.61975,0.46432,0.42941,0.38039,0.69531
6.768,0.61486,0.46041,0.43922,0.3902,0.68945
6.776,0.60997,0.4565,0.43529,0.39412,0.69531
6.784,0.60411,0.45259,0.43529,0.3902,0.68555
6.792,0.59824,0.44966,0.42549,0.39412,0.69922
6.8,0.59238,0.44673,0.43529,0.39412,0.68945
6.808,0.58651,0.44379,0.43922,0.38431,0.68555
6.816,0.57967,0.44184,0.43529,0.3902,0.68945
6.824,0.5738,0.43988,0.43922,0.38039,0.67969
6.832,0.56794,0.43891,0.44902,0.37451,0.68555
6.84,0.56207,0.43695,0.42941,0.37451,0.68945
6.848,0.55523,0.43597,0.43529,0.37059,0.67969
6.856,0.54936,0.435,0.42941,0.37451,0.67578
6.864,0.5435,0.43304,0.43922,0.37451,0.67969
6.872,0.53763,0.43206,0.43529,0.37451,0.66992
6.88,0.53275,0.43109,0.42549,0.37059,0.67969
6.888,0.52786,0.42913,0.43529,0.37451,0.68555
6.896,0.52297,0.42717,0.43922,0.37451,0.67969
6.904,0.51808,0.42522,0.43529,0.39412,0.68555
6.912,0.5132,0.42326,0.4451,0.40392,0.66992
6.92,0.50929,0.42229,0.46078,0.41961,0.6543
6.928,0.50538,0.42326,0.4902,0.42549,0.64062
6.936,0.50147,0.4262,0.51961,0.41569,0.61523
6.944,0.49853,0.43109,0.55098,0.4,0.58398
6.952,0.49658,0.43793,0.5549,0.38431,0.58008
6.96,0.49462,0.44868,0.5549,0.36471,0.58008
6.968,0.49365,0.46237,0.52941,0.34902,0.5957
6.976,0.49267,0.47898,0.4902,0.34902,0.62891
6.984,0.49267,0.49756,0.44902,0.34902,0.66406
6.992,0.49169,0.51711,0.42549,0.34902,0.67969
7,0.49267,0.53666,0.41569,0.34902,0.68945
7.008,0.49267,0.55621,0.40392,0.34902,0.69922
7.016,0.49365,0.57478,0.40392,0.34902,0.69922
7.024,0.4956,0.59042,0.41569,0.34902,0.69531
7.032,0.49756,0.60313,0.4098,0.34902,0.69922
7.04,0.49951,0.61486,0.4098,0.34902,0.69922
7.048,0.50147,0.6217,0.40392,0.34902,0.69922
7.056,0.50342,0.62659,0.4,0.38431,0.7207
7.064,0.50635,0.6305,0.47451,0.37451,0.72461
7.072,0.50929,0.63245,0.7,0.3098,0.46094
7.08,0.51222,0.63441,0.96078,0.17843,0.33984
7.088,0.51515,0.63636,1.0275,-0.13137,0.45508
7.096,0.51711,0.63832,0.46471,-0.38824,0.75
7.104,0.52004,0.6393,0.07451,-0.50196,0.93555
7.112,0.52199,0.6393,-0.0058823,-0.47255,0.95898
7.12,0.52395,0.63832,0.14902,-0.22157,0.81055
7.128,0.5259,0.63539,0.30392,0.1098,0.70898
7.136,0.52688,0.63148,0.37451,0.31373,0.67578
7.144,0.52786,0.62561,0.3902,0.38431,0.67578
7.152,0.52884,0.61975,0.4,0.40392,0.67578
7.16,0.52981,0.6129,0.4,0.41961,0.67969
7.168,0.53079,0.60606,0.4,0.42549,0.67578
7.176,0.53177,0.59726,0.4098,0.42549,0.67578
7.184,0.53275,0.58847,0.41569,0.41961,0.67578
7.192,0.53372,0.57967,0.4098,0.41961,0.67578
7.2,0.5347,0.57087,0.41961,0.42549,0.66406
7.208,0.5347,0.56207,0.42549,0.41961,0.66406
7.216,0.5347,0.55327,0.41569,0.42549,0.66406
7.224,0.53372,0.54643,0.42549,0.41961,0.66406
7.232,0.53275,0.53959,0.43529,0.41961,0.66016
7.24,0.53177,0.53372,0.43922,0.41961,0.6543
7.248,0.52981,0.52786,0.4451,0.41961,0.65039
7.256,0.52786,0.52395,0.4549,0.41569,0.64062
7.264,0.52688,0.51906,0.4549,0.4,0.64062
7.272,0.52395,0.51515,0.47451,0.38431,0.62891
7.28,0.52199,0.51026,0.48431,0.38039,0.61523
7.288,0.51906,0.50635,0.4902,0.37451,0.60547
7.296,0.51711,0.50244,0.5098,0.35882,0.58398
7.304,0.51417,0.49951,0.52941,0.34902,0.56445
7.312,0.51124,0.49658,0.53922,0.32941,0.55469
7.32,0.50831,0.49365,0.5451,0.3098,0.53516
7.328,0.50538,0.49169,0.57451,0.27451,0.5
7.336,0.50244,0.49071,0.5902,0.24902,0.49023
7.344,0.49951,0.48876,0.58039,0.22941,0.47461
7.352,0.49658,0.48778,0.6,0.2098,0.46484
7.36,0.49267,0.48583,0.5902,0.20392,0.4707
7.368,0.48974,0.48387,0.56078,0.21373,0.5
7.376,0.48583,0.48094,0.5098,0.23333,0.55469
7.384,0.48094,0.47703,0.46078,0.25882,0.60547
7.392,0.47507,0.4741,0.4451,0.29412,0.64062
7.4,0.46725,0.47116,0.41569,0.33529,0.67578
7.408,0.46041,0.46725,0.40392,0.3549,0.69922
7.416,0.4477,0.46432,0.4,0.38431,0.70898
7.424,0.43597,0.46139,0.4098,0.39412,0.71484
7.432,0.42033,0.45846,0.42549,0.4,0.7207
7.44,0.40469,0.45552,0.43529,0.41569,0.70898
7.448,0.38807,0.45455,0.3902,0.42549,0.73047
7.456,0.37146,0.45259,0.40392,0.41569,0.72461
7.464,0.35288,0.45161,0.41961,0.38039,0.70898
7.472,0.33431,0.45064,0.42941,0.37451,0.70508
7.48,0.3089,0.45064,0.40392,0.4098,0.7207
7.488,0.2825,0.44966,0.39412,0.41569,0.72461
7.496,0.25122,0.44966,0.4451,0.38431,0.69531
7.504,0.21994,0.44868,0.41961,0.3902,0.69922
7.512,0.18866,0.4477,0.40392,0.4,0.70898
7.52,0.15836,0.44575,0.4451,0.37451,0.68945
7.528,0.12708,0.44477,0.41961,0.39412,0.69922
7.536,0.095797,0.44282,0.3902,0.4,0.7207
7.544,0.059629,0.44184,0.43529,0.37059,0.69531
7.552,0.02346,0.44086,0.43529,0.3902,0.69531
7.56,0.01173,0.42424,0.41961,0.4,0.69922
7.568,0,0.40078,0.41569,0.38431,0.69922
7.576,0,0.38807,0.42549,0.4098,0.69922
7.584,0,0.38123,0.4549,0.41569,0.68555
7.592,0,0.3783,0.46471,0.42549,0.67578
7.6,0,0.3783,0.4549,0.43922,0.66406
7.608,0,0.38123,0.5,0.41961,0.64062
7.616,0,0.38612,0.52549,0.41569,0.61914
7.624,0,0.39492,0.53529,0.4,0.60938
7.632,0,0.40665,0.5451,0.37451,0.60547
7.64,0,0.41838,0.5098,0.3451,0.62891
7.648,0,0.43206,0.48039,0.33922,0.66016
7.656,0,0.4477,0.4,0.37451,0.71484
7.664,0,0.46628,0.37451,0.36471,0.72461
7.672,0,0.48583,0.39412,0.37059,0.73047
7.68,0,0.5044,0.38431,0.38039,0.71484
7.688,0,0.52493,0.37059,0.37059,0.72461
7.696,0,0.54154,0.3902,0.35882,0.71484
7.704,0,0.5523,0.4,0.3549,0.70898
7.712,0,0.56207,0.36471,0.36471,0.72461
7.72,0,0.56891,0.3451,0.38039,0.74414
7.728,0,0.57478,0.4,0.3902,0.72461
7.736,0,0.57771,0.52941,0.33922,0.62891
7.744,0,0.57869,0.7549,0.21961,0.39062
7.752,0,0.57771,0.95098,0.11373,0.34961
7.76,0,0.57674,0.7,0.039216,0.70898
7.768,0,0.57478,0.2549,0.043137,1.0547
7.776,0,0.57185,-0.082353,-0.25294,1.1836
7.784,0,0.56696,-0.14706,-0.27255,1.125
7.792,0,0.56305,0.058824,-0.076471,0.94531
7.8,0,0.55718,0.23922,0.18824,0.7793
7.808,0,0.55132,0.33529,0.32941,0.70508
7.816,0,0.5435,0.38039,0.36471,0.67969
7.824,0,0.5347,0.36471,0.39412,0.68555
7.832,0,0.52395,0.37059,0.4,0.67969
7.84,0,0.5132,0.3902,0.39412,0.67578
7.848,0,0.50342,0.3902,0.41569,0.66992
7.856,0,0.49267,0.3902,0.41961,0.66406
7.864,0,0.48094,0.40392,0.40392,0.6543
7.872,0,0.46921,0.4549,0.37059,0.64062
7.88,0,0.45846,0.46078,0.39412,0.62891
7.888,0,0.44966,0.3902,0.4098,0.66992
7.896,0,0.43988,0.42941,0.38431,0.65039
7.904,0,0.43206,0.43529,0.3902,0.64062
7.912,0,0.42424,0.42549,0.4,0.64062
7.92,0,0.41642,0.44902,0.37451,0.63477
7.928,0,0.40958,0.4549,0.37059,0.64453
7.936,0,0.40274,0.43529,0.38039,0.62891
7.944,0,0.39785,0.47451,0.34902,0.60547
7.952,0,0.39394,0.48431,0.34902,0.60547
7.96,0,0.39101,0.46078,0.36471,0.60547
7.968,0,0.3871,0.44902,0.34902,0.59961
7.976,0,0.38416,0.4902,0.32353,0.57422
7.984,0,0.38123,0.52941,0.27843,0.55078
7.992,0.020528,0.37928,0.5451,0.27451,0.5293
8,0.041056,0.37634,0.55098,0.27843,0.51562
8.008,0.064516,0.37439,0.57059,0.2549,0.49414
8.016,0.087977,0.37243,0.58039,0.23922,0.49023
8.024,0.11437,0.3695,0.6,0.20392,0.46484
8.032,0.13978,0.36657,0.52549,0.23922,0.50586
8.04,0.16813,0.36364,0.49412,0.2549,0.53906
8.048,0.19648,0.35973,0.51961,0.23922,0.57031
8.056,0.22776,0.35582,0.42941,0.30392,0.625
8.064,0.25904,0.35093,0.43529,0.31961,0.64453
8.072,0.2913,0.34604,0.4098,0.38039,0.67969
8.08,0.32356,0.34213,0.37451,0.4098,0.69922
8.088,0.35288,0.3392,0.4,0.4,0.69922
8.096,0.38221,0.33724,0.37059,0.41961,0.72461
8.104,0.41056,0.33431,0.36471,0.42549,0.73047
8.112,0.43793,0.33138,0.4098,0.4098,0.69922
8.12,0.46725,0.32747,0.41569,0.42549,0.69922
8.128,0.49658,0.32454,0.38431,0.41961,0.71484
8.136,0.52688,0.32063,0.36471,0.41569,0.72461
8.144,0.55718,0.31867,0.42549,0.4,0.69531
8.152,0.58553,0.31574,0.42941,0.41569,0.68945
8.16,0.6129,0.31378,0.3902,0.4098,0.69922
8.168,0.63832,0.30987,0.4,0.40392,0.68945
8.176,0.66373,0.30694,0.41569,0.39412,0.69531
8.184,0.69013,0.30303,0.40392,0.39412,0.69922
8.192,0.71652,0.3001,0.42549,0.38431,0.67969
8.2,0.74389,0.29619,0.38039,0.41569,0.69922
8.208,0.77126,0.29326,0.43529,0.36471,0.67578
8.216,0.79863,0.2913,0.46471,0.33529,0.66406
8.224,0.82698,0.28837,0.41961,0.40392,0.67969
8.232,0.85435,0.28641,0.37451,0.41961,0.69922
8.24,0.88172,0.28446,0.35882,0.39412,0.70898
8.248,0.90714,0.28446,0.44902,0.3902,0.66992
8.256,0.93157,0.2825,0.39412,0.43922,0.69531
8.264,0.95503,0.28152,0.47059,0.41961,0.6543
8.272,0.97849,0.28055,0.46078,0.4451,0.65039
8.28,0.98925,0.28055,0.50588,0.41961,0.61914
8.288,1,0.28348,0.53529,0.39412,0.59961
8.296,1,0.28837,0.55098,0.37059,0.58984
8.304,1,0.29717,0.5,0.37451,0.61523
8.312,1,0.3089,0.4902,0.38039,0.61914
8.32,1,0.32454,0.43922,0.37059,0.66016
8.328,1,0.34115,0.41961,0.34902,0.67969
8.336,1,0.3607,0.3549,0.37059,0.72461
8.344,1,0.3783,0.34902,0.3451,0.70508
8.352,1,0.39394,0.39412,0.37059,0.69922
8.36,1,0.41056,0.40392,0.3549,0.69531
8.368,1,0.42717,0.39412,0.37059,0.69922
8.376,1,0.44184,0.37451,0.3549,0.70508
8.384,1,0.45552,0.36471,0.34902,0.7207
8.392,1,0.46628,0.4,0.36471,0.70508
8.4,1,0.47507,0.44902,0.37451,0.70898
8.408,1,0.48094,0.6451,0.26471,0.51562
8.416,1,0.48485,0.93137,0.12941,0.33008
8.424,1,0.4868,1.0569,-0.0019608,0.46484
8.432,1,0.4868,0.48431,0.033333,0.92383
8.44,1,0.48485,0.0078431,-0.20784,1.1602
8.448,1,0.48289,-0.18627,-0.29804,1.1934
8.456,1,0.47996,-0.047059,-0.30196,1.0293
8.464,1,0.47507,0.14902,0.029412,0.85938
8.472,1,0.47019,0.2549,0.27451,0.74414
8.48,1,0.4653,0.3451,0.32941,0.68555
8.488,1,0.45943,0.42549,0.33922,0.64453
8.496,1,0.45259,0.46078,0.33529,0.625
8.504,1,0.44575,0.43922,0.38431,0.625
8.512,1,0.43891,0.42549,0.39412,0.64453
8.52,1,0.43206,0.4,0.40392,0.6543
8.528,1,0.42522,0.47451,0.34902,0.60938
8.536,1,0.41838,0.50588,0.36471,0.60547
8.544,1,0.41153,0.47059,0.38039,0.61523
8.552,1,0.40665,0.44902,0.37451,0.60547
8.56,1,0.40078,0.48431,0.38431,0.61914
8.568,1,0.39492,0.51961,0.36471,0.58008
8.576,1,0.39003,0.46471,0.38039,0.60547
8.584,1,0.38416,0.51569,0.33922,0.58008
8.592,1,0.37928,0.46471,0.36471,0.60938
8.6,1,0.37537,0.49412,0.34902,0.61523
8.608,1,0.37243,0.5098,0.34902,0.58984
8.616,1,0.3695,0.53529,0.32941,0.56445
8.624,1,0.36755,0.57451,0.30392,0.53906
8.632,1,0.36559,0.5098,0.33529,0.57422
8.64,1,0.36364,0.52941,0.32353,0.56055
8.648,1,0.36266,0.57059,0.27843,0.5293
8.656,1,0.36168,0.6,0.26863,0.50586
8.664,1,0.35973,0.64118,0.23922,0.48047
8.672,1,0.35777,0.61569,0.26471,0.48438
8.68,1,0.35582,0.6549,0.22353,0.44531
8.688,1,0.35386,0.6451,0.19412,0.44922
8.696,1,0.35191,0.66471,0.18431,0.43945
8.704,1,0.34995,0.6451,0.18824,0.45508
8.712,1,0.34702,0.53529,0.23333,0.5293
8.72,1,0.34506,0.5098,0.25882,0.56445
8.728,1,0.34409,0.52549,0.29412,0.56055
8.736,1,0.34213,0.44902,0.3451,0.625
8.744,1,0.34213,0.46471,0.34902,0.63477
8.752,1,0.34115,0.47451,0.35882,0.64062
8.76,1,0.3392,0.42941,0.39412,0.66016
8.768,1,0.33724,0.4451,0.39412,0.66016
8.776,1,0.33529,0.49412,0.4,0.64062
8.784,1,0.33333,0.41569,0.41961,0.67578
8.792,1,0.33138,0.48431,0.37059,0.64062
8.8,1,0.32845,0.5098,0.35882,0.62891
8.808,1,0.32551,0.48039,0.38431,0.65039
8.816,1,0.32258,0.41961,0.41569,0.66992
8.824,1,0.31867,0.46471,0.3902,0.6543
8.832,1,0.31574,0.42549,0.37059,0.67969
8.84,1,0.31281,0.50588,0.34902,0.63477
8.848,1,0.31085,0.48431,0.38039,0.64062
8.856,1,0.3089,0.46078,0.37451,0.65039
8.864,1,0.30792,0.42941,0.39412,0.66016
8.872,1,0.30596,0.46078,0.37451,0.64453
8.88,1,0.30401,0.50588,0.34902,0.625
8.888,1,0.30303,0.52941,0.3549,0.61914
8.896,1,0.30108,0.43529,0.4,0.6543
8.904,1,0.29912,0.41569,0.40392,0.66992
8.912,1,0.29717,0.49412,0.3902,0.62891
8.92,1,0.29521,0.47059,0.41569,0.63477
8.928,1,0.29423,0.4902,0.4098,0.625
8.936,1,0.29326,0.52549,0.42549,0.60547
8.944,1,0.29423,0.55098,0.41569,0.58008
8.952,1,0.29619,0.57451,0.40392,0.56055
8.96,1,0.3001,0.5902,0.4,0.55078
8.968,1,0.30792,0.57059,0.38431,0.56055
8.976,1,0.31867,0.5549,0.36471,0.56055
8.984,1,0.33138,0.5549,0.37451,0.57031
8.992,1,0.348,0.5,0.37451,0.60938
9,1,0.36755,0.43529,0.3902,0.65039
9.008,1,0.3871,0.43529,0.37451,0.6543
9.016,1,0.40762,0.41961,0.38039,0.66016
9.024,1,0.42815,0.41569,0.38431,0.66992
9.032,1,0.44575,0.44902,0.35882,0.65039
9.04,1,0.46041,0.36471,0.4098,0.68945
9.048,1,0.47116,0.39412,0.39412,0.67578
9.056,1,0.48094,0.41569,0.38039,0.66406
9.064,1,0.48876,0.43922,0.39412,0.66016
9.072,1,0.49462,0.46471,0.40392,0.66406
9.08,1,0.49853,0.67647,0.31373,0.4707
9.088,1,0.50049,0.98235,0.17451,0.31055
9.096,1,0.50147,1.051,-0.0019608,0.5
9.104,1,0.50147,0.37059,0.033333,0.93555
9.112,1,0.49951,-0.021569,-0.27647,1.084
9.12,1,0.49756,-0.18627,-0.30784,1.1094
9.128,1,0.49365,-0.060784,-0.16275,0.97461
9.136,1,0.48876,0.16863,0.094118,0.79492
9.144,1,0.48387,0.32353,0.30392,0.67969
9.152,1,0.47801,0.36471,0.38039,0.65039
9.16,1,0.47214,0.3902,0.40392,0.64062
9.168,1,0.46432,0.4,0.41569,0.63477
9.176,1,0.45748,0.4,0.42549,0.63477
9.184,1,0.44966,0.40392,0.42941,0.64062
9.192,1,0.44282,0.41569,0.41961,0.62891
9.2,1,0.43597,0.41569,0.4098,0.62891
9.208,1,0.42815,0.41569,0.4,0.62891
9.216,1,0.42131,0.42941,0.4,0.625
9.224,1,0.41447,0.42549,0.41569,0.625
9.232,1,0.40762,0.41961,0.40392,0.62891
9.24,1,0.40176,0.42549,0.4,0.62891
9.248,1,0.39883,0.42549,0.4,0.625
9.256,1,0.39589,0.43529,0.3902,0.61914
9.264,1,0.39394,0.43922,0.3902,0.61914
9.272,1,0.39198,0.43529,0.38431,0.61914
9.28,1,0.39003,0.43529,0.38431,0.61523
9.288,1,0.38807,0.4451,0.37451,0.60547
9.296,1,0.3871,0.46078,0.37451,0.59961
9.304,1,0.3871,0.46471,0.35882,0.58398
9.312,1,0.3871,0.48431,0.34902,0.57422
9.32,1,0.3871,0.4902,0.33529,0.56055
9.328,1,0.3871,0.5098,0.31961,0.54492
9.336,1,0.3871,0.52549,0.30392,0.5293
9.344,1,0.38807,0.53529,0.28431,0.50977
9.352,1,0.38807,0.5549,0.26471,0.49414
9.36,1,0.38905,0.5549,0.2549,0.49023
9.368,1,0.38905,0.53922,0.2451,0.49414
9.376,1,0.38807,0.51569,0.2549,0.51953
9.384,1,0.3871,0.48039,0.26863,0.55469
9.392,1,0.38612,0.4451,0.3,0.58398
9.4,1,0.38612,0.41961,0.32941,0.625
9.408,1,0.38612,0.4,0.35882,0.64453
9.416,1,0.38612,0.3902,0.38039,0.66406
9.424,1,0.3871,0.37451,0.4,0.67969
9.432,1,0.3871,0.38039,0.4098,0.68945
9.44,1,0.3871,0.37451,0.41569,0.69922
9.448,0.99804,0.38612,0.37451,0.41961,0.69531
9.456,0.99609,0.38514,0.38039,0.41961,0.69531
9.464,0.98143,0.38416,0.38039,0.41569,0.69531
9.472,0.96676,0.38221,0.38431,0.41569,0.69531
9.48,0.95112,0.38123,0.3902,0.4098,0.68555
9.488,0.93451,0.37928,0.3902,0.40392,0.68555
9.496,0.91691,0.37732,0.39412,0.4,0.68555
9.504,0.90029,0.37537,0.39412,0.4,0.68555
9.512,0.88172,0.37439,0.3902,0.39412,0.67969
9.52,0.86413,0.37243,0.3902,0.3902,0.68555
9.528,0.84653,0.37048,0.4,0.3902,0.67578
9.536,0.82991,0.3695,0.39412,0.38431,0.68555
9.544,0.81329,0.36852,0.4,0.38039,0.67969
9.552,0.79668,0.36657,0.4,0.38039,0.67969
9.56,0.77713,0.36461,0.4,0.37451,0.67969
9.568,0.75758,0.36364,0.40392,0.37451,0.68555
9.576,0.73607,0.36168,0.4,0.37451,0.67578
9.584,0.71457,0.35973,0.40392,0.37451,0.67969
9.592,0.69404,0.35875,0.4,0.3902,0.67969
9.6,0.67449,0.35875,0.41569,0.40392,0.67969
9.608,0.65494,0.37732,0.41569,0.41569,0.66992
9.616,0.63636,0.40762,0.43529,0.43529,0.66016
9.624,0.61486,0.42522,0.47451,0.41961,0.62891
9.632,0.59433,0.43891,0.4902,0.4,0.60938
9.64,0.57087,0.45064,0.5,0.3902,0.60547
9.648,0.54741,0.46237,0.5,0.37451,0.60938
9.656,0.52297,0.47605,0.4902,0.35882,0.60547
9.664,0.49853,0.49169,0.46471,0.3549,0.63477
9.672,0.4741,0.50929,0.42549,0.3549,0.66992
9.68,0.44966,0.52688,0.4,0.35882,0.68945
9.688,0.42717,0.54448,0.38039,0.36471,0.69922
9.696,0.40567,0.56012,0.37059,0.36471,0.70898
9.704,0.38514,0.57576,0.36471,0.36471,0.70898
9.712,0.36461,0.58944,0.37059,0.36471,0.70898
9.72,0.34506,0.60215,0.37451,0.3549,0.70508
9.728,0.32454,0.61193,0.38039,0.3549,0.69922
9.736,0.30499,0.61975,0.38431,0.3549,0.69922
9.744,0.28543,0.62463,0.3902,0.37451,0.70898
9.752,0.26686,0.62659,0.42549,0.3902,0.7207
9.76,0.24927,0.62757,0.64118,0.31961,0.52539
9.768,0.23265,0.62659,0.94118,0.18431,0.35547
9.776,0.21603,0.62463,1.0667,-0.16275,0.32422
9.784,0.19941,0.62072,0.5549,-0.39216,0.73047
9.792,0.18182,0.61779,0.088235,-0.50196,0.93945
9.8,0.16325,0.61486,-0.10196,-0.50196,0.98438
9.808,0.14565,0.61095,0.023529,-0.29804,0.87891
9.816,0.12708,0.60802,0.20392,0.029412,0.75391
9.824,0.1085,0.60313,0.32941,0.27843,0.69922
9.832,0.089932,0.59726,0.38431,0.37451,0.67578
9.84,0.071359,0.5914,0.3902,0.4098,0.67578
9.848,0.054741,0.58553,0.39412,0.41961,0.67578
9.856,0.039101,0.57869,0.4098,0.42941,0.67578
9.864,0.024438,0.57185,0.41569,0.42549,0.67578
9.872,0.0097752,0.565,0.42549,0.41961,0.66992
9.88,0.0048876,0.55816,0.42549,0.41569,0.66992
9.888,0,0.55034,0.42549,0.41569,0.66992
9.896,0,0.5435,0.41961,0.40392,0.66406
9.904,0,0.53666,0.43529,0.4,0.66406
9.912,0,0.53079,0.43529,0.4,0.66406
9.92,0,0.5259,0.43529,0.39412,0.66406
9.928,0,0.52199,0.43922,0.3902,0.66016
9.936,0,0.51808,0.44902,0.38431,0.6543
9.944,0,0.51515,0.46078,0.38039,0.65039
9.952,0,0.51222,0.47059,0.37451,0.64453
9.96,0,0.51026,0.48431,0.37059,0.62891
9.968,0,0.50929,0.5,0.36471,0.625
9.976,0,0.50831,0.51569,0.3549,0.60938
9.984,0,0.50831,0.52941,0.3451,0.60547
9.992,0,0.50929,0.53922,0.32941,0.58398
10,0,0.51222,0.56078,0.3098,0.57031
10.008,0,0.51417,0.58039,0.29412,0.55078
10.016,0,0.51515,0.6,0.27451,0.5293
10.024,0,0.51613,0.61569,0.2549,0.50977
10.032,0,0.51711,0.62941,0.23333,0.49414
10.04,0,0.51711,0.63529,0.21373,0.49023
10.048,0,0.51711,0.62549,0.20392,0.49023
10.056,0,0.51711,0.61569,0.2,0.5
10.064,0,0.51711,0.57451,0.2098,0.5293
10.072,0,0.51515,0.53922,0.22941,0.57031
10.08,0,0.5132,0.50588,0.26471,0.60547
10.088,0,0.51026,0.48431,0.3,0.62891
10.096,0,0.50733,0.47059,0.31961,0.6543
10.104,0,0.5044,0.46078,0.33529,0.66406
10.112,0,0.50049,0.46078,0.34902,0.67578
10.12,0,0.49658,0.4549,0.3549,0.67578
10.128,0,0.49365,0.46078,0.35882,0.67578
10.136,0,0.49071,0.4549,0.37059,0.67969
10.144,0,0.48778,0.4549,0.37059,0.68555
10.152,0,0.48485,0.46078,0.35882,0.67969
10.16,0,0.48192,0.4549,0.36471,0.67969
10.168,0,0.47898,0.46078,0.37059,0.67578
10.176,0,0.47507,0.46078,0.35882,0.67578
10.184,0,0.47214,0.46078,0.35882,0.66992
10.192,0,0.46921,0.46471,0.3549,0.66406
10.2,0,0.46628,0.46471,0.3549,0.66406
10.208,0,0.46237,0.47059,0.34902,0.66016
10.216,0,0.45943,0.47451,0.34902,0.66016
10.224,0,0.4565,0.47059,0.3451,0.66406
10.232,0,0.45357,0.47451,0.3451,0.66016
10.24,0,0.45064,0.48039,0.34902,0.66016
10.248,0,0.4477,0.48039,0.34902,0.66016
10.256,0,0.44575,0.47451,0.34902,0.66016
10.264,0,0.44282,0.48039,0.37059,0.66406
10.272,0,0.43988,0.4902,0.37451,0.6543
10.28,0,0.43793,0.5098,0.39412,0.63477
10.288,0,0.43695,0.53529,0.40392,0.61914
10.296,0,0.43793,0.56471,0.3902,0.58398
10.304,0,0.44282,0.58431,0.37451,0.56445
10.312,0,0.45064,0.59608,0.36471,0.56055
10.32,0,0.46139,0.58039,0.3451,0.56445
10.328,0,0.47507,0.56471,0.33529,0.58008
10.336,0,0.48876,0.53529,0.32941,0.60938
10.344,0,0.50342,0.49412,0.32941,0.64453
10.352,0,0.52102,0.46471,0.33529,0.66406
10.36,0,0.53959,0.44902,0.33529,0.67578
10.368,0,0.55718,0.43922,0.33922,0.67969
10.376,0,0.57478,0.43529,0.33922,0.68555
10.384,0,0.59042,0.43529,0.3451,0.67969
10.392,0,0.60411,0.43922,0.33922,0.67969
10.4,0,0.61486,0.4451,0.33922,0.67578
10.408,0,0.62366,0.43922,0.33922,0.67578
10.416,0,0.62952,0.43922,0.36471,0.69531
10.424,0,0.63343,0.50588,0.37451,0.69922
10.432,0,0.63636,0.7451,0.30392,0.46484
10.44,0,0.63734,1.0373,0.14314,0.32422
10.448,0,0.63636,1.1314,-0.22157,0.30469
10.456,0,0.63441,0.55098,-0.50196,0.70508
10.464,0,0.63148,0.1098,-0.50196,0.89453
10.472,0,0.62561,-0.0019608,-0.50196,0.92383
10.48,0,0.61975,0.13922,-0.25294,0.79492
10.488,0,0.61486,0.3098,0.078431,0.69531
10.496,0,0.60899,0.40392,0.29412,0.66016
10.504,0,0.60215,0.43529,0.37451,0.6543
10.512,0,0.59433,0.4451,0.4,0.6543
10.52,0,0.58651,0.4451,0.41569,0.6543
10.528,0,0.57771,0.44902,0.41961,0.6543
10.536,0,0.57087,0.46078,0.41961,0.64453
10.544,0,0.56403,0.46078,0.41961,0.64453
10.552,0,0.55621,0.46078,0.41961,0.64453
10.56,0,0.54839,0.47059,0.41961,0.64062
10.568,0,0.54057,0.47451,0.41961,0.64062
10.576,0,0.53275,0.48431,0.41961,0.62891
10.584,0,0.52493,0.4902,0.41961,0.62891
10.592,0,0.51711,0.4902,0.41569,0.62891
10.6,0,0.50929,0.5,0.4098,0.61914
10.608,0,0.50147,0.5098,0.40392,0.60938
10.616,0,0.49756,0.51569,0.40392,0.60938
10.624,0,0.49365,0.52941,0.4,0.60547
10.632,0,0.49071,0.52941,0.4,0.59961
10.64,0,0.48778,0.53922,0.39412,0.5957
10.648,0,0.48387,0.5549,0.38431,0.58008
10.656,0,0.47996,0.57059,0.37451,0.56445
10.664,0,0.47507,0.58431,0.35882,0.55469
10.672,0,0.47116,0.6,0.3451,0.53516
10.68,0,0.46823,0.61961,0.32941,0.51562
10.688,0,0.46628,0.62941,0.3098,0.49414
10.696,0,0.46432,0.65098,0.28431,0.47461
10.704,0,0.46237,0.67059,0.26471,0.46094
10.712,0,0.46041,0.67059,0.2549,0.46094
10.72,0,0.45846,0.6549,0.2451,0.46094
10.728,0,0.45552,0.63529,0.23922,0.48047
10.736,0,0.45357,0.59608,0.2549,0.51562
10.744,0,0.45259,0.56078,0.27843,0.55469
10.752,0,0.44966,0.52549,0.31373,0.58984
10.76,0,0.44575,0.50588,0.3451,0.625
10.768,0,0.44282,0.4902,0.35882,0.63477
10.776,0,0.44086,0.4902,0.37451,0.65039
10.784,0,0.43695,0.48431,0.38039,0.65039
10.792,0,0.43402,0.48431,0.38039,0.6543
10.8,0,0.43109,0.50588,0.37451,0.65039
10.808,0,0.42815,0.53529,0.37059,0.62891
10.816,0,0.42424,0.56078,0.3549,0.61523
10.824,0,0.42229,0.58039,0.34902,0.60547
10.832,0,0.42033,0.59608,0.34902,0.60547
10.84,0,0.41935,0.60588,0.33922,0.5957
10.848,0,0.41935,0.62941,0.33529,0.57422
10.856,0,0.41935,0.67059,0.3451,0.53906
10.864,0,0.41838,0.72549,0.37451,0.50586
10.872,0,0.4174,0.8,0.36471,0.42969
10.88,0,0.41642,0.86078,0.31961,0.3457
10.888,0,0.41544,0.97647,0.25882,0.18555
10.896,0,0.41447,1.1627,0.16863,-0.10352
10.904,0,0.41447,1.3216,0.043137,-0.44336
10.912,0,0.41447,1.1667,-0.015686,-0.49805
10.92,0,0.41251,0.79608,0.50588,-0.25
10.928,0,0.41251,0.57451,1.4882,0.40039
10.936,0,0.41251,0.60588,1.5039,0.73438
10.944,0,0.41251,0.58431,1.2216,0.78516
10.952,0,0.41349,0.5451,0.41569,0.70508
10.96,0,0.41447,0.5549,0.23922,0.68555
10.968,0,0.41935,0.56471,0.20392,0.67969
10.976,0,0.42815,0.57059,0.17843,0.67578
10.984,0,0.43988,0.5549,0.17451,0.68555
10.992,0,0.45064,0.5451,0.16471,0.68555
11,0,0.46628,0.51569,0.15882,0.70508
11.008,0,0.48974,0.49412,0.16471,0.73047
11.016,0,0.51222,0.47059,0.16471,0.75
11.024,0,0.53372,0.4549,0.16471,0.76953
11.032,0,0.55034,0.46078,0.16471,0.76953
11.04,0,0.565,0.44902,0.15882,0.76953
11.048,0,0.57967,0.44902,0.14314,0.77539
11.056,0,0.59238,0.4451,0.13333,0.77539
11.064,0,0.60411,0.4549,0.11961,0.7793
11.072,0,0.6129,0.4549,0.098039,0.78516
11.08,0,0.61779,0.46471,0.07451,0.7793
11.088,0,0.62072,0.47451,0.039216,0.7793
11.096,0,0.62268,0.48431,0.0039216,0.7793
11.104,0,0.6217,0.4902,-0.041176,0.78906
11.112,0,0.61975,0.5,-0.092157,0.79492
11.12,0,0.61877,0.51569,-0.14118,0.78516
11.128,0,0.61681,0.52549,-0.20196,0.76953
11.136,0,0.61388,0.53529,-0.26275,0.75391
11.144,0,0.61095,0.5549,-0.31176,0.73047
11.152,0,0.60802,0.58039,-0.34706,0.69531
11.16,0,0.60508,0.5902,-0.35686,0.6543
11.168,0,0.60117,0.6,-0.33725,0.625
11.176,0.0029325,0.59531,0.59608,-0.29216,0.59961
11.184,0.0068426,0.58944,0.58039,-0.22745,0.5957
11.192,0.01173,0.58162,0.56471,-0.14118,0.5957
11.2,0.01564,0.5738,0.5549,-0.047059,0.5957
11.208,0.01955,0.565,0.55098,0.043137,0.59961
11.216,0.02346,0.55523,0.55098,0.13922,0.60547
11.224,0.026393,0.54643,0.5451,0.22353,0.60547
11.232,0.029326,0.53861,0.55098,0.29412,0.60547
11.24,0.031281,0.52884,0.55098,0.3549,0.60938
11.248,0.034213,0.52004,0.5549,0.3902,0.60547
11.256,0.036168,0.51222,0.55098,0.41569,0.60938
11.264,0.038123,0.50538,0.5549,0.42941,0.60547
11.272,0.040078,0.49853,0.5549,0.43529,0.60547
11.28,0.042033,0.49169,0.56078,0.43922,0.60938
11.288,0.043988,0.48583,0.5549,0.43922,0.60547
11.296,0.046921,0.48094,0.56078,0.43529,0.60547
11.304,0.048876,0.47605,0.56078,0.43922,0.59961
11.312,0.050831,0.47312,0.57059,0.43922,0.5957
11.32,0.053763,0.47116,0.57059,0.43922,0.5957
11.328,0.056696,0.46921,0.56078,0.43922,0.5957
11.336,0.060606,0.46823,0.5549,0.43529,0.59961
11.344,0.064516,0.46628,0.5549,0.43922,0.60547
11.352,0.068426,0.4653,0.55098,0.4451,0.60547
11.36,0.073314,0.46334,0.5451,0.4451,0.60547
11.368,0.078201,0.46139,0.5451,0.4451,0.60547
11.376,0.083089,0.45846,0.55098,0.4451,0.60547
11.384,0.087977,0.45552,0.53922,0.4451,0.60547
11.392,0.093842,0.45357,0.53922,0.4451,0.60938
11.4,0.099707,0.45064,0.52941,0.4451,0.61523
11.408,0.10557,0.44868,0.52941,0.4451,0.61914
11.416,0.11144,0.44575,0.52549,0.4451,0.625
11.424,0.11828,0.44379,0.51569,0.4451,0.62891
11.432,0.12512,0.44184,0.51569,0.4451,0.625
11.44,0.13196,0.43988,0.5098,0.43922,0.62891
11.448,0.13881,0.43793,0.52549,0.43529,0.625
11.456,0.14467,0.43597,0.52549,0.43922,0.625
11.464,0.15152,0.43402,0.51961,0.42941,0.625
11.472,0.15836,0.43304,0.51961,0.42549,0.625
11.48,0.16422,0.43109,0.51569,0.41961,0.62891
11.488,0.17009,0.42913,0.51569,0.41961,0.625
11.496,0.17595,0.42815,0.52941,0.41569,0.61523
11.504,0.1828,0.4262,0.52549,0.41569,0.61914
11.512,0.18768,0.42522,0.51961,0.4098,0.625
11.52,0.19257,0.42326,0.51961,0.41961,0.625
11.528,0.19746,0.42326,0.51961,0.41569,0.61914
11.536,0.20235,0.42326,0.52549,0.41569,0.61914
11.544,0.20528,0.42229,0.52549,0.4098,0.61914
11.552,0.20821,0.42229,0.51569,0.41569,0.625
11.56,0.21017,0.42131,0.51569,0.40392,0.61914
11.568,0.21212,0.42033,0.51569,0.40392,0.61914
11.576,0.2131,0.41935,0.51569,0.4,0.61914
11.584,0.21408,0.41935,0.51569,0.4,0.61914
11.592,0.21505,0.41935,0.51961,0.4,0.61914
11.6,0.21505,0.41935,0.5098,0.4,0.625
11.608,0.21505,0.41838,0.5098,0.4098,0.62891
11.616,0.21505,0.4174,0.5098,0.41961,0.625
11.624,0.21408,0.41544,0.51569,0.42549,0.61523
11.632,0.21408,0.41447,0.5451,0.43529,0.59961
11.64,0.21212,0.41153,0.58039,0.42549,0.56445
11.648,0.21114,0.39687,0.59608,0.4098,0.55078
11.656,0.20919,0.37537,0.61569,0.4,0.53906
11.664,0.20723,0.36266,0.61569,0.38431,0.53516
11.672,0.20528,0.35386,0.6,0.36471,0.53906
11.68,0.20332,0.348,0.57451,0.3549,0.56055
11.688,0.20137,0.34311,0.52549,0.34902,0.60547
11.696,0.19941,0.34018,0.4902,0.3549,0.62891
11.704,0.19746,0.3392,0.47451,0.3549,0.64453
11.712,0.1955,0.33822,0.46471,0.3549,0.65039
11.72,0.19257,0.33822,0.47059,0.3549,0.64453
11.728,0.19062,0.33822,0.46078,0.34902,0.65039
11.736,0.18866,0.3392,0.46078,0.34902,0.6543
11.744,0.18768,0.3392,0.46078,0.3549,0.6543
11.752,0.18671,0.3392,0.4549,0.36471,0.6543
11.76,0.18573,0.33822,0.46078,0.39412,0.67578
11.768,0.18573,0.33724,0.57451,0.37059,0.5957
11.776,0.18573,0.33627,0.83529,0.3098,0.38477
11.784,0.18573,0.33529,1.1118,0.078431,0.28516
11.792,0.18671,0.33333,1.1176,-0.21765,0.43555
11.8,0.18866,0.33138,0.46078,-0.50196,0.70508
11.808,0.19062,0.32845,0.084314,-0.50196,0.85547
11.816,0.19257,0.32551,0.043137,-0.42745,0.85938
11.824,0.19453,0.32454,0.22941,-0.12745,0.72461
11.832,0.19648,0.32356,0.3549,0.17843,0.66016
11.84,0.19941,0.32258,0.41961,0.32353,0.64062
11.848,0.20235,0.32063,0.42549,0.38431,0.65039
11.856,0.2043,0.32063,0.43529,0.4,0.65039
11.864,0.20821,0.32063,0.43529,0.41569,0.6543
11.872,0.21114,0.31965,0.43529,0.41961,0.6543
11.88,0.21505,0.31965,0.43922,0.42941,0.6543
11.888,0.21896,0.31867,0.43529,0.42549,0.66016
11.896,0.2219,0.31574,0.43529,0.42941,0.6543
11.904,0.22483,0.31378,0.43529,0.42549,0.66406
11.912,0.22874,0.31183,0.43922,0.41961,0.66016
11.92,0.23167,0.3089,0.43922,0.41569,0.6543
11.928,0.2346,0.30792,0.43529,0.41961,0.66016
11.936,0.23754,0.30792,0.43922,0.4098,0.6543
11.944,0.24047,0.30792,0.46078,0.4098,0.65039
11.952,0.2434,0.30792,0.46078,0.4098,0.6543
11.96,0.24536,0.3089,0.47451,0.4,0.64062
11.968,0.24731,0.30987,0.48039,0.39412,0.64062
11.976,0.24829,0.31085,0.47451,0.38431,0.64062
11.984,0.25024,0.31085,0.47059,0.38039,0.64453
11.992,0.25122,0.31085,0.48039,0.37451,0.62891
12,0.25318,0.30987,0.48431,0.36471,0.62891
12.008,0.25415,0.30987,0.47451,0.3549,0.63477
12.016,0.25513,0.30987,0.4902,0.3451,0.61523
12.024,0.25611,0.31085,0.5,0.32941,0.59961
12.032,0.25709,0.31183,0.51569,0.31373,0.58008
12.04,0.25904,0.31183,0.52941,0.29412,0.57422
12.048,0.26002,0.31183,0.5451,0.27843,0.56055
12.056,0.26197,0.31183,0.5549,0.26471,0.54492
12.064,0.26393,0.31183,0.57059,0.2549,0.53516
12.072,0.26588,0.31183,0.57451,0.23922,0.53516
12.08,0.26784,0.31183,0.5549,0.23333,0.53906
12.088,0.26882,0.31183,0.53529,0.23922,0.56055
12.096,0.26979,0.31183,0.5098,0.24902,0.58398
12.104,0.27077,0.31183,0.48431,0.27843,0.61914
12.112,0.27273,0.31183,0.46078,0.30392,0.64062
12.12,0.27273,0.31183,0.43922,0.32941,0.66016
12.128,0.27273,0.31281,0.43529,0.34902,0.67578
12.136,0.27273,0.31281,0.42941,0.35882,0.68555
12.144,0.27175,0.31378,0.42549,0.37059,0.68945
12.152,0.27077,0.31378,0.41569,0.37451,0.69531
12.16,0.27077,0.31378,0.41569,0.37451,0.69531
12.168,0.26882,0.31378,0.41961,0.37451,0.68945
12.176,0.26784,0.31378,0.42941,0.37451,0.68555
12.184,0.26588,0.31378,0.42941,0.37059,0.68555
12.192,0.26393,0.31378,0.42941,0.37059,0.67969
12.2,0.261,0.31378,0.42941,0.37059,0.67578
12.208,0.25806,0.31378,0.42549,0.36471,0.67578
12.216,0.25415,0.31378,0.41961,0.35882,0.67969
12.224,0.25024,0.31281,0.41961,0.35882,0.67969
12.232,0.24633,0.31281,0.41569,0.36471,0.67969
12.24,0.24145,0.31281,0.41961,0.37059,0.67578
12.248,0.23754,0.31183,0.42941,0.37451,0.67578
12.256,0.23265,0.31183,0.41961,0.37451,0.67578
12.264,0.22874,0.31183,0.42549,0.37059,0.66992
12.272,0.22483,0.31183,0.41569,0.36471,0.67578
12.28,0.22092,0.31281,0.41961,0.37451,0.67969
12.288,0.21701,0.31574,0.41569,0.3902,0.68555
12.296,0.21408,0.3216,0.41961,0.4,0.67578
12.304,0.21114,0.33236,0.42549,0.41569,0.66992
12.312,0.20919,0.34702,0.4451,0.42549,0.66016
12.32,0.20723,0.36657,0.47451,0.42941,0.64062
12.328,0.20528,0.38807,0.5,0.40392,0.60938
12.336,0.2043,0.40958,0.51961,0.4,0.5957
12.344,0.2043,0.43695,0.5098,0.38039,0.59961
12.352,0.2043,0.4653,0.5,0.35882,0.60547
12.36,0.20626,0.4956,0.47451,0.35882,0.62891
12.368,0.20723,0.52395,0.42549,0.3549,0.66992
12.376,0.20919,0.54936,0.3902,0.35882,0.69922
12.384,0.21212,0.57185,0.37451,0.37059,0.70898
12.392,0.21408,0.59042,0.36471,0.37059,0.70898
12.4,0.21701,0.60606,0.37451,0.36471,0.70508
12.408,0.21994,0.61681,0.36471,0.37059,0.71484
12.416,0.2219,0.62463,0.36471,0.36471,0.71484
12.424,0.22385,0.62952,0.37059,0.36471,0.71484
12.432,0.22581,0.6305,0.36471,0.36471,0.71484
12.44,0.22874,0.63148,0.36471,0.38039,0.72461
12.448,0.23069,0.6305,0.4,0.40392,0.73438
12.456,0.23363,0.62854,0.57451,0.36471,0.57422
12.464,0.23656,0.62366,0.83137,0.27843,0.41602
12.472,0.23949,0.61975,1.0373,-0.086275,0.35938
12.48,0.24145,0.61388,0.69608,-0.38235,0.58008
12.488,0.2434,0.60802,0.22941,-0.50196,0.81445
12.496,0.24536,0.6002,-0.021569,-0.50196,0.91016
12.504,0.24536,0.59238,0.052941,-0.34314,0.83398
12.512,0.24633,0.5826,0.21373,-0.0058823,0.73438
12.52,0.24633,0.57283,0.31373,0.2549,0.69922
12.528,0.24633,0.56305,0.3549,0.37059,0.68945
12.536,0.24536,0.55425,0.37451,0.4098,0.68945
12.544,0.24438,0.54448,0.38039,0.42549,0.69531
12.552,0.24242,0.5347,0.38039,0.43529,0.69922
12.56,0.24047,0.52493,0.3902,0.43529,0.69531
12.568,0.23851,0.51515,0.3902,0.43922,0.69531
12.576,0.23656,0.50635,0.4,0.43529,0.69531
12.584,0.2346,0.49756,0.3902,0.43922,0.68555
12.592,0.23265,0.49071,0.4,0.43529,0.68555
12.6,0.22972,0.48387,0.4,0.42941,0.67578
12.608,0.22678,0.47801,0.41569,0.43529,0.67578
12.616,0.22287,0.47214,0.41961,0.42941,0.66406
12.624,0.21994,0.46725,0.41569,0.42549,0.66992
12.632,0.21701,0.46237,0.42941,0.42549,0.66406
12.64,0.21408,0.4565,0.43529,0.41961,0.6543
12.648,0.21212,0.45064,0.44902,0.41569,0.65039
12.656,0.21017,0.44477,0.4549,0.4098,0.64453
12.664,0.20821,0.43891,0.46471,0.40392,0.64062
12.672,0.20528,0.435,0.47451,0.39412,0.62891
12.68,0.20332,0.43206,0.48431,0.38431,0.60938
12.688,0.20039,0.43011,0.5098,0.37451,0.59961
12.696,0.19844,0.42717,0.52941,0.35882,0.57422
12.704,0.19648,0.42522,0.5549,0.3451,0.55469
12.712,0.1955,0.42326,0.58039,0.32353,0.5293
12.72,0.19453,0.42131,0.6,0.3,0.50586
12.728,0.19453,0.42033,0.6098,0.27843,0.49023
12.736,0.19453,0.41838,0.61961,0.25882,0.47461
12.744,0.19453,0.41544,0.60588,0.2549,0.48047
12.752,0.1955,0.41251,0.5902,0.2549,0.49414
12.76,0.19648,0.4086,0.55098,0.2549,0.5293
12.768,0.19844,0.40371,0.51569,0.27843,0.57031
12.776,0.19941,0.39883,0.48039,0.30392,0.60938
12.784,0.20137,0.39492,0.4549,0.33529,0.65039
12.792,0.20332,0.39101,0.43529,0.35882,0.66992
12.8,0.2043,0.3871,0.43529,0.37451,0.67578
12.808,0.20528,0.38514,0.41961,0.38039,0.69531
12.816,0.20626,0.38221,0.41961,0.39412,0.69922
12.824,0.20723,0.38025,0.42549,0.39412,0.69922
12.832,0.20821,0.37732,0.41961,0.3902,0.69922
12.84,0.20821,0.37537,0.42549,0.3902,0.69922
12.848,0.20821,0.37243,0.43529,0.38039,0.69922
12.856,0.20723,0.36852,0.42941,0.38431,0.69531
12.864,0.20723,0.36559,0.43529,0.38431,0.68945
12.872,0.20626,0.36364,0.42549,0.3902,0.69531
12.88,0.20528,0.36266,0.42941,0.3902,0.69531
12.888,0.2043,0.36168,0.43529,0.38431,0.69531
12.896,0.2043,0.3607,0.42549,0.37451,0.69531
12.904,0.20235,0.35973,0.41961,0.37451,0.69922
12.912,0.20137,0.35875,0.41569,0.37451,0.69922
12.92,0.20039,0.35679,0.42549,0.37451,0.69531
12.928,0.19844,0.35582,0.43529,0.37059,0.68555
12.936,0.19648,0.35484,0.43529,0.37059,0.68945
12.944,0.19453,0.35288,0.42549,0.37451,0.69531
12.952,0.19257,0.35093,0.41961,0.37059,0.69531
12.96,0.19062,0.34995,0.43529,0.37451,0.68945
12.968,0.18866,0.34995,0.43529,0.39412,0.69922
12.976,0.18671,0.35093,0.4451,0.4,0.67969
12.984,0.18475,0.35386,0.47451,0.4,0.66016
12.992,0.1828,0.3607,0.5098,0.41569,0.63477
13,0.17986,0.37048,0.53529,0.4,0.60938
13.008,0.17791,0.38319,0.5549,0.39412,0.5957
13.016,0.17498,0.39883,0.57059,0.37451,0.58398
13.024,0.17302,0.41349,0.57451,0.3451,0.58008
13.032,0.17107,0.42913,0.53529,0.33922,0.60938
13.04,0.17009,0.44673,0.4902,0.3451,0.65039
13.048,0.16813,0.46725,0.4549,0.34902,0.67578
13.056,0.16618,0.48778,0.42941,0.3451,0.69922
13.064,0.1652,0.50635,0.41961,0.34902,0.70898
13.072,0.16325,0.52395,0.42941,0.32941,0.69922
13.08,0.16129,0.54057,0.41961,0.3451,0.70898
13.088,0.16031,0.55327,0.4098,0.34902,0.71484
13.096,0.15738,0.56305,0.41569,0.33529,0.70898
13.104,0.15543,0.56989,0.41569,0.33922,0.7207
13.112,0.15347,0.57478,0.41961,0.33922,0.71484
13.12,0.15152,0.57674,0.41569,0.3549,0.74023
13.128,0.14858,0.57771,0.5098,0.35882,0.66406
13.136,0.14565,0.57771,0.7549,0.2451,0.42578
13.144,0.13978,0.57674,1.0118,0.084314,0.33594
13.152,0.1349,0.57576,0.78039,-0.066667,0.58398
13.16,0.12708,0.57283,0.33922,-0.32157,0.91016
13.168,0.12023,0.56891,0.0078431,-0.44706,1.0488
13.176,0.1085,0.56403,-0.037255,-0.34706,1
13.184,0.097752,0.55816,0.12353,-0.10588,0.875
13.192,0.084066,0.5523,0.2902,0.1549,0.76562
13.2,0.070381,0.54545,0.38039,0.3,0.70508
13.208,0.056696,0.53763,0.39412,0.34902,0.69922
13.216,0.043011,0.52884,0.3902,0.37059,0.69531
13.224,0.02737,0.52004,0.42941,0.36471,0.67578
13.232,0.012708,0.51222,0.43529,0.38431,0.67969
13.24,0.0058651,0.50342,0.4098,0.39412,0.68555
13.248,0,0.49462,0.42549,0.37451,0.67969
13.256,0,0.48583,0.42941,0.38039,0.67578
13.264,0,0.47605,0.4451,0.38431,0.66406
13.272,0,0.4653,0.42549,0.3902,0.67578
13.28,0,0.45552,0.41961,0.37059,0.67969
13.288,0,0.44673,0.46078,0.35882,0.6543
13.296,0,0.43891,0.43922,0.37059,0.66016
13.304,0,0.43206,0.44902,0.37451,0.6543
13.312,0,0.4262,0.47059,0.35882,0.63477
13.32,0,0.42229,0.4902,0.3451,0.62891
13.328,0,0.42033,0.47451,0.34902,0.63477
13.336,0,0.4174,0.46471,0.33922,0.63477
13.344,0,0.41544,0.4902,0.32941,0.61914
13.352,0,0.41349,0.53529,0.30392,0.58398
13.36,0,0.41153,0.52549,0.30392,0.58008
13.368,0,0.40958,0.52941,0.29412,0.57031
13.376,0,0.40762,0.55098,0.27451,0.53906
13.384,0,0.40371,0.58039,0.2451,0.50586
13.392,0,0.39883,0.61569,0.21373,0.4707
13.4,0,0.39296,0.6098,0.2,0.46484
13.408,0,0.38807,0.61961,0.16863,0.46094
13.416,0,0.38319,0.63529,0.1549,0.44531
13.424,0,0.38025,0.6,0.16471,0.4707
13.432,0,0.37732,0.56471,0.18431,0.50586
13.44,0,0.37439,0.53529,0.2,0.55078
13.448,0,0.37243,0.50588,0.22353,0.58398
13.456,0,0.37146,0.48431,0.26471,0.625
13.464,0,0.37048,0.47059,0.3098,0.65039
13.472,0,0.3695,0.43529,0.34902,0.67969
13.48,0,0.3695,0.42549,0.35882,0.69531
13.488,0,0.3695,0.4451,0.3549,0.68945
13.496,0,0.36852,0.43529,0.37059,0.69531
13.504,0,0.36755,0.41961,0.4,0.70508
13.512,0,0.36559,0.42941,0.39412,0.70898
13.52,0,0.36364,0.43922,0.38039,0.69531
13.528,0,0.36168,0.42941,0.37451,0.69922
13.536,0,0.35973,0.42941,0.38039,0.69922
13.544,0,0.35777,0.4451,0.35882,0.67969
13.552,0,0.35582,0.47451,0.33922,0.66016
13.56,0,0.35484,0.43529,0.37451,0.67969
13.568,0,0.35386,0.42941,0.36471,0.69531
13.576,0,0.35386,0.4451,0.36471,0.67578
13.584,0,0.35386,0.46078,0.3549,0.66406
13.592,0,0.35288,0.4451,0.36471,0.66992
13.6,0,0.35191,0.43529,0.37059,0.67578
13.608,0,0.35093,0.46078,0.34902,0.66406
13.616,0,0.34995,0.4549,0.3549,0.67578
13.624,0,0.34897,0.46471,0.34902,0.66406
13.632,0,0.348,0.47059,0.36471,0.66016
13.64,0,0.34604,0.46471,0.37451,0.66016
13.648,0,0.34506,0.47451,0.4,0.66016
13.656,0,0.34409,0.48039,0.41569,0.6543
13.664,0,0.34506,0.51569,0.4098,0.625
13.672,0,0.34897,0.53529,0.4,0.60547
13.68,0,0.35679,0.52941,0.4098,0.5957
13.688,0,0.36755,0.5549,0.36471,0.58008
13.696,0,0.39198,0.55098,0.3451,0.58984
13.704,0,0.42326,0.51961,0.34902,0.61523
13.712,0,0.44966,0.48039,0.34902,0.64453
13.72,0,0.47019,0.44902,0.33529,0.66992
13.728,0,0.48778,0.4,0.35882,0.69531
13.736,0,0.50635,0.3902,0.37451,0.70508
13.744,0,0.52297,0.40392,0.3549,0.69531
13.752,0.01173,0.53861,0.39412,0.34902,0.69922
13.76,0.02346,0.5523,0.3902,0.35882,0.69531
13.768,0.038123,0.56207,0.40392,0.34902,0.69922
13.776,0.053763,0.56891,0.3902,0.34902,0.69922
13.784,0.070381,0.57283,0.41569,0.3451,0.68555
13.792,0.087977,0.5738,0.43922,0.38039,0.69922
13.8,0.10655,0.5738,0.56471,0.32941,0.58984
13.808,0.12512,0.57283,0.83137,0.2,0.35547
13.816,0.14467,0.57087,1.0275,0.052941,0.32422
13.824,0.16422,0.56891,0.7,-0.011765,0.69531
13.832,0.18377,0.565,0.25882,-0.21765,1
13.84,0.20332,0.56109,-0.072549,-0.32745,1.1152
13.848,0.22092,0.55621,-0.11176,-0.25686,1.0449
13.856,0.23851,0.54936,0.1098,-0.056863,0.86914
13.864,0.25415,0.54252,0.29412,0.19412,0.72461
13.872,0.26979,0.5347,0.37059,0.33529,0.67578
13.88,0.28641,0.52688,0.3902,0.37059,0.66406
13.888,0.30303,0.52004,0.3902,0.38431,0.66992
13.896,0.32063,0.51222,0.40392,0.39412,0.6543
13.904,0.33724,0.50538,0.41569,0.4,0.65039
13.912,0.35191,0.49658,0.42941,0.4,0.64453
13.92,0.36657,0.48876,0.43922,0.3902,0.62891
13.928,0.38025,0.48094,0.43922,0.4,0.62891
13.936,0.39296,0.47312,0.4451,0.4,0.62891
13.944,0.40665,0.46432,0.43922,0.39412,0.62891
13.952,0.42033,0.4565,0.4451,0.39412,0.62891
13.96,0.43304,0.4477,0.4549,0.3902,0.61914
13.968,0.44673,0.44086,0.46078,0.3902,0.61523
13.976,0.46041,0.435,0.46471,0.38039,0.61523
13.984,0.4741,0.42913,0.47451,0.37451,0.60547
13.992,0.48778,0.42424,0.48039,0.37451,0.60547
14,0.50147,0.42033,0.48431,0.37451,0.5957
14.008,0.51417,0.41642,0.5,0.36471,0.58008
14.016,0.5259,0.41349,0.5098,0.34902,0.57031
14.024,0.53763,0.41056,0.51961,0.3451,0.56055
14.032,0.54839,0.40958,0.52941,0.32941,0.54492
14.04,0.56109,0.4086,0.5549,0.31961,0.52539
14.048,0.57478,0.40762,0.56471,0.3,0.50977
14.056,0.58847,0.40665,0.58039,0.27843,0.49023
14.064,0.60215,0.40469,0.58039,0.2549,0.48047
14.072,0.61486,0.40274,0.6,0.23922,0.46484
14.08,0.62854,0.40078,0.6,0.22941,0.44922
14.088,0.64027,0.39883,0.60588,0.21373,0.44922
14.096,0.65298,0.39589,0.57451,0.21373,0.47461
14.104,0.66764,0.39296,0.55098,0.22941,0.50586
14.112,0.68133,0.38905,0.5098,0.25882,0.55078
14.12,0.69697,0.3871,0.47451,0.3,0.58984
14.128,0.71359,0.38514,0.4451,0.32941,0.625
14.136,0.73021,0.38319,0.42941,0.35882,0.65039
14.144,0.7478,0.38123,0.42549,0.38039,0.66992
14.152,0.7654,0.37928,0.41569,0.3902,0.67578
14.16,0.78299,0.3783,0.41569,0.4,0.67969
14.168,0.79765,0.37537,0.41569,0.4,0.67969
14.176,0.81329,0.37243,0.41569,0.4098,0.68555
14.184,0.82698,0.3695,0.41569,0.4098,0.68945
14.192,0.83969,0.36559,0.42549,0.40392,0.68555
14.2,0.85337,0.36266,0.41961,0.40392,0.67969
14.208,0.86608,0.35875,0.41961,0.39412,0.67969
14.216,0.87977,0.35582,0.41569,0.39412,0.68555
14.224,0.89247,0.35288,0.4098,0.39412,0.67969
14.232,0.90323,0.35093,0.4,0.3902,0.68555
14.24,0.91398,0.34995,0.40392,0.3902,0.67969
14.248,0.92375,0.348,0.4098,0.38431,0.67969
14.256,0.93353,0.34604,0.40392,0.38431,0.67969
14.264,0.94135,0.34506,0.4098,0.38039,0.67578
14.272,0.95015,0.34311,0.4098,0.37451,0.67578
14.28,0.95797,0.34115,0.41569,0.37451,0.67578
14.288,0.96579,0.3392,0.41569,0.37451,0.66992
14.296,0.97165,0.33822,0.41961,0.38039,0.67578
14.304,0.97752,0.33627,0.41569,0.38431,0.67578
14.312,0.9824,0.33529,0.41961,0.4,0.66992
14.32,0.98827,0.33627,0.43529,0.4098,0.66406
14.328,0.99218,0.33822,0.44902,0.41961,0.65039
14.336,0.99609,0.34018,0.48039,0.42941,0.62891
14.344,0.99804,0.34506,0.5098,0.41569,0.60547
14.352,1,0.35191,0.52941,0.40392,0.58008
14.36,1,0.36168,0.5451,0.3902,0.57422
14.368,1,0.37341,0.5451,0.36471,0.58008
14.376,1,0.38905,0.52549,0.34902,0.58984
14.384,1,0.40567,0.48431,0.34902,0.625
14.392,1,0.42326,0.4451,0.34902,0.66406
14.4,1,0.44184,0.41569,0.34902,0.67969
14.408,1,0.45943,0.4098,0.34902,0.68945
14.416,1,0.47605,0.40392,0.3549,0.68555
14.424,1,0.48876,0.4098,0.34902,0.68555
14.432,1,0.49951,0.41569,0.34902,0.68555
14.44,1,0.50929,0.41569,0.34902,0.68555
14.448,1,0.51711,0.41569,0.34902,0.67969
14.456,1,0.52297,0.41961,0.3549,0.67969
14.464,1,0.52786,0.41961,0.38431,0.70508
14.472,1,0.52981,0.50588,0.3902,0.6543
14.48,1,0.53079,0.7549,0.3,0.43945
14.488,1,0.53079,1.0314,0.11961,0.32031
14.496,1,0.52884,1.0922,-0.19216,0.46484
14.504,1,0.5259,0.44902,-0.45686,0.7793
14.512,1,0.52297,0.029412,-0.50196,0.94531
14.52,1,0.52004,-0.047059,-0.44314,0.95898
14.528,1,0.51613,0.12353,-0.17647,0.81055
14.536,1,0.51222,0.28431,0.13333,0.70898
14.544,1,0.50733,0.37451,0.32353,0.67578
14.552,0.99707,0.50147,0.40392,0.3902,0.66406
14.56,0.99413,0.49462,0.41569,0.4098,0.66406
14.568,0.99022,0.4868,0.42941,0.41961,0.66406
14.576,0.98631,0.47801,0.43529,0.42549,0.6543
14.584,0.98045,0.46921,0.43922,0.42941,0.6543
14.592,0.97556,0.46139,0.44902,0.42549,0.6543
14.6,0.96774,0.45455,0.44902,0.42941,0.6543
14.608,0.9609,0.4477,0.4549,0.42549,0.6543
14.616,0.9521,0.44184,0.4549,0.42549,0.6543
14.624,0.9433,0.43695,0.46078,0.41961,0.65039
14.632,0.93255,0.43304,0.46471,0.41961,0.64453
14.64,0.9218,0.42815,0.46471,0.41569,0.64453
14.648,0.91202,0.42424,0.47059,0.41569,0.64453
14.656,0.90225,0.41935,0.48039,0.4098,0.64062
14.664,0.89345,0.41642,0.48431,0.40392,0.63477
14.672,0.88465,0.41349,0.4902,0.40392,0.62891
14.68,0.87488,0.41056,0.50588,0.4,0.61914
14.688,0.86608,0.40762,0.51961,0.3902,0.60938
14.696,0.8563,0.40665,0.52941,0.38039,0.60547
14.704,0.84751,0.40567,0.53922,0.37451,0.58398
14.712,0.83871,0.40469,0.56078,0.35882,0.57422
14.72,0.83089,0.40567,0.58039,0.3451,0.55469
14.728,0.82307,0.40567,0.6,0.32353,0.5293
14.736,0.81623,0.40567,0.61961,0.30392,0.50977
14.744,0.80938,0.40665,0.63529,0.27843,0.49023
14.752,0.80254,0.40567,0.6451,0.25882,0.47461
14.76,0.7957,0.40567,0.65098,0.23922,0.46484
14.768,0.78886,0.40469,0.64118,0.23333,0.47461
14.776,0.78201,0.40371,0.6098,0.23333,0.50586
14.784,0.77615,0.40176,0.57059,0.2549,0.53906
14.792,0.76931,0.40078,0.52941,0.27843,0.58008
14.8,0.76344,0.39883,0.50588,0.3098,0.61523
14.808,0.75758,0.39589,0.48039,0.33922,0.64453
14.816,0.75171,0.39394,0.47059,0.3549,0.66016
14.824,0.74682,0.39198,0.46078,0.37451,0.67578
14.832,0.74096,0.39003,0.4549,0.38039,0.67578
14.84,0.73509,0.38807,0.4549,0.3902,0.68555
14.848,0.72825,0.38612,0.46078,0.3902,0.67969
14.856,0.72141,0.38514,0.4549,0.3902,0.67969
14.864,0.71359,0.38416,0.46078,0.38431,0.67969
14.872,0.70674,0.38416,0.47059,0.38431,0.67578
14.88,0.6999,0.38319,0.47451,0.38039,0.66992
14.888,0.69306,0.38123,0.4902,0.37451,0.6543
14.896,0.68622,0.38025,0.53529,0.39412,0.625
14.904,0.6784,0.37928,0.5902,0.41961,0.58398
14.912,0.67155,0.3783,0.67647,0.42549,0.50586
14.92,0.66373,0.37732,0.7451,0.36471,0.41016
14.928,0.65689,0.37732,0.85686,0.30392,0.25586
14.936,0.64907,0.37634,1.051,0.2098,-0.044922
14.944,0.64027,0.37439,1.2118,0.088235,-0.37891
14.952,0.63245,0.37146,1.0471,0.039216,-0.49805
14.96,0.62366,0.3695,0.6549,0.68627,-0.10938
14.968,0.61584,0.36755,0.51569,1.5039,0.46094
14.976,0.60802,0.36657,0.53529,1.5039,0.78516
14.984,0.6002,0.36559,0.48039,1.0118,0.83008
14.992,0.59335,0.36559,0.42549,0.35882,0.76953
15,0.58651,0.36657,0.41961,0.26471,0.76953
15.008,0.58065,0.37146,0.43922,0.24902,0.76562
15.016,0.57478,0.3783,0.4549,0.22353,0.75977
15.024,0.56891,0.38807,0.46078,0.21373,0.75977
15.032,0.565,0.40078,0.43529,0.2098,0.76562
15.04,0.56012,0.4174,0.41961,0.2,0.75977
15.048,0.55621,0.43695,0.39412,0.18824,0.78906
15.056,0.55327,0.45748,0.38039,0.18824,0.80469
15.064,0.55034,0.47801,0.35882,0.18824,0.82422
15.072,0.54741,0.49853,0.3549,0.18431,0.83984
15.08,0.54545,0.51711,0.34902,0.17843,0.83984
15.088,0.5435,0.53372,0.3451,0.16471,0.83984
15.096,0.54154,0.54936,0.3451,0.15882,0.84375
15.104,0.54057,0.56109,0.3451,0.13922,0.84961
15.112,0.53959,0.57087,0.3451,0.12353,0.85938
15.12,0.53861,0.57674,0.33922,0.098039,0.86523
15.128,0.53861,0.58065,0.3451,0.07451,0.86523
15.136,0.53763,0.58358,0.3451,0.039216,0.875
15.144,0.53763,0.58651,0.3549,-0.0058823,0.87891
15.152,0.53666,0.58749,0.36471,-0.060784,0.87891
15.16,0.53568,0.58749,0.36471,-0.11176,0.88477
15.168,0.5347,0.58749,0.37059,-0.17255,0.86914
15.176,0.53275,0.58553,0.3902,-0.22745,0.84961
15.184,0.53177,0.5826,0.4098,-0.27647,0.82422
15.192,0.52981,0.57869,0.42941,-0.30784,0.78516
15.2,0.52884,0.57478,0.4451,-0.31176,0.74023
15.208,0.52688,0.56989,0.46078,-0.29216,0.69922
15.216,0.5259,0.56598,0.44902,-0.23725,0.68555
15.224,0.52297,0.56109,0.43922,-0.16667,0.67578
15.232,0.52004,0.55523,0.43529,-0.086275,0.67578
15.24,0.51613,0.54741,0.43529,0.0078431,0.66992
15.248,0.51222,0.53959,0.43529,0.10392,0.66016
15.256,0.50733,0.53079,0.46471,0.2,0.64453
15.264,0.50244,0.52199,0.5098,0.2902,0.625
15.272,0.49756,0.5132,0.57451,0.35882,0.58008
15.28,0.49169,0.50538,0.68627,0.4098,0.50977
15.288,0.4868,0.49756,0.91176,0.38039,0.31445
15.296,0.48192,0.49071,1.1922,0.3,-0.029297
15.304,0.47703,0.48387,1.2922,0.2549,-0.35352
15.312,0.47312,0.47801,0.94118,0.29412,-0.41406
15.32,0.46823,0.47312,0.61569,0.50588,-0.24414
15.328,0.46432,0.46921,0.19412,1.0725,0.38477
15.336,0.46041,0.46628,-0.17255,1.5039,1.1836
15.344,0.45748,0.46237,-0.32157,1.5039,1.5
15.352,0.45455,0.45943,0.07451,1.5039,1.1934
15.36,0.45161,0.4565,0.35882,0.63529,0.85547
15.368,0.44868,0.45259,0.46078,0.31373,0.74023
15.376,0.44673,0.44868,0.48039,0.26863,0.7207
15.384,0.44477,0.44575,0.48431,0.26471,0.71484
15.392,0.44379,0.44184,0.48039,0.25882,0.72461
15.4,0.44282,0.43988,0.46078,0.2549,0.73438
15.408,0.44282,0.43793,0.43529,0.2549,0.75
15.416,0.44282,0.43695,0.41569,0.24902,0.76562
15.424,0.44282,0.435,0.4098,0.2549,0.76562
15.432,0.44379,0.43402,0.41569,0.2549,0.75977
15.44,0.44379,0.43206,0.43529,0.2549,0.75391
15.448,0.44477,0.43109,0.43922,0.2451,0.75977
15.456,0.44575,0.42913,0.47451,0.22353,0.74023
15.464,0.44673,0.42717,0.50588,0.2098,0.70898
15.472,0.4477,0.42522,0.52549,0.2,0.69531
15.48,0.44966,0.42424,0.52941,0.18431,0.68945
15.488,0.45161,0.42229,0.53529,0.15882,0.69531
15.496,0.45455,0.42033,0.5549,0.12941,0.67578
15.504,0.4565,0.41935,0.58039,0.084314,0.66016
15.512,0.45846,0.41935,0.6,0.043137,0.65039
15.52,0.46041,0.42033,0.63529,-0.011765,0.61914
15.528,0.46139,0.42131,0.67059,-0.056863,0.58398
15.536,0.46334,0.42229,0.71569,-0.096078,0.54492
15.544,0.46334,0.42424,0.74118,-0.12745,0.5
15.552,0.46432,0.4262,0.75098,-0.13137,0.4707
15.56,0.4653,0.42717,0.74118,-0.11176,0.46094
15.568,0.4653,0.42913,0.71569,-0.066667,0.46484
15.576,0.46432,0.43109,0.68627,-0.0058823,0.47461
15.584,0.46334,0.43304,0.6451,0.07451,0.5
15.592,0.46139,0.43402,0.6,0.1549,0.5293
15.6,0.45943,0.435,0.56471,0.23333,0.56445
15.608,0.45748,0.43402,0.53529,0.3098,0.58984
15.616,0.45455,0.43402,0.5098,0.35882,0.60938
15.624,0.45064,0.43304,0.4902,0.4,0.62891
15.632,0.4477,0.43206,0.48039,0.42549,0.64062
15.64,0.44282,0.43011,0.47451,0.43922,0.65039
15.648,0.43891,0.42717,0.47059,0.4451,0.6543
15.656,0.43402,0.42326,0.46471,0.44902,0.6543
15.664,0.42913,0.41935,0.46078,0.44902,0.66016
15.672,0.42424,0.41544,0.46078,0.4451,0.66406
15.68,0.42033,0.41153,0.46078,0.4451,0.66016
15.688,0.41544,0.4086,0.46078,0.4451,0.66016
15.696,0.41153,0.40469,0.46078,0.43922,0.66016
15.704,0.40665,0.40176,0.46078,0.43529,0.66016
15.712,0.40274,0.39785,0.46471,0.42941,0.66406
15.72,0.39785,0.39589,0.46471,0.42941,0.66016
15.728,0.39394,0.39394,0.46078,0.42941,0.67578
15.736,0.39101,0.39296,0.46078,0.43529,0.66992
15.744,0.38807,0.40176,0.44902,0.43529,0.67578
15.752,0.38612,0.41642,0.43922,0.42941,0.67578
15.76,0.38416,0.42424,0.43922,0.43529,0.67969
15.768,0.38319,0.42815,0.43922,0.43529,0.68555
15.776,0.38221,0.43109,0.43922,0.42941,0.67969
15.784,0.38221,0.43304,0.43529,0.42941,0.68555
15.792,0.38221,0.43402,0.43529,0.42549,0.67969
15.8,0.38319,0.435,0.43529,0.42549,0.68555
15.808,0.38416,0.43597,0.42941,0.42549,0.68945
15.816,0.38612,0.43597,0.43529,0.41961,0.68555
15.824,0.38807,0.43695,0.42941,0.41961,0.68555
15.832,0.38905,0.43793,0.43529,0.41569,0.67969
15.84,0.39003,0.43793,0.43922,0.41569,0.68555
15.848,0.39101,0.43793,0.43922,0.41569,0.67578
15.856,0.39296,0.43793,0.43922,0.4098,0.67578
15.864,0.39394,0.43891,0.4451,0.4098,0.67969
15.872,0.39589,0.44086,0.43529,0.40392,0.67969
15.88,0.39785,0.44379,0.43529,0.4098,0.67969
15.888,0.40078,0.44868,0.43529,0.40392,0.67969
15.896,0.40176,0.45357,0.43922,0.4,0.67578
15.904,0.40371,0.45846,0.4451,0.4,0.67578
15.912,0.40567,0.46334,0.4451,0.4,0.66992
15.92,0.40665,0.46823,0.44902,0.39412,0.66406
15.928,0.40665,0.47214,0.44902,0.3902,0.66992
15.936,0.40665,0.47703,0.44902,0.39412,0.67578
15.944,0.40665,0.48192,0.44902,0.3902,0.67578
15.952,0.40567,0.48583,0.4451,0.3902,0.66992
15.96,0.40469,0.48876,0.44902,0.3902,0.67578
15.968,0.40274,0.49071,0.4451,0.38431,0.66406
15.976,0.3998,0.48974,0.4549,0.38039,0.66406
15.984,0.39785,0.48778,0.44902,0.37451,0.66992
15.992,0.39492,0.48387,0.44902,0.37451,0.66992
16,0.39198,0.47996,0.4451,0.38039,0.66992
16.008,0.38905,0.47605,0.44902,0.37451,0.66992
16.016,0.38612,0.47312,0.44902,0.37451,0.66992
16.024,0.38123,0.47019,0.46078,0.37059,0.66406
16.032,0.37732,0.46628,0.46078,0.36471,0.66016
16.04,0.37146,0.46334,0.46078,0.36471,0.6543
16.048,0.36559,0.45943,0.46078,0.37059,0.66406
16.056,0.35973,0.4565,0.46078,0.37451,0.6543
16.064,0.35484,0.45357,0.46078,0.35882,0.6543
16.072,0.34897,0.45161,0.46078,0.35882,0.6543
16.08,0.34311,0.44966,0.46078,0.35882,0.6543
16.088,0.33822,0.44868,0.46471,0.35882,0.6543
16.096,0.33333,0.44673,0.46471,0.3549,0.6543
16.104,0.32942,0.44575,0.46078,0.3549,0.66016
16.112,0.32454,0.44477,0.47059,0.34902,0.6543
16.12,0.31965,0.44379,0.47451,0.34902,0.6543
16.128,0.31574,0.44477,0.47059,0.34902,0.6543
16.136,0.31085,0.44477,0.47059,0.34902,0.6543
16.144,0.30694,0.44477,0.47451,0.3451,0.6543
16.152,0.30303,0.44477,0.46471,0.34902,0.6543
16.16,0.29912,0.44477,0.47059,0.3451,0.65039
16.168,0.29619,0.44477,0.47451,0.3451,0.64453
16.176,0.29326,0.44477,0.48431,0.33922,0.64453
16.184,0.2913,0.44477,0.48431,0.33922,0.64062
16.192,0.28935,0.44477,0.48039,0.33529,0.64453
16.2,0.28739,0.44477,0.48039,0.33529,0.64062
16.208,0.28641,0.44477,0.48039,0.33529,0.64453
16.216,0.28446,0.44477,0.48039,0.32941,0.64062
16.224,0.28348,0.44575,0.47451,0.33529,0.64453
16.232,0.2825,0.44575,0.47451,0.33529,0.64453
16.24,0.28152,0.44575,0.48039,0.34902,0.65039
16.248,0.28055,0.44575,0.48039,0.35882,0.64453
16.256,0.27957,0.44575,0.4902,0.36471,0.63477
16.264,0.27859,0.44477,0.51961,0.38039,0.61523
16.272,0.27859,0.44477,0.55098,0.37451,0.58398
16.28,0.27859,0.44282,0.57451,0.3549,0.56445
16.288,0.27859,0.44184,0.59608,0.34902,0.55078
16.296,0.27859,0.44184,0.59608,0.32941,0.55078
16.304,0.27957,0.44184,0.58431,0.31373,0.55469
16.312,0.28055,0.44086,0.56078,0.30392,0.57422
16.32,0.28152,0.44086,0.52549,0.30392,0.60547
16.328,0.2825,0.43988,0.5098,0.30392,0.625
16.336,0.28348,0.43988,0.5,0.30392,0.62891
16.344,0.28543,0.43891,0.49412,0.3,0.63477
16.352,0.28641,0.43793,0.50588,0.3,0.62891
16.36,0.28837,0.43597,0.5098,0.29412,0.62891
16.368,0.29032,0.435,0.51961,0.29412,0.625
16.376,0.29228,0.43304,0.51961,0.29412,0.62891
16.384,0.29326,0.43206,0.51569,0.31373,0.64062
16.392,0.29521,0.43011,0.5549,0.32941,0.65039
16.4,0.29717,0.42815,0.75098,0.28431,0.46094
16.408,0.29814,0.42717,1.0314,0.19412,0.30078
16.416,0.3001,0.42522,1.1725,-0.15098,0.25977
16.424,0.30108,0.42424,0.79608,-0.39804,0.53906
16.432,0.30205,0.42229,0.32941,-0.50196,0.75977
16.44,0.30303,0.42131,0.13922,-0.50196,0.81445
16.448,0.30401,0.41935,0.23333,-0.34314,0.73438
16.456,0.30596,0.41838,0.38039,-0.015686,0.64453
16.464,0.30694,0.4174,0.46078,0.20392,0.61523
16.472,0.3089,0.41642,0.4902,0.3,0.61523
16.48,0.31085,0.41642,0.49412,0.33529,0.625
16.488,0.31281,0.41642,0.5,0.34902,0.625
16.496,0.31378,0.41642,0.50588,0.36471,0.625
16.504,0.31574,0.41642,0.5098,0.37059,0.625
16.512,0.31672,0.41642,0.5098,0.36471,0.625
16.52,0.31769,0.41642,0.50588,0.37059,0.625
16.528,0.31867,0.41642,0.50588,0.37451,0.625
16.536,0.31867,0.41544,0.4902,0.37451,0.62891
16.544,0.31867,0.41349,0.48431,0.37451,0.64062
16.552,0.31769,0.41251,0.48431,0.37451,0.64453
16.56,0.31769,0.41153,0.48431,0.37059,0.64062
16.568,0.31672,0.41153,0.5,0.35882,0.63477
16.576,0.31672,0.41153,0.50588,0.3549,0.62891
16.584,0.31574,0.41153,0.5098,0.3549,0.625
16.592,0.31574,0.41153,0.51961,0.34902,0.61914
16.6,0.31378,0.41153,0.52549,0.34902,0.60938
16.608,0.31281,0.41153,0.52941,0.3451,0.60547
16.616,0.31183,0.41153,0.52941,0.3451,0.60547
16.624,0.31085,0.41251,0.53529,0.33529,0.60547
16.632,0.3089,0.41251,0.53922,0.32941,0.59961
16.64,0.30694,0.41153,0.55098,0.32353,0.58984
16.648,0.30499,0.40958,0.5549,0.31373,0.58008
16.656,0.30303,0.4086,0.5549,0.3,0.58008
16.664,0.30108,0.4086,0.56471,0.2902,0.57031
16.672,0.29912,0.4086,0.58039,0.27451,0.56055
16.68,0.29717,0.4086,0.58039,0.2549,0.55469
16.688,0.29521,0.4086,0.5902,0.2451,0.55078
16.696,0.29228,0.4086,0.6,0.22941,0.53516
16.704,0.29032,0.4086,0.61569,0.2098,0.52539
16.712,0.28837,0.40958,0.61961,0.20392,0.51953
16.72,0.28543,0.41056,0.6,0.18824,0.52539
16.728,0.28348,0.41056,0.58431,0.19412,0.53516
16.736,0.28055,0.41153,0.56078,0.21373,0.56055
16.744,0.27859,0.41153,0.5451,0.23922,0.58008
16.752,0.27566,0.41153,0.52941,0.26863,0.59961
16.76,0.27273,0.41153,0.51961,0.29412,0.61523
16.768,0.26979,0.41153,0.51569,0.3098,0.625
16.776,0.26588,0.41153,0.5098,0.32941,0.62891
16.784,0.26295,0.41153,0.50588,0.33529,0.62891
16.792,0.26002,0.41153,0.5,0.33922,0.63477
16.8,0.25709,0.41153,0.50588,0.33922,0.63477
16.808,0.25415,0.41251,0.50588,0.3451,0.63477
16.816,0.25122,0.41447,0.50588,0.3451,0.62891
16.824,0.24731,0.41544,0.5098,0.33922,0.625
16.832,0.24438,0.41544,0.5098,0.3451,0.625
16.84,0.24145,0.41642,0.51569,0.33529,0.61914
16.848,0.23754,0.41642,0.5098,0.32941,0.61523
16.856,0.23363,0.41642,0.5098,0.32941,0.61523
16.864,0.23069,0.41642,0.5098,0.32941,0.61523
16.872,0.22678,0.41642,0.51569,0.32941,0.61523
16.88,0.22287,0.41642,0.51569,0.32941,0.60938
16.888,0.22092,0.4174,0.51961,0.33529,0.60938
16.896,0.21799,0.41935,0.51961,0.33922,0.60938
16.904,0.21603,0.42131,0.51569,0.3451,0.61523
16.912,0.21408,0.42326,0.5098,0.34902,0.61523
16.92,0.21212,0.42717,0.5098,0.34902,0.61914
16.928,0.21017,0.43402,0.5,0.35882,0.62891
16.936,0.20821,0.44379,0.5,0.37451,0.62891
16.944,0.20723,0.45552,0.5098,0.3902,0.61914
16.952,0.20626,0.47214,0.52549,0.4,0.60938
16.96,0.20626,0.49267,0.5549,0.4098,0.58984
16.968,0.20626,0.51613,0.58039,0.39412,0.56445
16.976,0.20626,0.53959,0.5902,0.37451,0.55469
16.984,0.20821,0.565,0.5902,0.37059,0.55469
16.992,0.20919,0.58847,0.57451,0.33922,0.56055
17,0.21114,0.60997,0.5451,0.32941,0.58398
17.008,0.21408,0.62952,0.5,0.33922,0.625
17.016,0.21603,0.64516,0.47059,0.34902,0.6543
17.024,0.21896,0.65494,0.4549,0.34902,0.66406
17.032,0.22092,0.66471,0.44902,0.3451,0.67578
17.04,0.22385,0.67253,0.43922,0.34902,0.67578
17.048,0.22581,0.6784,0.43529,0.3451,0.67578
17.056,0.22874,0.68133,0.43922,0.3451,0.67578
17.064,0.23069,0.68328,0.43529,0.3451,0.67578
17.072,0.23363,0.68328,0.43529,0.34902,0.67578
17.08,0.23558,0.68231,0.42941,0.37059,0.69531
17.088,0.23851,0.68035,0.4549,0.38431,0.70898
17.096,0.24047,0.67742,0.64118,0.3451,0.53516
17.104,0.2434,0.67253,0.91176,0.2549,0.375
17.112,0.24438,0.66764,1.0824,-0.11765,0.33008
17.12,0.24536,0.66178,0.73529,-0.37843,0.55469
17.128,0.24536,0.65591,0.26471,-0.50196,0.78906
17.136,0.24633,0.64907,0.043137,-0.50196,0.86914
17.144,0.24633,0.64125,0.12941,-0.32745,0.79883
17.152,0.24536,0.63245,0.28431,0.0039216,0.69531
17.16,0.24438,0.62268,0.37059,0.25882,0.66992
17.168,0.2434,0.61486,0.41569,0.3549,0.66406
17.176,0.24145,0.60704,0.42549,0.39412,0.66016
17.184,0.23949,0.6002,0.42941,0.4098,0.66406
17.192,0.23656,0.59335,0.43529,0.41961,0.66016
17.2,0.23363,0.58749,0.43529,0.42549,0.66016
17.208,0.22972,0.58065,0.43529,0.42549,0.66406
17.216,0.22678,0.57576,0.42941,0.42549,0.66406
17.224,0.22287,0.57087,0.43529,0.41961,0.66016
17.232,0.21896,0.56598,0.43529,0.41961,0.66016
17.24,0.21408,0.56109,0.43529,0.41961,0.66406
17.248,0.20919,0.55621,0.43529,0.41961,0.66016
17.256,0.2043,0.55132,0.43529,0.41569,0.66406
17.264,0.19844,0.54643,0.43922,0.41569,0.6543
17.272,0.19355,0.54252,0.44902,0.4098,0.6543
17.28,0.18866,0.53861,0.46078,0.40392,0.64453
17.288,0.18377,0.53568,0.46471,0.4,0.63477
17.296,0.17889,0.53177,0.48039,0.4,0.62891
17.304,0.17498,0.52884,0.48431,0.39412,0.61914
17.312,0.17107,0.5259,0.5,0.38431,0.60547
17.32,0.16716,0.52297,0.5098,0.38039,0.5957
17.328,0.16325,0.52004,0.52941,0.37059,0.58008
17.336,0.15934,0.51711,0.55098,0.34902,0.56055
17.344,0.1564,0.51417,0.56078,0.32941,0.53516
17.352,0.15445,0.51124,0.58431,0.3098,0.51562
17.36,0.15152,0.50831,0.59608,0.3,0.49414
17.368,0.15054,0.50635,0.6098,0.27451,0.47461
17.376,0.14956,0.50342,0.62549,0.2549,0.46484
17.384,0.14956,0.50049,0.61569,0.23922,0.46484
17.392,0.14956,0.49756,0.5902,0.23922,0.49023
17.4,0.15054,0.4956,0.55098,0.2549,0.5293
17.408,0.15152,0.49365,0.51569,0.27451,0.57031
17.416,0.15347,0.49267,0.49412,0.30392,0.59961
17.424,0.15543,0.49071,0.48431,0.32353,0.625
17.432,0.15738,0.48876,0.48039,0.3451,0.64453
17.44,0.15836,0.4868,0.48039,0.3549,0.6543
17.448,0.16031,0.48387,0.47451,0.37059,0.66406
17.456,0.16129,0.48192,0.47059,0.37451,0.67578
17.464,0.16227,0.47996,0.47059,0.37451,0.67578
17.472,0.16325,0.47801,0.46471,0.37451,0.67578
17.48,0.16325,0.47703,0.46471,0.37451,0.67578
17.488,0.16422,0.47507,0.46078,0.37451,0.67969
17.496,0.16325,0.47312,0.46471,0.38039,0.67578
17.504,0.16325,0.47214,0.47059,0.37451,0.67578
17.512,0.16227,0.47019,0.47059,0.37059,0.67578
17.52,0.16129,0.46921,0.48431,0.37059,0.66992
17.528,0.16031,0.46628,0.48431,0.36471,0.66406
17.536,0.15934,0.46334,0.4902,0.35882,0.66016
17.544,0.15836,0.46041,0.48431,0.34902,0.66016
17.552,0.15738,0.45846,0.48431,0.3549,0.66406
17.56,0.1564,0.4565,0.4902,0.3549,0.6543
17.568,0.15543,0.45552,0.48039,0.3549,0.66406
17.576,0.15445,0.45357,0.47451,0.34902,0.66406
17.584,0.15347,0.45357,0.47451,0.3549,0.66406
17.592,0.15347,0.45357,0.48431,0.3549,0.66406
17.6,0.15249,0.45259,0.48039,0.3549,0.66992
17.608,0.15152,0.45259,0.47451,0.37451,0.67578
17.616,0.15054,0.45357,0.48431,0.38431,0.66016
17.624,0.15054,0.45552,0.5,0.4,0.64453
17.632,0.14956,0.45748,0.52941,0.4098,0.61914
17.64,0.14858,0.46139,0.5549,0.3902,0.5957
17.648,0.14761,0.46823,0.58039,0.38039,0.57422
17.656,0.14761,0.47801,0.5902,0.36471,0.56055
17.664,0.14761,0.49071,0.59608,0.33922,0.56055
17.672,0.14761,0.50538,0.56471,0.32941,0.58398
17.68,0.14858,0.52199,0.51961,0.32941,0.625
17.688,0.14956,0.53959,0.48039,0.32941,0.6543
17.696,0.15054,0.55621,0.46078,0.33529,0.67578
17.704,0.15152,0.57185,0.4549,0.33922,0.67578
17.712,0.15347,0.58358,0.4549,0.33529,0.67578
17.72,0.15543,0.59433,0.4549,0.33529,0.66992
17.728,0.15738,0.60411,0.4451,0.32941,0.67578
17.736,0.15836,0.6129,0.44902,0.32941,0.67578
17.744,0.16031,0.61975,0.4451,0.32941,0.67578
17.752,0.16227,0.62463,0.44902,0.33529,0.67578
17.76,0.16422,0.62854,0.4549,0.37059,0.69922
17.768,0.16618,0.63148,0.55098,0.3549,0.63477
17.776,0.16911,0.63343,0.78627,0.29412,0.41602
17.784,0.17107,0.63441,1.0608,0.1098,0.30469
17.792,0.17302,0.61975,1.0863,-0.20196,0.42969
17.8,0.17498,0.59824,0.48039,-0.49216,0.69922
17.808,0.17693,0.58553,0.094118,-0.50196,0.87891
17.816,0.17791,0.57771,0.039216,-0.45686,0.90039
17.824,0.17986,0.57185,0.2098,-0.17255,0.75391
17.832,0.18182,0.56598,0.3451,0.13333,0.67578
17.84,0.1828,0.56109,0.40392,0.30392,0.66016
17.848,0.18377,0.55621,0.42941,0.35882,0.66016
17.856,0.18573,0.55034,0.43529,0.38039,0.66406
17.864,0.18671,0.54448,0.43529,0.4,0.66016
17.872,0.18768,0.53666,0.43529,0.4,0.66016
17.88,0.18768,0.52981,0.43922,0.40392,0.6543
17.888,0.18768,0.52297,0.4451,0.40392,0.6543
17.896,0.18671,0.51515,0.44902,0.40392,0.6543
17.904,0.18671,0.50929,0.4549,0.40392,0.6543
17.912,0.18573,0.50342,0.46078,0.40392,0.65039
17.92,0.18475,0.49853,0.46078,0.4,0.65039
17.928,0.1828,0.49365,0.46471,0.4,0.65039
17.936,0.18182,0.48778,0.47059,0.39412,0.6543
17.944,0.18084,0.48192,0.47451,0.3902,0.64453
17.952,0.17889,0.47801,0.48431,0.3902,0.64062
17.96,0.17693,0.47312,0.49412,0.37451,0.62891
17.968,0.17498,0.46921,0.50588,0.37451,0.61914
17.976,0.17302,0.46628,0.51569,0.37059,0.60547
17.984,0.17204,0.46334,0.52549,0.36471,0.59961
17.992,0.17009,0.46139,0.53529,0.34902,0.58398
18,0.16911,0.45943,0.5451,0.3451,0.57422
18.008,0.16813,0.4565,0.56078,0.32941,0.56055
18.016,0.16716,0.45552,0.57451,0.31373,0.53906
18.024,0.16716,0.45357,0.59608,0.29412,0.51953
18.032,0.16618,0.45161,0.61569,0.26471,0.49414
18.04,0.16716,0.45064,0.62941,0.2451,0.47461
18.048,0.16813,0.44868,0.6451,0.22353,0.44922
18.056,0.16911,0.44673,0.66078,0.2,0.43945
18.064,0.17009,0.44575,0.6451,0.2,0.44922
18.072,0.17107,0.44379,0.6098,0.2098,0.48438
18.08,0.17302,0.44282,0.56078,0.22353,0.5293
18.088,0.174,0.44086,0.52549,0.2549,0.57031
18.096,0.17498,0.43988,0.49412,0.28431,0.60938
18.104,0.17693,0.43793,0.48039,0.31373,0.64062
18.112,0.17889,0.43695,0.47451,0.3451,0.6543
18.12,0.18084,0.43597,0.47059,0.35882,0.66406
18.128,0.1828,0.43402,0.46078,0.37059,0.67969
18.136,0.18377,0.43109,0.4549,0.37451,0.68945
18.144,0.18573,0.42815,0.46078,0.38431,0.68555
18.152,0.18573,0.42522,0.46078,0.37451,0.68945
18.16,0.18671,0.42229,0.47059,0.37451,0.68945
18.168,0.18671,0.42033,0.47059,0.38039,0.68555
18.176,0.18671,0.41935,0.47451,0.37451,0.67969
18.184,0.18671,0.41838,0.47059,0.37451,0.67969
18.192,0.18671,0.4174,0.47059,0.37451,0.67969
18.2,0.18573,0.4174,0.47451,0.35882,0.66992
18.208,0.18475,0.41642,0.48431,0.34902,0.66406
18.216,0.1828,0.41642,0.46471,0.36471,0.67578
18.224,0.18182,0.41642,0.47059,0.3549,0.67578
18.232,0.17889,0.41642,0.48039,0.34902,0.66992
18.24,0.17693,0.41642,0.48039,0.3549,0.66992
18.248,0.17498,0.41642,0.48039,0.34902,0.66992
18.256,0.17204,0.41544,0.48431,0.34902,0.66016
18.264,0.16813,0.41447,0.4902,0.34902,0.66016
18.272,0.16422,0.41349,0.46471,0.36471,0.67578
18.28,0.15836,0.41251,0.46078,0.38039,0.67969
18.288,0.15249,0.41251,0.48431,0.38431,0.66016
18.296,0.14565,0.41251,0.50588,0.4,0.64453
18.304,0.13881,0.41447,0.53529,0.39412,0.625
18.312,0.13099,0.4174,0.56471,0.37451,0.59961
18.32,0.12219,0.42229,0.58039,0.37451,0.58008
18.328,0.11535,0.43011,0.57451,0.35882,0.58008
18.336,0.10753,0.44184,0.5549,0.33922,0.58984
18.344,0.10166,0.45552,0.52549,0.33529,0.625
18.352,0.094819,0.47214,0.48431,0.32941,0.66016
18.36,0.087977,0.48974,0.44902,0.32941,0.67969
18.368,0.081134,0.50733,0.41961,0.33529,0.69922
18.376,0.073314,0.52297,0.42549,0.33922,0.70508
18.384,0.066471,0.53861,0.43922,0.33529,0.67969
18.392,0.059629,0.55132,0.43529,0.32941,0.68555
18.4,0.053763,0.56109,0.43529,0.32941,0.69531
18.408,0.047898,0.56891,0.42941,0.32353,0.69922
18.416,0.042033,0.5738,0.4098,0.33922,0.70508
18.424,0.035191,0.57869,0.4,0.34902,0.7207
18.432,0.029326,0.58162,0.42549,0.37451,0.72461
18.44,0.022483,0.58358,0.6098,0.29412,0.57031
18.448,0.016618,0.58456,0.8451,0.2098,0.35938
18.456,0.0097752,0.58553,1.0118,0.033333,0.33008
18.464,0.0039101,0.58456,0.6902,-0.047059,0.6543
18.472,0.001955,0.58358,0.27451,-0.30784,0.95508
18.48,0,0.58065,-0.021569,-0.39216,1.0547
18.488,0,0.57869,-0.027451,-0.28824,0.96875
18.496,0,0.57478,0.2,-0.037255,0.82031
18.504,0,0.57087,0.32941,0.21373,0.71484
18.512,0,0.56598,0.38431,0.30392,0.67578
18.52,0,0.56207,0.4098,0.33922,0.66016
18.528,0,0.55718,0.43529,0.34902,0.65039
18.536,0,0.5523,0.42941,0.37059,0.6543
18.544,0,0.54643,0.43922,0.37451,0.64453
18.552,0,0.53959,0.46078,0.3549,0.63477
18.56,0,0.53177,0.43922,0.37451,0.65039
18.568,0,0.52297,0.43529,0.38039,0.6543
18.576,0,0.51515,0.43922,0.36471,0.65039
18.584,0,0.50733,0.46078,0.36471,0.63477
18.592,0,0.49951,0.4549,0.37059,0.64062
18.6,0,0.49267,0.46078,0.37059,0.63477
18.608,0,0.48778,0.48431,0.34902,0.625
18.616,0,0.48289,0.48431,0.33922,0.61914
18.624,0,0.47801,0.48431,0.3451,0.625
18.632,0,0.4741,0.48039,0.34902,0.61523
18.64,0,0.47019,0.5,0.33529,0.59961
18.648,0,0.46725,0.4902,0.32941,0.5957
18.656,0,0.46432,0.50588,0.32353,0.58984
18.664,0,0.46237,0.51961,0.30392,0.58008
18.672,0,0.46041,0.52549,0.3,0.56055
18.68,0,0.45846,0.5549,0.26863,0.5293
18.688,0,0.4565,0.58431,0.24902,0.5
18.696,0,0.45455,0.59608,0.23333,0.47461
18.704,0,0.45357,0.59608,0.21961,0.46484
18.712,0,0.45161,0.61961,0.17843,0.43945
18.72,0,0.45064,0.63529,0.16471,0.42969
18.728,0,0.44868,0.6,0.16471,0.44922
18.736,0,0.44575,0.58039,0.17451,0.47461
18.744,0,0.44282,0.56471,0.19412,0.50586
18.752,0,0.43988,0.53529,0.22353,0.54492
18.76,0,0.43695,0.50588,0.26471,0.58398
18.768,0,0.435,0.46471,0.3098,0.62891
18.776,0,0.43304,0.44902,0.33922,0.6543
18.784,0,0.43109,0.46078,0.34902,0.66406
18.792,0,0.42913,0.43922,0.36471,0.68555
18.8,0,0.4262,0.43529,0.37451,0.69531
18.808,0,0.42424,0.4549,0.37059,0.68945
18.816,0,0.42326,0.43922,0.38039,0.69531
18.824,0,0.42033,0.43529,0.38431,0.69531
18.832,0,0.41838,0.46078,0.37451,0.67969
18.84,0,0.41642,0.4549,0.37451,0.67578
18.848,0,0.41447,0.43529,0.37451,0.68555
18.856,0,0.41349,0.4451,0.36471,0.67969
18.864,0,0.41153,0.47059,0.34902,0.67578
18.872,0,0.41056,0.4549,0.36471,0.67578
18.88,0,0.4086,0.4451,0.37059,0.67969
18.888,0,0.40762,0.43922,0.36471,0.67578
18.896,0.00097752,0.40567,0.4549,0.3549,0.66406
18.904,0.0048876,0.40371,0.46471,0.34902,0.66016
18.912,0.0087977,0.40274,0.47059,0.3451,0.66016
18.92,0.013685,0.40176,0.46078,0.34902,0.66992
18.928,0.017595,0.40078,0.46471,0.34902,0.66406
18.936,0.021505,0.3998,0.47451,0.34902,0.6543
18.944,0.026393,0.39883,0.48039,0.37059,0.65039
18.952,0.031281,0.39785,0.48431,0.38039,0.64453
18.96,0.035191,0.39785,0.50588,0.4,0.62891
18.968,0.040078,0.39687,0.53922,0.4,0.59961
18.976,0.044966,0.39785,0.57059,0.38039,0.58008
18.984,0.049853,0.3998,0.6,0.37451,0.56055
18.992,0.055718,0.40469,0.6,0.34902,0.55469
19,0.061584,0.41153,0.58039,0.33529,0.57031
19.008,0.068426,0.42033,0.5451,0.32941,0.59961
19.016,0.076246,0.43109,0.5,0.32941,0.63477
19.024,0.083089,0.44477,0.46078,0.32941,0.66406
19.032,0.090909,0.46041,0.4451,0.33529,0.67578
19.04,0.098729,0.47605,0.43529,0.33922,0.67578
19.048,0.10557,0.49169,0.43529,0.33922,0.67578
19.056,0.11339,0.50538,0.43529,0.33922,0.67578
19.064,0.12219,0.51808,0.42549,0.3451,0.67969
19.072,0.13001,0.52884,0.42941,0.33922,0.67578
19.08,0.13978,0.53861,0.42941,0.33922,0.67578
19.088,0.14956,0.54643,0.42941,0.34902,0.67969
19.096,0.15934,0.5523,0.4451,0.37451,0.69922
19.104,0.16911,0.55523,0.58039,0.31961,0.57422
19.112,0.17889,0.55718,0.83137,0.19412,0.3457
19.12,0.18866,0.55718,1.0157,0.052941,0.31445
19.128,0.19746,0.55621,0.69608,-0.0058823,0.68555
19.136,0.20528,0.55523,0.2549,-0.21765,0.99414
19.144,0.2131,0.55425,-0.05098,-0.33725,1.0996
19.152,0.22092,0.5523,-0.076471,-0.27255,1.0039
19.16,0.22972,0.55034,0.15882,-0.05098,0.83398
19.168,0.23754,0.54643,0.31961,0.2,0.70898
19.176,0.24633,0.54252,0.39412,0.31373,0.65039
19.184,0.25415,0.53861,0.41961,0.34902,0.63477
19.192,0.26197,0.53275,0.42941,0.37451,0.63477
19.2,0.26882,0.5259,0.43529,0.37451,0.62891
19.208,0.27468,0.52004,0.4451,0.38039,0.625
19.216,0.28152,0.51417,0.44902,0.37451,0.61914
19.224,0.28837,0.50831,0.4549,0.38039,0.61914
19.232,0.29521,0.50244,0.4549,0.38039,0.61914
19.24,0.30205,0.49658,0.4549,0.37451,0.61914
19.248,0.30987,0.49071,0.4549,0.37451,0.61523
19.256,0.31769,0.48485,0.46078,0.37451,0.61523
19.264,0.32551,0.47898,0.46078,0.37451,0.61523
19.272,0.33431,0.47312,0.47059,0.37451,0.61523
19.28,0.34213,0.46725,0.48039,0.37059,0.60938
19.288,0.34995,0.46237,0.48431,0.37059,0.59961
19.296,0.35875,0.45748,0.4902,0.36471,0.5957
19.304,0.36657,0.45357,0.5098,0.34902,0.58008
19.312,0.37537,0.44966,0.51569,0.34902,0.58008
19.32,0.38514,0.4477,0.52549,0.3451,0.57422
19.328,0.39492,0.44575,0.52941,0.33529,0.56055
19.336,0.40665,0.44379,0.5451,0.32941,0.54492
19.344,0.4174,0.44282,0.56078,0.3098,0.52539
19.352,0.42913,0.44086,0.58039,0.2902,0.50586
19.36,0.43988,0.43988,0.6,0.27451,0.48438
19.368,0.45064,0.43793,0.61569,0.2549,0.46484
19.376,0.46139,0.43597,0.62941,0.23333,0.44922
19.384,0.47312,0.43402,0.64118,0.21961,0.43945
19.392,0.48485,0.43206,0.63529,0.2098,0.43945
19.4,0.49658,0.43011,0.61569,0.2098,0.46094
19.408,0.50929,0.42815,0.58431,0.21373,0.49414
19.416,0.52102,0.4262,0.5451,0.2451,0.53906
19.424,0.53275,0.42424,0.51569,0.27451,0.57422
19.432,0.54448,0.42131,0.48431,0.31373,0.60938
19.44,0.55621,0.41935,0.46471,0.3451,0.63477
19.448,0.56598,0.41642,0.4549,0.35882,0.6543
19.456,0.57674,0.41447,0.44902,0.38039,0.66406
19.464,0.58553,0.41251,0.44902,0.3902,0.67578
19.472,0.59433,0.41153,0.44902,0.39412,0.67578
19.48,0.60215,0.40958,0.4549,0.39412,0.67578
19.488,0.61095,0.4086,0.4549,0.4,0.67578
19.496,0.61877,0.40665,0.4549,0.39412,0.67578
19.504,0.62659,0.40371,0.46078,0.3902,0.67578
19.512,0.63245,0.40176,0.46471,0.38039,0.66406
19.52,0.6393,0.40078,0.4902,0.37451,0.64453
19.528,0.64418,0.39785,0.52941,0.39412,0.60938
19.536,0.65005,0.39589,0.5902,0.41961,0.57031
19.544,0.65396,0.39394,0.66471,0.4098,0.48438
19.552,0.65885,0.39198,0.74118,0.35882,0.38477
19.56,0.66178,0.39003,0.86078,0.2902,0.21094
19.568,0.66569,0.38807,1.051,0.17843,-0.09375
19.576,0.6696,0.38612,1.202,0.052941,-0.42969
19.584,0.67253,0.38416,1.0059,0.017647,-0.49805
19.592,0.67546,0.38221,0.62941,0.73137,-0.083984
19.6,0.6784,0.38025,0.53922,1.5039,0.45508
19.608,0.68035,0.3783,0.5549,1.5039,0.7793
19.616,0.68328,0.3783,0.48039,0.91569,0.81445
19.624,0.68524,0.3783,0.42941,0.34902,0.75977
19.632,0.68719,0.3783,0.42549,0.27843,0.76953
19.64,0.68915,0.3783,0.4549,0.2549,0.75
19.648,0.69208,0.38123,0.46078,0.22941,0.75391
19.656,0.69404,0.38612,0.46471,0.21373,0.75
19.664,0.69599,0.39394,0.43922,0.2098,0.75977
19.672,0.69697,0.40371,0.41569,0.20392,0.76953
19.68,0.69892,0.41642,0.3902,0.2,0.79492
19.688,0.70088,0.43109,0.37451,0.2,0.81445
19.696,0.70283,0.44673,0.36471,0.20392,0.83008
19.704,0.70479,0.46237,0.34902,0.19412,0.83398
19.712,0.70577,0.47605,0.3451,0.18431,0.83984
19.72,0.70772,0.48876,0.3451,0.17451,0.84375
19.728,0.70968,0.50147,0.33922,0.16471,0.85547
19.736,0.71163,0.5132,0.3451,0.1549,0.85938
19.744,0.71359,0.52395,0.33922,0.13333,0.86523
19.752,0.71652,0.53275,0.33922,0.11373,0.86914
19.76,0.71848,0.53861,0.33529,0.088235,0.88477
19.768,0.72043,0.54252,0.33922,0.04902,0.89453
19.776,0.72239,0.54545,0.33922,0.0039216,0.90039
19.784,0.72336,0.54741,0.3451,-0.041176,0.91016
19.792,0.72434,0.54936,0.34902,-0.092157,0.91406
19.8,0.72532,0.54936,0.35882,-0.15098,0.9043
19.808,0.72532,0.54936,0.37059,-0.20784,0.88477
19.816,0.7263,0.54936,0.3902,-0.25294,0.85547
19.824,0.7263,0.54839,0.4098,-0.28235,0.81445
19.832,0.7263,0.54741,0.42549,-0.28824,0.76562
19.84,0.7263,0.5523,0.43529,-0.26667,0.73047
19.848,0.7263,0.56012,0.43922,-0.21765,0.69922
19.856,0.72532,0.56012,0.42941,-0.14706,0.68555
19.864,0.72434,0.55523,0.42941,-0.060784,0.67969
19.872,0.72336,0.54936,0.42549,0.029412,0.67578
19.88,0.72239,0.54154,0.42941,0.11961,0.66992
19.888,0.72043,0.5347,0.4549,0.2098,0.65039
19.896,0.71848,0.52688,0.5,0.3,0.625
19.904,0.71554,0.52004,0.56471,0.36471,0.58398
19.912,0.71261,0.51417,0.68039,0.41961,0.50586
19.92,0.70968,0.50929,0.92157,0.38039,0.29102
19.928,0.70674,0.5044,1.2176,0.2902,-0.080078
19.936,0.70381,0.49951,1.3118,0.23333,-0.41406
19.944,0.70088,0.4956,0.93137,0.25882,-0.47461
19.952,0.69892,0.49169,0.59608,0.47059,-0.28906
19.96,0.69599,0.4868,0.17451,1.0471,0.37109
19.968,0.69208,0.48387,-0.19216,1.5039,1.1992
19.976,0.68915,0.48094,-0.34314,1.5039,1.5
19.984,0.68524,0.47801,0.052941,1.5039,1.2188
19.992,0.68231,0.47605,0.33922,0.64118,0.86914
20,0.67937,0.47312,0.43922,0.31961,0.74414
20.008,0.67644,0.47214,0.46471,0.27843,0.72461
20.016,0.67449,0.47116,0.47059,0.27451,0.72461
20.024,0.67253,0.46921,0.47451,0.26863,0.73047
20.032,0.67155,0.46823,0.4549,0.26471,0.74414
20.04,0.67253,0.46628,0.43529,0.26471,0.75
20.048,0.67253,0.46432,0.41569,0.25882,0.76953
20.056,0.67351,0.46237,0.40392,0.26471,0.76953
20.064,0.67449,0.46139,0.4098,0.26471,0.76953
20.072,0.67644,0.45846,0.42549,0.25882,0.76562
20.08,0.6784,0.4565,0.42941,0.2549,0.76953
20.088,0.67937,0.45455,0.46078,0.23333,0.75
20.096,0.68133,0.45259,0.49412,0.22353,0.70898
20.104,0.68328,0.45064,0.51961,0.2098,0.69922
20.112,0.68524,0.44868,0.52941,0.18824,0.68945
20.12,0.68622,0.44868,0.53922,0.16471,0.68555
20.128,0.68817,0.44966,0.5549,0.13333,0.67578
20.136,0.69013,0.45064,0.58039,0.088235,0.66406
20.144,0.6911,0.45259,0.60588,0.04902,0.64062
20.152,0.69306,0.45455,0.64118,0.0039216,0.61523
20.16,0.69404,0.45748,0.67647,-0.05098,0.57422
20.168,0.69599,0.46237,0.71569,-0.086275,0.53516
20.176,0.69795,0.46725,0.74118,-0.12157,0.49414
20.184,0.69892,0.47214,0.75098,-0.12745,0.46484
20.192,0.6999,0.47605,0.7451,-0.10196,0.44922
20.2,0.6999,0.48094,0.72157,-0.060784,0.45508
20.208,0.70088,0.48387,0.6902,-0.0019608,0.4707
20.216,0.6999,0.4868,0.6451,0.07451,0.5
20.224,0.69892,0.48974,0.60588,0.1549,0.5293
20.232,0.69697,0.49169,0.57451,0.22941,0.56055
20.24,0.69501,0.49267,0.5451,0.3,0.58984
20.248,0.69208,0.49267,0.51961,0.3549,0.60938
20.256,0.69013,0.49169,0.50588,0.39412,0.62891
20.264,0.68719,0.48876,0.48431,0.41569,0.63477
20.272,0.68426,0.48583,0.47451,0.43529,0.64453
20.28,0.68133,0.48289,0.46471,0.4451,0.6543
20.288,0.6784,0.48094,0.46471,0.44902,0.6543
20.296,0.67449,0.47801,0.46078,0.4549,0.66016
20.304,0.67058,0.47507,0.46078,0.4451,0.66406
20.312,0.66569,0.47116,0.46078,0.4451,0.66406
20.32,0.66178,0.46725,0.4549,0.4451,0.66992
20.328,0.65689,0.46237,0.4549,0.43922,0.67578
20.336,0.652,0.45748,0.4549,0.43922,0.66992
20.344,0.64809,0.45161,0.44902,0.43529,0.67578
20.352,0.64418,0.4477,0.46078,0.43529,0.66992
20.36,0.6393,0.44477,0.4549,0.43922,0.67578
20.368,0.63539,0.44184,0.4451,0.43922,0.67969
20.376,0.63245,0.43988,0.43529,0.43922,0.67969
20.384,0.62952,0.43988,0.43529,0.43529,0.67969
20.392,0.62659,0.43891,0.43922,0.43529,0.68555
20.4,0.62366,0.43793,0.43922,0.43922,0.68555
20.408,0.6217,0.43793,0.43922,0.43529,0.67969
20.416,0.62072,0.43695,0.43529,0.43529,0.68555
20.424,0.61975,0.43695,0.43529,0.42941,0.68945
20.432,0.61877,0.435,0.42941,0.42549,0.68945
20.44,0.61877,0.43402,0.43529,0.42549,0.68555
20.448,0.61975,0.43206,0.43529,0.42549,0.68555
20.456,0.62072,0.43109,0.43529,0.42549,0.68945
20.464,0.6217,0.43109,0.43922,0.41961,0.68555
20.472,0.62268,0.43109,0.43529,0.41961,0.67969
20.48,0.62366,0.43109,0.43529,0.41961,0.67969
20.488,0.62366,0.43206,0.43922,0.4098,0.67969
20.496,0.62463,0.43304,0.43922,0.41569,0.67969
20.504,0.62463,0.435,0.43922,0.4098,0.67578
20.512,0.62561,0.43695,0.43529,0.4098,0.67969
20.52,0.62659,0.44086,0.43922,0.40392,0.68555
20.528,0.62757,0.44575,0.4451,0.40392,0.67969
20.536,0.62757,0.45064,0.4451,0.4,0.67969
20.544,0.62757,0.45552,0.43922,0.4,0.67578
20.552,0.62659,0.46139,0.4451,0.4,0.67578
20.56,0.62561,0.46628,0.44902,0.3902,0.67578
20.568,0.62366,0.47116,0.44902,0.3902,0.67578
20.576,0.62268,0.47507,0.4451,0.39412,0.67578
20.584,0.62072,0.47703,0.44902,0.39412,0.67578
20.592,0.61877,0.47801,0.44902,0.3902,0.67578
20.6,0.61681,0.47898,0.44902,0.38431,0.67578
20.608,0.61388,0.47898,0.4549,0.38039,0.66992
20.616,0.60997,0.47898,0.4549,0.38039,0.66992
20.624,0.60704,0.47898,0.46078,0.37451,0.66406
20.632,0.60313,0.47801,0.46078,0.37451,0.66406
20.64,0.59922,0.47605,0.46078,0.37059,0.66992
20.648,0.59531,0.47507,0.46078,0.37451,0.66406
20.656,0.59042,0.47312,0.46078,0.36471,0.66406
20.664,0.58651,0.47116,0.46471,0.36471,0.66406
20.672,0.58162,0.46823,0.46471,0.35882,0.66016
20.68,0.57674,0.46432,0.47059,0.35882,0.6543
20.688,0.57185,0.46041,0.46471,0.35882,0.6543
20.696,0.56598,0.4565,0.47059,0.3549,0.6543
20.704,0.56109,0.45357,0.46471,0.3549,0.6543
20.712,0.55425,0.45161,0.47059,0.35882,0.6543
20.72,0.54839,0.45064,0.47059,0.34902,0.6543
20.728,0.5435,0.44868,0.47451,0.34902,0.6543
20.736,0.53763,0.44673,0.47059,0.34902,0.6543
20.744,0.53275,0.44477,0.47451,0.34902,0.6543
20.752,0.52884,0.44379,0.46471,0.34902,0.6543
20.76,0.52395,0.44282,0.46471,0.34902,0.6543
20.768,0.52004,0.44184,0.47451,0.34902,0.6543
20.776,0.51515,0.44184,0.47451,0.34902,0.6543
20.784,0.51124,0.44086,0.47451,0.3451,0.6543
20.792,0.50733,0.43891,0.47451,0.34902,0.6543
20.8,0.5044,0.43793,0.47451,0.33922,0.6543
20.808,0.50049,0.43695,0.47451,0.33922,0.65039
20.816,0.49658,0.43597,0.48039,0.33529,0.65039
20.824,0.49365,0.43597,0.48039,0.33529,0.65039
20.832,0.49169,0.43597,0.48039,0.33922,0.65039
20.84,0.48876,0.43597,0.48431,0.33922,0.65039
20.848,0.4868,0.435,0.48431,0.33529,0.64453
20.856,0.48583,0.43402,0.48431,0.32941,0.64453
20.864,0.48387,0.43304,0.4902,0.33922,0.64453
20.872,0.48387,0.43206,0.49412,0.34902,0.64453
20.88,0.48289,0.43109,0.5,0.35882,0.63477
20.888,0.48289,0.43011,0.51961,0.37451,0.61914
20.896,0.48192,0.42815,0.5549,0.37451,0.58984
20.904,0.48192,0.42717,0.58039,0.35882,0.56445
20.912,0.48094,0.4262,0.6,0.34902,0.55078
20.92,0.48094,0.42522,0.60588,0.33922,0.54492
20.928,0.48094,0.42522,0.6,0.31961,0.53906
20.936,0.48192,0.42522,0.57451,0.3098,0.56445
20.944,0.48192,0.42424,0.53529,0.30392,0.60547
20.952,0.48192,0.42424,0.49412,0.3098,0.63477
20.96,0.48289,0.42424,0.47059,0.31373,0.65039
20.968,0.48289,0.42424,0.46471,0.3098,0.6543
20.976,0.48289,0.42424,0.46078,0.30392,0.6543
20.984,0.48289,0.42424,0.46078,0.3098,0.6543
20.992,0.48387,0.42424,0.46078,0.31373,0.6543
21,0.48485,0.42424,0.46078,0.3098,0.6543
21.008,0.48583,0.42424,0.46078,0.32353,0.66016
21.016,0.4868,0.42424,0.47451,0.34902,0.68555
21.024,0.48778,0.42326,0.62549,0.31373,0.55078
21.032,0.48876,0.42131,0.88627,0.24902,0.35547
21.04,0.48974,0.42033,1.1176,-0.0019608,0.29102
21.048,0.49071,0.42033,0.84118,-0.25294,0.50977
21.056,0.49169,0.41935,0.3902,-0.50196,0.74414
21.064,0.49267,0.41935,0.094118,-0.50196,0.85938
21.072,0.49267,0.41935,0.084314,-0.38235,0.79492
21.08,0.49365,0.41935,0.28431,-0.086275,0.68945
21.088,0.49462,0.41935,0.38431,0.18431,0.64453
21.096,0.4956,0.41935,0.41961,0.30392,0.64453
21.104,0.49658,0.41935,0.43529,0.3451,0.6543
21.112,0.49853,0.42033,0.43922,0.36471,0.6543
21.12,0.49951,0.42033,0.43922,0.37451,0.6543
21.128,0.50049,0.42131,0.43922,0.38039,0.6543
21.136,0.50244,0.42131,0.4451,0.3902,0.6543
21.144,0.50342,0.42131,0.43922,0.3902,0.6543
21.152,0.5044,0.42131,0.43529,0.3902,0.6543
21.16,0.5044,0.42131,0.43529,0.38431,0.66016
21.168,0.50538,0.42131,0.43529,0.38431,0.66406
21.176,0.5044,0.42131,0.43529,0.38039,0.66992
21.184,0.50342,0.42131,0.43922,0.37451,0.66406
21.192,0.50147,0.42131,0.4549,0.37451,0.6543
21.2,0.50049,0.42131,0.46078,0.37451,0.6543
21.208,0.49853,0.42131,0.47059,0.37451,0.65039
21.216,0.49658,0.42229,0.48039,0.35882,0.64062
21.224,0.49462,0.42229,0.4902,0.3549,0.63477
21.232,0.49365,0.42326,0.4902,0.3549,0.63477
21.24,0.49169,0.42326,0.49412,0.3549,0.62891
21.248,0.48974,0.42424,0.5098,0.33922,0.61914
21.256,0.48778,0.42424,0.5098,0.32941,0.60938
21.264,0.48583,0.42424,0.5098,0.32941,0.60547
21.272,0.48387,0.42424,0.51569,0.31961,0.60547
21.28,0.48192,0.42424,0.52549,0.30392,0.58984
21.288,0.47996,0.42424,0.53922,0.29412,0.58008
21.296,0.47801,0.42424,0.55098,0.27843,0.57031
21.304,0.47605,0.42424,0.55098,0.26863,0.56445
21.312,0.4741,0.42424,0.5549,0.2549,0.56055
21.32,0.47116,0.42424,0.57451,0.23922,0.55078
21.328,0.46921,0.42424,0.58039,0.22353,0.53906
21.336,0.46628,0.42424,0.5902,0.2098,0.53516
21.344,0.46334,0.42424,0.59608,0.2,0.53516
21.352,0.46139,0.42424,0.57059,0.20392,0.54492
21.36,0.45846,0.42424,0.55098,0.21373,0.56445
21.368,0.45552,0.42424,0.52941,0.23922,0.58984
21.376,0.45259,0.42424,0.5098,0.27451,0.60547
21.384,0.44966,0.42424,0.5098,0.29412,0.61914
21.392,0.44673,0.42424,0.51569,0.31373,0.62891
21.4,0.44379,0.42424,0.5098,0.32941,0.63477
21.408,0.44086,0.42424,0.5098,0.34902,0.64453
21.416,0.43793,0.42522,0.5098,0.34902,0.64062
21.424,0.435,0.42522,0.50588,0.34902,0.64453
21.432,0.43206,0.4262,0.5,0.34902,0.65039
21.44,0.42913,0.4262,0.5098,0.34902,0.63477
21.448,0.4262,0.4262,0.5098,0.34902,0.62891
21.456,0.42326,0.4262,0.51569,0.33922,0.62891
21.464,0.41935,0.42522,0.51569,0.33529,0.62891
21.472,0.41642,0.42522,0.52549,0.32941,0.625
21.48,0.41349,0.42424,0.51569,0.33922,0.62891
21.488,0.41056,0.42424,0.51569,0.32941,0.61914
21.496,0.40665,0.42424,0.51961,0.32941,0.61914
21.504,0.40371,0.42522,0.50588,0.33922,0.62891
21.512,0.3998,0.42522,0.5098,0.32941,0.61914
21.52,0.39589,0.42522,0.51569,0.33529,0.61914
21.528,0.39198,0.4262,0.5098,0.3451,0.625
21.536,0.38905,0.42717,0.5098,0.34902,0.62891
21.544,0.38612,0.43011,0.50588,0.34902,0.64062
21.552,0.38416,0.435,0.5,0.3549,0.65039
21.56,0.38123,0.44282,0.5098,0.37451,0.64453
21.568,0.3783,0.45357,0.5098,0.3902,0.63477
21.576,0.37537,0.46725,0.53529,0.40392,0.61523
21.584,0.37341,0.48387,0.57451,0.3902,0.58398
21.592,0.37048,0.50342,0.6,0.39412,0.56055
21.6,0.36755,0.5259,0.59608,0.37059,0.56055
21.608,0.36461,0.54643,0.5902,0.34902,0.56055
21.616,0.36168,0.56598,0.57451,0.32941,0.58008
21.624,0.35875,0.58749,0.53529,0.33529,0.61914
21.632,0.35582,0.60899,0.4902,0.33922,0.66016
21.64,0.35191,0.62952,0.46078,0.33922,0.67578
21.648,0.348,0.64809,0.46078,0.32941,0.67578
21.656,0.34213,0.66373,0.4451,0.32941,0.68555
21.664,0.33724,0.6784,0.43529,0.32941,0.69531
21.672,0.3304,0.6911,0.42941,0.33529,0.68945
21.68,0.32454,0.6999,0.43922,0.32941,0.68555
21.688,0.31769,0.70674,0.43529,0.33529,0.68555
21.696,0.31085,0.70968,0.43529,0.33922,0.69531
21.704,0.30401,0.71065,0.43922,0.35882,0.70508
21.712,0.29619,0.7087,0.5,0.37451,0.70898
21.72,0.28739,0.70577,0.70588,0.26863,0.4707
21.728,0.27761,0.70283,0.95686,0.17451,0.3457
21.736,0.26686,0.6999,1.0373,-0.05098,0.33594
21.744,0.25611,0.69599,0.51961,-0.21176,0.78516
21.752,0.24536,0.69208,0.12941,-0.41176,0.99414
21.76,0.23558,0.68719,0.013725,-0.43333,1.0195
21.768,0.22483,0.68231,0.14902,-0.20196,0.85938
21.776,0.21505,0.67644,0.3098,0.07451,0.73438
21.784,0.20332,0.66862,0.39412,0.26471,0.66992
21.792,0.19159,0.6608,0.41961,0.33529,0.6543
21.8,0.17889,0.652,0.42941,0.35882,0.6543
21.808,0.16618,0.64418,0.42549,0.37451,0.6543
21.816,0.15249,0.63734,0.42941,0.37451,0.66016
21.824,0.13881,0.62952,0.43529,0.37451,0.6543
21.832,0.12414,0.62268,0.4549,0.37451,0.64062
21.84,0.11046,0.61584,0.4451,0.37059,0.65039
21.848,0.098729,0.60997,0.43922,0.37451,0.65039
21.856,0.086999,0.60313,0.43529,0.38039,0.6543
21.864,0.077224,0.59824,0.46078,0.36471,0.64062
21.872,0.067449,0.59238,0.46078,0.37451,0.63477
21.88,0.057674,0.58651,0.4549,0.37059,0.62891
21.888,0.047898,0.565,0.47451,0.35882,0.62891
21.896,0.038123,0.53372,0.47059,0.37059,0.61914
21.904,0.028348,0.51711,0.48039,0.3549,0.61914
21.912,0.020528,0.50635,0.48431,0.34902,0.61523
21.92,0.013685,0.49853,0.50588,0.32941,0.5957
21.928,0.0068426,0.49365,0.52549,0.31373,0.58008
21.936,0.00097752,0.48876,0.52941,0.31373,0.56445
21.944,0,0.48387,0.51569,0.31961,0.57031
21.952,0,0.47996,0.5451,0.28431,0.53906
21.96,0,0.47605,0.56078,0.27843,0.51562
21.968,0,0.47116,0.56471,0.26471,0.49414
21.976,0,0.46823,0.5902,0.22941,0.4707
21.984,0,0.46628,0.6098,0.2,0.43945
21.992,0,0.46432,0.6451,0.16471,0.41992
22,0,0.46237,0.65098,0.17451,0.41602
22.008,0,0.46041,0.6098,0.18431,0.43945
22.016,0,0.45943,0.57451,0.18824,0.48047
22.024,0,0.4565,0.52549,0.21961,0.53516
22.032,0,0.45357,0.50588,0.2549,0.57422
22.04,0,0.45064,0.48039,0.2902,0.60938
22.048,0,0.44673,0.46471,0.3098,0.64062
22.056,0,0.44379,0.47059,0.32353,0.6543
22.064,0,0.43988,0.44902,0.35882,0.67578
22.072,0,0.43695,0.42549,0.3902,0.69531
22.08,0,0.43304,0.43529,0.38431,0.69531
22.088,0.00097752,0.43011,0.4549,0.37451,0.68555
22.096,0.001955,0.4262,0.46078,0.38039,0.67578
22.104,0.0058651,0.42326,0.47059,0.38039,0.67578
22.112,0.0087977,0.42131,0.47451,0.37451,0.67578
22.12,0.013685,0.41838,0.47451,0.37059,0.67578
22.128,0.017595,0.41642,0.47451,0.36471,0.66992
22.136,0.021505,0.41447,0.48431,0.3549,0.66406
