Time [s], RESP, PLETH, II, V, AVR
0,0.11828,0.62366,0.55049,0.88867,0.72157
0.008,0.1173,0.62952,0.53941,0.88867,0.72549
0.016,0.1173,0.63539,0.54557,0.88867,0.72549
0.024,0.1173,0.64027,0.53448,0.89453,0.73529
0.032,0.1173,0.64418,0.53448,0.88867,0.73529
0.04,0.11828,0.64809,0.54557,0.89453,0.72549
0.048,0.11926,0.65103,0.53448,0.89453,0.73529
0.056,0.12121,0.65396,0.5197,0.91992,0.7549
0.064,0.12317,0.65494,0.46059,1.0449,0.83137
0.072,0.12512,0.65591,0.4101,0.92383,0.90588
0.08,0.12708,0.65494,0.50493,0.65039,0.91176
0.088,0.13001,0.65494,0.62438,0.41602,0.83137
0.096,0.13294,0.65396,0.49015,0.41016,0.84118
0.104,0.13587,0.652,0.64039,0.61523,0.64118
0.112,0.13978,0.65005,0.68473,0.77539,0.5902
0.12,0.1437,0.64809,0.58498,0.88867,0.66078
0.128,0.14761,0.64516,0.53941,0.92969,0.69608
0.136,0.15152,0.64125,0.53448,0.94531,0.7
0.144,0.15445,0.63734,0.53941,0.94531,0.7
0.152,0.15836,0.63245,0.53941,0.94531,0.7
0.16,0.16129,0.62757,0.53941,0.94531,0.7
0.168,0.1652,0.6217,0.54557,0.94531,0.7
0.176,0.16813,0.61584,0.53448,0.94531,0.70588
0.184,0.17204,0.61095,0.54557,0.94531,0.6902
0.192,0.17595,0.60606,0.55049,0.94531,0.68627
0.2,0.17986,0.60215,0.53941,0.94531,0.7
0.208,0.18475,0.59824,0.53941,0.94531,0.7
0.216,0.18964,0.59433,0.54557,0.94531,0.7
0.224,0.1955,0.59042,0.55049,0.94531,0.69608
0.232,0.20039,0.58651,0.55542,0.94922,0.6902
0.24,0.20528,0.5826,0.55049,0.95508,0.7
0.248,0.21017,0.57967,0.56527,0.95508,0.6902
0.256,0.21505,0.57674,0.5702,0.94922,0.68627
0.264,0.21896,0.5738,0.5702,0.95508,0.6902
0.272,0.22385,0.57087,0.57512,0.95898,0.68039
0.28,0.22874,0.56891,0.59483,0.96484,0.67647
0.288,0.2346,0.56598,0.59483,0.96484,0.67647
0.296,0.23949,0.56403,0.59483,0.96875,0.68627
0.304,0.24438,0.56109,0.59483,0.96875,0.6902
0.312,0.24927,0.55914,0.59483,0.96875,0.6902
0.32,0.25318,0.55718,0.59483,0.97461,0.7
0.328,0.25709,0.55425,0.59483,0.98047,0.7
0.336,0.261,0.5523,0.59483,0.96875,0.71569
0.344,0.26491,0.55034,0.5899,0.96875,0.72157
0.352,0.26784,0.54839,0.5899,0.95898,0.72157
0.36,0.27077,0.54741,0.56527,0.94922,0.7451
0.368,0.27273,0.54545,0.55542,0.94531,0.74118
0.376,0.27468,0.5435,0.53941,0.93555,0.77059
0.384,0.27566,0.54252,0.52463,0.92969,0.77647
0.392,0.27664,0.54057,0.51478,0.92383,0.78039
0.4,0.27664,0.53861,0.49507,0.91016,0.79608
0.408,0.27761,0.53666,0.49507,0.9043,0.79608
0.416,0.27664,0.5347,0.48522,0.91406,0.7902
0.424,0.27566,0.53372,0.49015,0.90039,0.79608
0.432,0.2737,0.53079,0.4803,0.90039,0.79608
0.44,0.27077,0.52884,0.48522,0.90039,0.78039
0.448,0.26686,0.5259,0.51478,0.90039,0.76667
0.456,0.26295,0.52297,0.50985,0.9043,0.77059
0.464,0.25904,0.52199,0.5197,0.91016,0.7451
0.472,0.25611,0.52004,0.52463,0.91406,0.74118
0.48,0.25318,0.51808,0.52463,0.91992,0.73529
0.488,0.25122,0.51711,0.52463,0.91406,0.73529
0.496,0.24927,0.51515,0.52463,0.92383,0.73137
0.504,0.24731,0.51417,0.55049,0.92383,0.71569
0.512,0.24633,0.51222,0.55049,0.92383,0.7098
0.52,0.24536,0.50929,0.56034,0.92383,0.70588
0.528,0.24633,0.50733,0.55542,0.92383,0.70588
0.536,0.24731,0.5044,0.55542,0.93555,0.7098
0.544,0.25024,0.50244,0.56034,0.92969,0.7
0.552,0.25318,0.50049,0.56527,0.92969,0.7098
0.56,0.25806,0.49853,0.55049,0.92383,0.72157
0.568,0.26295,0.49853,0.57512,0.92383,0.7
0.576,0.26979,0.49853,0.59483,0.92383,0.6902
0.584,0.27566,0.50049,0.61946,0.92383,0.68039
0.592,0.28641,0.5044,0.63547,0.88867,0.67647
0.6,0.29619,0.51124,0.63054,0.87891,0.6902
0.608,0.30987,0.51906,0.64039,0.87891,0.6902
0.616,0.32258,0.52884,0.61453,0.88477,0.7
0.624,0.33724,0.53959,0.60961,0.88867,0.7
0.632,0.35191,0.55034,0.61946,0.88867,0.6902
0.64,0.36755,0.56207,0.58498,0.90039,0.7098
0.648,0.38319,0.57283,0.55049,0.91992,0.72157
0.656,0.40469,0.58358,0.54557,0.91992,0.71569
0.664,0.42522,0.59335,0.55049,0.92383,0.71569
0.672,0.45161,0.60215,0.54557,0.92383,0.72157
0.68,0.47801,0.60899,0.55049,0.92383,0.72157
0.688,0.50929,0.61486,0.55049,0.92969,0.7098
0.696,0.54057,0.62072,0.52463,0.92383,0.73529
0.704,0.57478,0.62561,0.52463,0.92383,0.73529
0.712,0.60997,0.6305,0.53941,0.92383,0.72549
0.72,0.64223,0.63441,0.52463,0.92383,0.73137
0.728,0.67449,0.63734,0.50493,0.93945,0.75098
0.736,0.70577,0.6393,0.44951,1.0449,0.82157
0.744,0.73705,0.6393,0.37562,1.0703,0.91569
0.752,0.77126,0.64027,0.36453,0.81445,0.94118
0.76,0.80547,0.64027,0.60961,0.58008,0.84118
0.768,0.84164,0.64027,0.63054,0.53516,0.80588
0.776,0.87781,0.6393,0.53448,0.68945,0.67059
0.784,0.91007,0.63832,0.66502,0.78906,0.60588
0.792,0.94233,0.63734,0.58005,0.88867,0.66471
0.8,0.97165,0.63539,0.54557,0.94531,0.6902
0.808,1,0.63245,0.53448,0.95898,0.69608
0.816,1,0.62952,0.52463,0.96875,0.7
0.824,1,0.62561,0.52956,0.96875,0.7
0.832,1,0.62072,0.54557,0.96875,0.69608
0.84,1,0.61584,0.55049,0.96484,0.68627
0.848,1,0.60997,0.54557,0.96875,0.7
0.856,1,0.60508,0.55049,0.96875,0.6902
0.864,1,0.6002,0.55049,0.96875,0.7
0.872,1,0.59531,0.55049,0.96484,0.7
0.88,1,0.5914,0.55049,0.96875,0.69608
0.888,1,0.58651,0.55542,0.96875,0.7
0.896,1,0.58162,0.56034,0.96875,0.7
0.904,1,0.57674,0.56034,0.96875,0.7
0.912,1,0.57283,0.56527,0.96875,0.6902
0.92,1,0.56989,0.57512,0.96875,0.68627
0.928,1,0.56696,0.58498,0.96484,0.67647
0.936,1,0.56403,0.57512,0.96484,0.6902
0.944,1,0.56109,0.58498,0.96875,0.68627
0.952,1,0.55816,0.59483,0.96875,0.68627
0.96,1,0.55621,0.59483,0.96875,0.68627
0.968,1,0.55327,0.59483,0.96875,0.6902
0.976,1,0.55132,0.59975,0.97461,0.68627
0.984,1,0.55034,0.59483,0.96875,0.7
0.992,1,0.54839,0.59483,0.96875,0.7098
1,1,0.54741,0.59483,0.97461,0.71569
1.008,1,0.54643,0.58005,0.96875,0.72549
1.016,1,0.54545,0.57512,0.95898,0.73137
1.024,1,0.54448,0.56034,0.94922,0.75098
1.032,1,0.54252,0.55542,0.94531,0.76078
1.04,1,0.54154,0.54557,0.92969,0.77059
1.048,1,0.54057,0.53448,0.92383,0.77647
1.056,1,0.53959,0.52463,0.91992,0.7902
1.064,1,0.53763,0.51478,0.9043,0.79608
1.072,1,0.53568,0.50493,0.90039,0.8
1.08,1,0.5347,0.49507,0.89453,0.79608
1.088,1,0.53275,0.49015,0.88867,0.80588
1.096,1,0.53079,0.5,0.88867,0.79608
1.104,1,0.52884,0.5,0.88477,0.7902
1.112,1,0.52688,0.51478,0.88477,0.77647
1.12,1,0.52493,0.52956,0.88477,0.76078
1.128,1,0.52297,0.53448,0.88477,0.75098
1.136,1,0.52199,0.52956,0.88477,0.75098
1.144,1,0.52102,0.53941,0.87891,0.7451
1.152,1,0.51906,0.55049,0.88477,0.73137
1.16,1,0.51711,0.54557,0.87891,0.74118
1.168,1,0.51515,0.56527,0.87891,0.71569
1.176,1,0.5132,0.55049,0.87891,0.73137
1.184,1,0.51124,0.55542,0.87891,0.72549
1.192,1,0.50831,0.55049,0.875,0.73137
1.2,1,0.50635,0.55542,0.87891,0.72549
1.208,1,0.50342,0.55542,0.875,0.72549
1.216,1,0.50147,0.56034,0.875,0.72549
1.224,1,0.49951,0.55542,0.875,0.72549
1.232,1,0.49756,0.56034,0.875,0.72549
1.24,1,0.49658,0.55049,0.875,0.73137
1.248,1,0.49756,0.5899,0.87891,0.7098
1.256,1,0.49951,0.60468,0.87891,0.70588
1.264,0.99707,0.50342,0.62438,0.86914,0.7
1.272,0.99413,0.50929,0.63547,0.83984,0.7
1.28,0.97849,0.51515,0.64532,0.83984,0.69608
1.288,0.96285,0.52199,0.64039,0.84375,0.6902
1.296,0.94526,0.53079,0.60961,0.84961,0.71569
1.304,0.92766,0.54057,0.61946,0.84375,0.7098
1.312,0.90811,0.55132,0.60468,0.84961,0.70588
1.32,0.88856,0.56207,0.56527,0.875,0.73137
1.328,0.86804,0.57185,0.54557,0.875,0.73137
1.336,0.84848,0.58162,0.53941,0.87891,0.72549
1.344,0.82893,0.58944,0.54557,0.88477,0.72549
1.352,0.80938,0.59726,0.52463,0.88477,0.73137
1.36,0.79179,0.60411,0.52463,0.88477,0.74118
1.368,0.77419,0.60997,0.52463,0.88477,0.73529
1.376,0.75855,0.61388,0.52956,0.88477,0.72549
1.384,0.74291,0.61779,0.52463,0.88867,0.73529
1.392,0.72727,0.62072,0.52956,0.89453,0.73137
1.4,0.71163,0.62366,0.52463,0.89453,0.73137
1.408,0.69501,0.62659,0.50493,0.92969,0.76078
1.416,0.67937,0.62952,0.46059,1.0195,0.83529
1.424,0.66373,0.63148,0.41502,0.88867,0.90588
1.432,0.64907,0.63343,0.53941,0.625,0.87059
1.44,0.63441,0.63343,0.63054,0.45508,0.82157
1.448,0.62072,0.63343,0.49015,0.53906,0.82549
1.456,0.60606,0.63245,0.65025,0.66992,0.61961
1.464,0.59042,0.6305,0.67488,0.80469,0.5902
1.472,0.57478,0.62854,0.5702,0.89453,0.67059
1.48,0.56012,0.62561,0.54557,0.92383,0.68627
1.488,0.54448,0.62268,0.55049,0.94531,0.68627
1.496,0.52884,0.61877,0.54557,0.94531,0.68627
1.504,0.5132,0.61388,0.53448,0.94531,0.69608
1.512,0.49853,0.60997,0.52956,0.94531,0.7
1.52,0.48485,0.60508,0.53448,0.94531,0.69608
1.528,0.47214,0.60117,0.54557,0.94531,0.7
1.536,0.46041,0.59629,0.54557,0.94531,0.7
1.544,0.44868,0.5914,0.55049,0.94531,0.6902
1.552,0.43695,0.58651,0.55049,0.94922,0.68627
1.56,0.4262,0.5826,0.55049,0.94531,0.6902
1.568,0.41447,0.57869,0.55049,0.94531,0.68039
1.576,0.40274,0.57576,0.56034,0.94531,0.68627
1.584,0.39296,0.57283,0.55542,0.94531,0.68039
1.592,0.38319,0.56989,0.5702,0.94531,0.68627
1.6,0.37537,0.56696,0.56527,0.94531,0.67647
1.608,0.36755,0.56403,0.56527,0.94531,0.6902
1.616,0.35875,0.56109,0.58005,0.94531,0.67647
1.624,0.35093,0.55816,0.58005,0.94531,0.68039
1.632,0.34311,0.55523,0.5899,0.94922,0.67647
1.64,0.33529,0.5523,0.59483,0.95508,0.67647
1.648,0.32747,0.55034,0.59975,0.96484,0.67647
1.656,0.31965,0.54839,0.59483,0.95898,0.6902
1.664,0.31183,0.54643,0.59483,0.96484,0.69608
1.672,0.30499,0.54448,0.59483,0.96484,0.7
1.68,0.29717,0.54252,0.59483,0.96484,0.7
1.688,0.28935,0.54154,0.5899,0.95508,0.71569
1.696,0.28152,0.53959,0.58005,0.95508,0.72549
1.704,0.2737,0.53763,0.5702,0.95508,0.74118
1.712,0.26491,0.50635,0.56034,0.94531,0.7451
1.72,0.25611,0.46041,0.53941,0.93945,0.76667
1.728,0.24633,0.43597,0.52463,0.92383,0.77647
1.736,0.23656,0.42131,0.51478,0.91992,0.7902
1.744,0.22581,0.41251,0.50493,0.91016,0.79608
1.752,0.21603,0.40469,0.50493,0.9043,0.79608
1.76,0.20528,0.3998,0.48522,0.90039,0.80588
1.768,0.19453,0.39589,0.49015,0.89453,0.8
1.776,0.1828,0.39296,0.48522,0.88477,0.79608
1.784,0.17107,0.39003,0.49507,0.87891,0.79608
1.792,0.15836,0.3871,0.5,0.88477,0.78039
1.8,0.14565,0.38319,0.5,0.88477,0.77059
1.808,0.13099,0.37928,0.51478,0.88867,0.76078
1.816,0.1173,0.37439,0.50985,0.88867,0.76667
1.824,0.10264,0.3695,0.51478,0.88867,0.76667
1.832,0.087977,0.36461,0.52463,0.90039,0.75098
1.84,0.075269,0.35973,0.51478,0.90039,0.76078
1.848,0.062561,0.35582,0.52463,0.90039,0.75098
1.856,0.050831,0.35093,0.52463,0.90039,0.7451
1.864,0.040078,0.34604,0.52463,0.90039,0.73529
1.872,0.029326,0.34115,0.53941,0.90039,0.73529
1.88,0.018573,0.33822,0.53448,0.90039,0.73529
1.888,0.0087977,0.33529,0.53448,0.90039,0.73529
1.896,0,0.33236,0.53941,0.90039,0.73137
1.904,0,0.33138,0.53941,0.89453,0.73529
1.912,0,0.3304,0.54557,0.88867,0.72549
1.92,0,0.33236,0.55049,0.88867,0.72157
1.928,0,0.33627,0.56527,0.88867,0.73137
1.936,0,0.34311,0.5899,0.88867,0.72157
1.944,0,0.35484,0.61946,0.875,0.70588
1.952,0,0.37048,0.62438,0.84961,0.7
1.96,0,0.38807,0.61946,0.85547,0.70588
1.968,0,0.4086,0.62438,0.85547,0.70588
1.976,0,0.42815,0.58005,0.85938,0.73137
1.984,0,0.44575,0.5899,0.85547,0.72549
1.992,0,0.46628,0.59975,0.85938,0.71569
2,0,0.48778,0.55049,0.88477,0.74118
2.008,0,0.50733,0.54557,0.89453,0.72549
2.016,0,0.5259,0.52463,0.90039,0.73529
2.024,0,0.54154,0.5197,0.89453,0.7451
2.032,0,0.55523,0.50985,0.89453,0.7451
2.04,0,0.56696,0.5197,0.89453,0.74118
2.048,0,0.57674,0.5197,0.90039,0.7451
2.056,0,0.58553,0.51478,0.90039,0.7451
2.064,0,0.59238,0.5197,0.90039,0.74118
2.072,0,0.59922,0.51478,0.90039,0.7451
2.08,0,0.60313,0.50985,0.90039,0.74118
2.088,0,0.60606,0.50985,0.91406,0.7451
2.096,0,0.60899,0.45443,1.0254,0.81569
2.104,0,0.61193,0.40517,1.0352,0.8902
2.112,0,0.61486,0.46059,0.72461,0.91176
2.12,0,0.61584,0.63547,0.46484,0.82157
2.128,0,0.61584,0.49507,0.42969,0.86078
2.136,0,0.61486,0.46059,0.60938,0.71569
2.144,0,0.61388,0.63547,0.75391,0.61569
2.152,0,0.61095,0.56034,0.88477,0.67647
2.16,0,0.60704,0.52463,0.93945,0.7
2.168,0,0.6002,0.52463,0.95508,0.7
2.176,0,0.59335,0.5197,0.95508,0.7
2.184,0,0.58553,0.51478,0.95898,0.7098
2.192,0,0.57674,0.5197,0.95508,0.71569
2.2,0,0.56696,0.51478,0.95508,0.7098
2.208,0,0.55718,0.5197,0.94922,0.7098
2.216,0,0.54643,0.52956,0.95898,0.7
2.224,0,0.53666,0.52956,0.95898,0.7
2.232,0,0.52786,0.53448,0.95508,0.7
2.24,0,0.51808,0.53941,0.95508,0.7
2.248,0,0.50929,0.54557,0.95898,0.69608
2.256,0.00097752,0.50049,0.54557,0.95898,0.69608
2.264,0.001955,0.49267,0.55049,0.96484,0.68627
2.272,0.0097752,0.48583,0.54557,0.95898,0.7
2.28,0.016618,0.47996,0.55542,0.96484,0.68627
2.288,0.024438,0.47312,0.55049,0.95898,0.69608
2.296,0.032258,0.46823,0.56034,0.96484,0.6902
2.304,0.040078,0.46237,0.5702,0.96484,0.68627
2.312,0.047898,0.4565,0.57512,0.96875,0.6902
2.32,0.055718,0.45161,0.58005,0.96875,0.68627
2.328,0.062561,0.4477,0.58498,0.96875,0.68627
2.336,0.069404,0.44379,0.58498,0.96875,0.69608
2.344,0.076246,0.43988,0.59483,0.96875,0.69608
2.352,0.082111,0.43597,0.59483,0.97461,0.7
2.36,0.088954,0.43304,0.59483,0.97461,0.70588
2.368,0.094819,0.42913,0.5899,0.97461,0.71569
2.376,0.099707,0.4262,0.5899,0.96875,0.71569
2.384,0.10459,0.42326,0.58005,0.96484,0.72549
2.392,0.1085,0.41935,0.56034,0.95508,0.75098
2.4,0.11144,0.41642,0.55049,0.94531,0.76667
2.408,0.11437,0.41251,0.53941,0.93945,0.77647
2.416,0.11632,0.4086,0.52463,0.92383,0.78039
2.424,0.1173,0.40469,0.50985,0.91992,0.79608
2.432,0.11632,0.3998,0.5,0.91406,0.79608
2.44,0.11632,0.39589,0.5,0.9043,0.79608
2.448,0.11437,0.39101,0.48522,0.89453,0.8
2.456,0.11241,0.38514,0.49015,0.88867,0.79608
2.464,0.10948,0.38025,0.48522,0.88477,0.79608
2.472,0.10655,0.37537,0.49507,0.88477,0.7902
2.48,0.10362,0.37243,0.5,0.88867,0.77647
2.488,0.099707,0.3695,0.50493,0.89453,0.76667
2.496,0.095797,0.36559,0.5,0.89453,0.77059
2.504,0.091887,0.36266,0.50493,0.90039,0.76667
2.512,0.086999,0.35777,0.51478,0.90039,0.7549
2.52,0.082111,0.35484,0.5197,0.90039,0.7549
2.528,0.077224,0.34995,0.5197,0.9043,0.75098
2.536,0.071359,0.34604,0.52956,0.91016,0.73529
2.544,0.066471,0.34115,0.52463,0.9043,0.74118
2.552,0.061584,0.33724,0.53448,0.91016,0.72549
2.56,0.057674,0.33333,0.54557,0.9043,0.72549
2.568,0.053763,0.32942,0.53941,0.90039,0.73137
2.576,0.048876,0.32845,0.53941,0.90039,0.73137
2.584,0.044966,0.32747,0.55049,0.90039,0.72549
2.592,0.040078,0.32747,0.55049,0.90039,0.72549
2.6,0.035191,0.32845,0.55049,0.90039,0.72549
2.608,0.031281,0.33138,0.57512,0.89453,0.71569
2.616,0.026393,0.33724,0.58498,0.89453,0.71569
2.624,0.022483,0.34506,0.60961,0.88477,0.70588
2.632,0.018573,0.35679,0.61946,0.85547,0.7
2.64,0.016618,0.37048,0.61946,0.84961,0.7098
2.648,0.013685,0.3871,0.61946,0.85547,0.7098
2.656,0.01173,0.40762,0.5899,0.85938,0.72549
2.664,0.0097752,0.42913,0.58498,0.86523,0.72549
2.672,0.0087977,0.44868,0.59483,0.85938,0.72549
2.68,0.0087977,0.46628,0.56034,0.875,0.73137
2.688,0.0078201,0.48583,0.53941,0.89453,0.74118
2.696,0.0078201,0.50342,0.52956,0.89453,0.73137
2.704,0.0078201,0.52102,0.52463,0.89453,0.74118
2.712,0.0078201,0.53763,0.5197,0.89453,0.7451
2.72,0.0087977,0.55034,0.50985,0.90039,0.7451
2.728,0.0087977,0.56207,0.50985,0.90039,0.7451
2.736,0.010753,0.57087,0.50985,0.90039,0.75098
2.744,0.01173,0.57967,0.50985,0.90039,0.7451
2.752,0.013685,0.58553,0.50493,0.90039,0.75098
2.76,0.01564,0.5914,0.50493,0.90039,0.75098
2.768,0.017595,0.59433,0.50493,0.90039,0.7549
2.776,0.01955,0.59629,0.47537,0.95898,0.7902
2.784,0.022483,0.59726,0.40517,1.0293,0.88627
2.792,0.024438,0.59824,0.38054,0.85938,0.94118
2.8,0.02737,0.6002,0.53448,0.57031,0.88627
2.808,0.030303,0.6002,0.58498,0.42969,0.86667
2.816,0.032258,0.6002,0.43473,0.51953,0.89608
2.824,0.035191,0.59824,0.62438,0.67578,0.64118
2.832,0.038123,0.59531,0.58005,0.83398,0.63529
2.84,0.041056,0.5914,0.51478,0.91992,0.71569
2.848,0.043988,0.58553,0.5,0.94531,0.72549
2.856,0.046921,0.57869,0.50493,0.95508,0.72549
2.864,0.049853,0.56989,0.51478,0.96484,0.71569
2.872,0.052786,0.56207,0.50985,0.96484,0.72549
2.88,0.055718,0.55327,0.50493,0.95898,0.72549
2.888,0.058651,0.54448,0.50493,0.96484,0.72549
2.896,0.062561,0.53372,0.51478,0.96875,0.72549
2.904,0.065494,0.52395,0.51478,0.96875,0.72157
2.912,0.069404,0.51515,0.5197,0.96875,0.71569
2.92,0.073314,0.50733,0.52463,0.96875,0.71569
2.928,0.077224,0.49951,0.53448,0.97461,0.7
2.936,0.082111,0.49169,0.53941,0.96875,0.7
2.944,0.086999,0.48485,0.53448,0.96875,0.70588
2.952,0.092864,0.47703,0.53941,0.97461,0.7
2.96,0.097752,0.46921,0.55049,0.96875,0.69608
2.968,0.10264,0.46334,0.54557,0.96875,0.7
2.976,0.10753,0.45748,0.56034,0.96875,0.69608
2.984,0.11241,0.45259,0.5702,0.96875,0.6902
2.992,0.1173,0.4477,0.56527,0.96875,0.69608
3,0.12317,0.44379,0.5702,0.96875,0.7
3.008,0.12903,0.43988,0.57512,0.97461,0.69608
3.016,0.13587,0.43597,0.58498,0.96875,0.6902
3.024,0.14076,0.43304,0.5899,0.97461,0.7
3.032,0.14565,0.42913,0.59483,0.98047,0.69608
3.04,0.14956,0.42522,0.58498,0.97461,0.7098
3.048,0.15445,0.42131,0.58498,0.96875,0.71569
3.056,0.15836,0.41544,0.58005,0.96875,0.72549
3.064,0.16227,0.41056,0.57512,0.96875,0.72549
3.072,0.16618,0.40567,0.56034,0.95898,0.75098
3.08,0.17009,0.40176,0.55049,0.94922,0.7549
3.088,0.17302,0.39785,0.53941,0.94531,0.76667
3.096,0.17498,0.39492,0.52463,0.93555,0.78039
3.104,0.17693,0.39296,0.50493,0.92383,0.7902
3.112,0.17889,0.39101,0.5,0.92383,0.79608
3.12,0.18084,0.38807,0.49507,0.91406,0.79608
3.128,0.18182,0.38416,0.5,0.91016,0.7902
3.136,0.1828,0.37928,0.48522,0.9043,0.79608
3.144,0.18475,0.37439,0.49507,0.9043,0.7902
3.152,0.18475,0.3695,0.49015,0.90039,0.78039
3.16,0.18475,0.36364,0.5,0.90039,0.77647
3.168,0.18377,0.35875,0.5,0.90039,0.77059
3.176,0.18377,0.35386,0.50985,0.9043,0.76667
3.184,0.1828,0.34995,0.50985,0.91016,0.76667
3.192,0.1828,0.34604,0.51478,0.91016,0.75098
3.2,0.1828,0.34115,0.52463,0.91406,0.74118
3.208,0.1828,0.33724,0.52956,0.91406,0.73529
3.216,0.18377,0.33333,0.52463,0.91992,0.73137
3.224,0.18475,0.32942,0.54557,0.91406,0.72549
3.232,0.18573,0.32551,0.54557,0.91992,0.72549
3.24,0.18768,0.3216,0.55049,0.91406,0.72157
3.248,0.18964,0.31867,0.55049,0.91016,0.71569
3.256,0.19257,0.31476,0.56034,0.91406,0.70588
3.264,0.1955,0.31085,0.55542,0.91016,0.71569
3.272,0.19844,0.3089,0.56034,0.9043,0.72157
3.28,0.20235,0.30792,0.5702,0.91016,0.7098
3.288,0.20528,0.3089,0.58005,0.91016,0.71569
3.296,0.21017,0.31085,0.60468,0.91016,0.7
3.304,0.21408,0.31574,0.62438,0.89453,0.6902
3.312,0.21896,0.32454,0.64039,0.85938,0.68627
3.32,0.22385,0.33627,0.64532,0.85938,0.6902
3.328,0.23069,0.35288,0.62438,0.86523,0.7
3.336,0.23656,0.37146,0.60468,0.86523,0.71569
3.344,0.2434,0.39101,0.61946,0.86523,0.7
3.352,0.24927,0.41153,0.59975,0.86914,0.7098
3.36,0.25611,0.43206,0.56527,0.89453,0.72549
3.368,0.26295,0.45259,0.54557,0.90039,0.72549
3.376,0.27175,0.47019,0.52956,0.90039,0.72549
3.384,0.28055,0.48387,0.52463,0.90039,0.73137
3.392,0.29032,0.49853,0.52463,0.91016,0.73529
3.4,0.3001,0.51124,0.52463,0.91406,0.73137
3.408,0.31183,0.52297,0.51478,0.91016,0.74118
3.416,0.32258,0.53372,0.50985,0.91406,0.7451
3.424,0.33431,0.54252,0.50985,0.91406,0.7451
3.432,0.34604,0.55034,0.5197,0.91992,0.73529
3.44,0.35679,0.55718,0.51478,0.91016,0.74118
3.448,0.36755,0.56207,0.50985,0.91992,0.75098
3.456,0.37732,0.56598,0.46059,1.0039,0.80588
3.464,0.38807,0.56891,0.39039,1.0586,0.90196
3.472,0.39883,0.56989,0.35961,0.83984,0.93725
3.48,0.41056,0.56989,0.57512,0.57031,0.85686
3.488,0.42326,0.56989,0.61453,0.50977,0.81569
3.496,0.43597,0.56891,0.50493,0.64062,0.72549
3.504,0.4477,0.56598,0.66995,0.75391,0.5902
3.512,0.45846,0.56305,0.60468,0.86914,0.64118
3.52,0.46921,0.55914,0.54557,0.93555,0.6902
3.528,0.47996,0.55523,0.52956,0.94922,0.7
3.536,0.49267,0.54936,0.52956,0.95508,0.7
3.544,0.50538,0.54252,0.53448,0.95508,0.6902
3.552,0.51906,0.53568,0.52956,0.95898,0.69608
3.56,0.53275,0.52688,0.53448,0.95508,0.69608
3.568,0.54839,0.51808,0.53941,0.94922,0.6902
3.576,0.565,0.50929,0.55049,0.94922,0.68039
3.584,0.58162,0.50147,0.55049,0.94922,0.6902
3.592,0.59824,0.49365,0.54557,0.95898,0.69608
3.6,0.61486,0.48485,0.55542,0.95508,0.68627
3.608,0.63148,0.47605,0.55049,0.94922,0.69608
3.616,0.64712,0.46823,0.56527,0.95898,0.67647
3.624,0.66373,0.46041,0.56034,0.96484,0.68627
3.632,0.68231,0.45357,0.55542,0.96484,0.6902
3.64,0.70088,0.4477,0.56527,0.96484,0.68039
3.648,0.72141,0.44282,0.5702,0.96484,0.67647
3.656,0.74291,0.43891,0.57512,0.96484,0.67647
3.664,0.76149,0.435,0.58498,0.96484,0.67647
3.672,0.78104,0.43109,0.5899,0.96484,0.67059
3.68,0.79961,0.42815,0.59483,0.96484,0.67647
3.688,0.81818,0.42424,0.59483,0.96875,0.67647
3.696,0.83773,0.42033,0.5899,0.96875,0.6902
3.704,0.85826,0.41642,0.59483,0.96875,0.68627
3.712,0.87879,0.41251,0.5899,0.96875,0.69608
3.72,0.90029,0.4086,0.59483,0.96875,0.69608
3.728,0.92082,0.40469,0.58498,0.96875,0.7
3.736,0.94135,0.3998,0.57512,0.96484,0.71569
3.744,0.9609,0.39589,0.57512,0.95508,0.72549
3.752,0.98045,0.39296,0.56527,0.94531,0.73529
3.76,0.99022,0.39883,0.56527,0.94531,0.74118
3.768,1,0.40958,0.53448,0.92969,0.76667
3.776,1,0.41447,0.52463,0.92383,0.77059
3.784,1,0.41544,0.50493,0.91992,0.7902
3.792,1,0.41447,0.50493,0.91406,0.78627
3.8,1,0.41251,0.5,0.91016,0.78039
3.808,1,0.4086,0.5,0.9043,0.79608
3.816,1,0.40469,0.50493,0.90039,0.78627
3.824,1,0.3998,0.50985,0.90039,0.77059
3.832,1,0.39492,0.5197,0.90039,0.7549
3.84,1,0.39003,0.52463,0.90039,0.75098
3.848,1,0.38612,0.52463,0.90039,0.75098
3.856,1,0.38221,0.52463,0.90039,0.7451
3.864,1,0.3783,0.53941,0.9043,0.73137
3.872,1,0.37537,0.53941,0.91016,0.73529
3.88,1,0.37243,0.54557,0.91016,0.72549
3.888,1,0.3695,0.55542,0.91016,0.72157
3.896,1,0.36657,0.55049,0.91406,0.72549
3.904,1,0.36364,0.55049,0.91016,0.72157
3.912,1,0.35973,0.55542,0.91016,0.72549
3.92,1,0.35582,0.55049,0.91406,0.72157
3.928,1,0.35288,0.56527,0.91016,0.7098
3.936,1,0.34897,0.55049,0.91016,0.72157
3.944,1,0.34506,0.55049,0.9043,0.72549
3.952,1,0.34213,0.56034,0.9043,0.71569
3.96,1,0.34213,0.56034,0.91016,0.72157
3.968,1,0.34311,0.58005,0.9043,0.7098
3.976,1,0.34702,0.59975,0.91016,0.7
3.984,1,0.35288,0.61946,0.90039,0.7
3.992,1,0.36266,0.64039,0.86914,0.69608
4,1,0.37537,0.6601,0.86523,0.68627
4.008,1,0.39198,0.65025,0.85938,0.68039
4.016,1,0.41056,0.61453,0.86914,0.70588
4.024,1,0.43109,0.61946,0.875,0.7
4.032,1,0.45161,0.60468,0.86914,0.70588
4.04,1,0.47214,0.57512,0.88867,0.72549
4.048,1,0.49071,0.55049,0.90039,0.72549
4.056,1,0.50831,0.53448,0.9043,0.73137
4.064,1,0.52297,0.53448,0.91016,0.73137
4.072,1,0.53372,0.52956,0.91016,0.72549
4.08,1,0.54252,0.52956,0.91016,0.73137
4.088,1,0.5523,0.52956,0.91016,0.73529
4.096,1,0.56305,0.52956,0.91016,0.74118
4.104,1,0.57283,0.5197,0.91016,0.75098
4.112,1,0.58162,0.5197,0.91016,0.7451
4.12,1,0.58847,0.52463,0.91016,0.7451
4.128,1,0.59433,0.5197,0.91992,0.7451
4.136,1,0.59726,0.48522,0.98047,0.7902
4.144,1,0.6002,0.43473,1.0352,0.85686
4.152,1,0.60215,0.4101,0.86914,0.90196
4.16,1,0.60117,0.60961,0.60938,0.83137
4.168,1,0.6002,0.66995,0.51562,0.7902
4.176,1,0.59922,0.52463,0.63477,0.80588
4.184,1,0.59824,0.6601,0.74414,0.6098
4.192,1,0.59531,0.59483,0.85547,0.65098
4.2,1,0.59238,0.53448,0.92969,0.69608
4.208,1,0.58749,0.52463,0.94922,0.70588
4.216,1,0.58162,0.52463,0.95898,0.70588
4.224,1,0.57478,0.52956,0.95508,0.7
4.232,1,0.56696,0.5197,0.95508,0.71569
4.24,1,0.55718,0.52956,0.95508,0.7
4.248,1,0.54839,0.52463,0.95898,0.70588
4.256,1,0.53861,0.52463,0.95898,0.7
4.264,1,0.52981,0.53448,0.95898,0.7
4.272,1,0.52297,0.53941,0.95898,0.7
4.28,1,0.51613,0.54557,0.95898,0.7
4.288,1,0.50929,0.55049,0.95898,0.69608
4.296,1,0.50244,0.55049,0.95898,0.6902
4.304,1,0.4956,0.55049,0.95508,0.7
4.312,1,0.48974,0.55542,0.95508,0.6902
4.32,1,0.48387,0.56034,0.95508,0.68627
4.328,1,0.47898,0.56527,0.95508,0.6902
4.336,1,0.4741,0.5702,0.95508,0.68627
4.344,1,0.47019,0.5702,0.95898,0.68627
4.352,1,0.46628,0.5702,0.95508,0.6902
4.36,1,0.46237,0.58005,0.95508,0.68039
4.368,1,0.45846,0.58005,0.95508,0.6902
4.376,1,0.45552,0.58498,0.96484,0.69608
4.384,1,0.45259,0.5899,0.96484,0.69608
4.392,1,0.44966,0.59483,0.96875,0.7
4.4,1,0.44575,0.58005,0.96875,0.70588
4.408,1,0.44184,0.57512,0.96484,0.71569
4.416,1,0.43891,0.57512,0.95898,0.72549
4.424,1,0.435,0.5702,0.95508,0.72549
4.432,1,0.43206,0.55049,0.94922,0.75098
4.44,1,0.42815,0.54557,0.94531,0.7549
4.448,1,0.42424,0.52956,0.92969,0.76667
4.456,1,0.42033,0.51478,0.91992,0.78039
4.464,1,0.41642,0.50493,0.91406,0.7902
4.472,1,0.41349,0.49507,0.90039,0.8
4.48,1,0.41056,0.48522,0.89453,0.80588
4.488,1,0.40567,0.4803,0.89453,0.80588
4.496,1,0.40176,0.49015,0.88867,0.79608
4.504,1,0.39785,0.49507,0.88477,0.79608
4.512,0.99609,0.39394,0.48522,0.88477,0.78627
4.52,0.99218,0.38905,0.5,0.87891,0.77647
4.528,0.96872,0.38514,0.50493,0.88477,0.77059
4.536,0.94526,0.38123,0.50493,0.88477,0.77059
4.544,0.91984,0.3783,0.5197,0.88867,0.76078
4.552,0.89541,0.37537,0.51478,0.89453,0.7549
4.56,0.87195,0.37243,0.5197,0.90039,0.75098
4.568,0.84848,0.37146,0.52463,0.89453,0.75098
4.576,0.82698,0.37048,0.52956,0.89453,0.7451
4.584,0.8045,0.36755,0.52463,0.90039,0.75098
4.592,0.78201,0.36461,0.52463,0.90039,0.7451
4.6,0.75855,0.36168,0.52956,0.90039,0.74118
4.608,0.73509,0.35777,0.52463,0.89453,0.7451
4.616,0.71163,0.35288,0.52463,0.90039,0.7451
4.624,0.69013,0.34897,0.52956,0.89453,0.74118
4.632,0.66862,0.34604,0.53448,0.90039,0.74118
4.64,0.64809,0.34409,0.52956,0.89453,0.75098
4.648,0.62854,0.34506,0.53448,0.89453,0.7451
4.656,0.60802,0.34897,0.52956,0.89453,0.75098
4.664,0.58749,0.35679,0.54557,0.90039,0.74118
4.672,0.56696,0.36559,0.56034,0.89453,0.73529
4.68,0.54643,0.37732,0.5899,0.90039,0.71569
4.688,0.5259,0.39198,0.61946,0.875,0.70588
4.696,0.5044,0.41056,0.61946,0.84961,0.71569
4.704,0.48387,0.43011,0.62438,0.85547,0.7098
4.712,0.46432,0.45064,0.61453,0.85547,0.72157
4.72,0.44575,0.47116,0.58498,0.85938,0.73529
4.728,0.42717,0.49071,0.59975,0.85547,0.72157
4.736,0.41153,0.50929,0.57512,0.875,0.73137
4.744,0.39492,0.5259,0.53448,0.90039,0.7451
4.752,0.3783,0.54154,0.5197,0.90039,0.75098
4.76,0.36266,0.55425,0.50985,0.9043,0.75098
4.768,0.34702,0.565,0.50985,0.91016,0.75098
4.776,0.33236,0.57283,0.50985,0.91016,0.75098
4.784,0.31769,0.58162,0.5,0.91016,0.75098
4.792,0.30401,0.58847,0.50493,0.91016,0.75098
4.8,0.29032,0.59433,0.5,0.91406,0.7549
4.808,0.27761,0.59726,0.5,0.91992,0.76078
4.816,0.26491,0.6002,0.50493,0.91992,0.7549
4.824,0.25122,0.60215,0.5,0.91992,0.76078
4.832,0.23851,0.60313,0.49507,0.93555,0.77059
4.84,0.22581,0.60411,0.44458,1.0449,0.83137
4.848,0.2131,0.60313,0.40025,0.95898,0.90588
4.856,0.20137,0.60215,0.47044,0.69922,0.91569
4.864,0.18964,0.60117,0.59975,0.48438,0.84118
4.872,0.17791,0.59922,0.45443,0.47461,0.86667
4.88,0.16813,0.59629,0.57512,0.66016,0.68039
4.888,0.15934,0.59238,0.64039,0.79492,0.61961
4.896,0.15054,0.58749,0.54557,0.91016,0.68627
4.904,0.14272,0.58162,0.50985,0.94922,0.7098
4.912,0.1349,0.5738,0.50493,0.95898,0.71569
4.92,0.12805,0.565,0.50493,0.96484,0.72157
4.928,0.12023,0.55523,0.50985,0.96875,0.71569
4.936,0.11339,0.54545,0.50493,0.96875,0.72157
4.944,0.10655,0.53666,0.50985,0.96484,0.7098
4.952,0.10068,0.52786,0.50493,0.96875,0.72157
4.96,0.095797,0.52004,0.50985,0.96875,0.71569
4.968,0.090909,0.5132,0.5197,0.96875,0.70588
4.976,0.086999,0.50635,0.52463,0.96875,0.70588
4.984,0.083089,0.49951,0.52463,0.96875,0.70588
4.992,0.081134,0.49462,0.5197,0.96875,0.7098
5,0.078201,0.48974,0.52463,0.96875,0.70588
5.008,0.077224,0.48583,0.53448,0.96875,0.7
5.016,0.075269,0.48192,0.54557,0.97461,0.69608
5.024,0.075269,0.47801,0.53448,0.96875,0.70588
5.032,0.075269,0.47312,0.54557,0.97461,0.7
5.04,0.075269,0.46921,0.55049,0.96875,0.7
5.048,0.075269,0.4653,0.55049,0.96875,0.7
5.056,0.076246,0.46139,0.56527,0.97461,0.69608
5.064,0.077224,0.45748,0.55542,0.97461,0.70588
5.072,0.078201,0.45357,0.5702,0.98047,0.70588
5.08,0.079179,0.45064,0.57512,0.98438,0.70588
5.088,0.079179,0.44575,0.57512,0.98438,0.7098
5.096,0.080156,0.44282,0.5702,0.99023,0.7
5.104,0.081134,0.43891,0.56527,0.98438,0.72549
5.112,0.081134,0.43597,0.5702,0.98438,0.72549
5.12,0.082111,0.43304,0.56527,0.97461,0.73529
5.128,0.082111,0.43109,0.55049,0.96875,0.75098
5.136,0.082111,0.42913,0.55049,0.96484,0.76078
5.144,0.081134,0.42717,0.52956,0.95898,0.77059
5.152,0.079179,0.42326,0.50985,0.94531,0.7902
5.16,0.078201,0.41935,0.50985,0.93555,0.79608
5.168,0.074291,0.41544,0.5,0.92969,0.80588
5.176,0.071359,0.41153,0.49015,0.91992,0.8
5.184,0.067449,0.40665,0.4803,0.91016,0.81569
5.192,0.062561,0.40176,0.4803,0.9043,0.81176
5.2,0.058651,0.39687,0.4803,0.90039,0.8
5.208,0.055718,0.39296,0.4803,0.89453,0.79608
5.216,0.051808,0.38807,0.49015,0.89453,0.79608
5.224,0.047898,0.38319,0.48522,0.89453,0.79608
5.232,0.043011,0.37928,0.49015,0.90039,0.78039
5.24,0.037146,0.37537,0.5,0.90039,0.77647
5.248,0.030303,0.37243,0.5,0.90039,0.77059
5.256,0.02346,0.3695,0.50985,0.9043,0.76078
5.264,0.018573,0.36755,0.5,0.9043,0.77059
5.272,0.012708,0.36657,0.51478,0.91016,0.75098
5.28,0.0078201,0.36559,0.5197,0.91406,0.75098
5.288,0.0029325,0.36364,0.51478,0.91016,0.75098
5.296,0.00097752,0.36168,0.52463,0.9043,0.7451
5.304,0,0.35973,0.52956,0.91016,0.73529
5.312,0,0.35777,0.52956,0.9043,0.73529
5.32,0,0.35484,0.52956,0.90039,0.74118
5.328,0,0.35288,0.54557,0.90039,0.72549
5.336,0,0.35191,0.52956,0.89453,0.74118
5.344,0,0.35191,0.53448,0.89453,0.74118
5.352,0,0.35386,0.53941,0.89453,0.73529
5.36,0,0.35875,0.52463,0.88477,0.7451
5.368,0,0.36559,0.53448,0.88867,0.7451
5.376,0,0.37439,0.55049,0.88867,0.74118
5.384,0,0.38807,0.57512,0.88867,0.73137
5.392,0,0.40567,0.60468,0.87891,0.71569
5.4,0,0.42522,0.61946,0.84961,0.7098
5.408,0,0.44673,0.61946,0.85547,0.7098
5.416,0,0.46921,0.60961,0.84961,0.72157
5.424,0,0.49071,0.58005,0.85938,0.73137
5.432,0,0.51026,0.57512,0.86523,0.73529
5.44,0,0.52884,0.59483,0.85938,0.72157
5.448,0,0.54448,0.54557,0.88477,0.74118
5.456,0,0.55914,0.52463,0.90039,0.7451
5.464,0,0.57185,0.5197,0.90039,0.74118
5.472,0,0.58065,0.51478,0.90039,0.7451
5.48,0,0.58847,0.50493,0.90039,0.75098
5.488,0,0.59433,0.50493,0.90039,0.7451
5.496,0,0.6002,0.5,0.90039,0.75098
5.504,0,0.60313,0.49507,0.90039,0.76078
5.512,0,0.60606,0.49507,0.9043,0.75098
5.52,0,0.60802,0.5,0.91016,0.7549
5.528,0,0.60997,0.49507,0.91016,0.7549
5.536,0,0.61193,0.5,0.91016,0.75098
5.544,0,0.61388,0.47537,0.94922,0.78627
5.552,0,0.61584,0.4298,1.0488,0.85098
5.56,0,0.61681,0.38547,0.92383,0.92157
5.568,0,0.61584,0.50985,0.64062,0.88039
5.576,0,0.61388,0.60468,0.43555,0.83529
5.584,0,0.60997,0.44951,0.50586,0.86078
5.592,0,0.60606,0.60468,0.6543,0.6549
5.6,0,0.6002,0.63547,0.81055,0.61961
5.608,0,0.59335,0.52956,0.91406,0.69608
5.616,0,0.58553,0.50985,0.94922,0.70588
5.624,0,0.57576,0.50493,0.95898,0.71569
5.632,0.00097752,0.56598,0.51478,0.96484,0.7098
5.64,0.0029325,0.55523,0.50985,0.96875,0.71569
5.648,0.0058651,0.54643,0.50493,0.96875,0.71569
5.656,0.0087977,0.53763,0.50985,0.96484,0.72157
5.664,0.01173,0.52981,0.51478,0.96875,0.71569
5.672,0.014663,0.52395,0.50985,0.96875,0.7098
5.68,0.017595,0.51808,0.52463,0.96875,0.70588
5.688,0.020528,0.51222,0.52463,0.96875,0.7098
5.696,0.02346,0.50635,0.52956,0.96875,0.7
5.704,0.02737,0.49951,0.53941,0.96875,0.7
5.712,0.031281,0.49365,0.54557,0.96484,0.7
5.72,0.035191,0.48778,0.53941,0.96484,0.7
5.728,0.040078,0.48192,0.55049,0.96484,0.69608
5.736,0.045943,0.47703,0.55542,0.96484,0.6902
5.744,0.050831,0.47214,0.56034,0.96484,0.69608
5.752,0.055718,0.46823,0.5702,0.96484,0.6902
5.76,0.060606,0.46432,0.57512,0.96484,0.68627
5.768,0.066471,0.46041,0.57512,0.96875,0.68627
5.776,0.071359,0.45748,0.58005,0.96875,0.68627
5.784,0.077224,0.45455,0.58498,0.96875,0.6902
5.792,0.083089,0.45161,0.58498,0.96875,0.69608
5.8,0.088954,0.44868,0.59483,0.96875,0.69608
5.808,0.093842,0.44966,0.60468,0.98047,0.6902
5.816,0.098729,0.45161,0.58498,0.97461,0.7098
5.824,0.10264,0.45064,0.58005,0.96875,0.72549
5.832,0.10655,0.44966,0.57512,0.96875,0.73137
5.84,0.11046,0.4477,0.5702,0.96484,0.7451
5.848,0.11437,0.44575,0.55542,0.94922,0.75098
5.856,0.1173,0.44379,0.54557,0.94531,0.76667
5.864,0.12023,0.44184,0.53941,0.94531,0.77059
5.872,0.12121,0.43891,0.5197,0.93555,0.78039
5.88,0.12121,0.43597,0.50985,0.92383,0.79608
5.888,0.12023,0.43109,0.5,0.91992,0.7902
5.896,0.11926,0.4262,0.4803,0.91016,0.81176
5.904,0.11828,0.42033,0.4803,0.9043,0.81176
5.912,0.11632,0.41642,0.4803,0.90039,0.80588
5.92,0.11437,0.41153,0.47537,0.90039,0.8
5.928,0.11241,0.40665,0.48522,0.90039,0.79608
5.936,0.1085,0.40078,0.49015,0.90039,0.78627
5.944,0.10459,0.39492,0.49507,0.9043,0.77647
5.952,0.098729,0.38905,0.50493,0.91016,0.77059
5.96,0.092864,0.38514,0.5,0.9043,0.77059
5.968,0.086022,0.38221,0.50985,0.91016,0.76078
5.976,0.080156,0.38025,0.51478,0.91406,0.7549
5.984,0.073314,0.3783,0.50985,0.91016,0.76078
5.992,0.066471,0.37634,0.51478,0.91406,0.75098
6,0.060606,0.37537,0.52463,0.91406,0.74118
6.008,0.054741,0.37341,0.52956,0.91016,0.74118
6.016,0.049853,0.37146,0.52956,0.9043,0.73529
6.024,0.045943,0.36852,0.52463,0.90039,0.7451
6.032,0.041056,0.36657,0.52956,0.90039,0.74118
6.04,0.036168,0.36461,0.52463,0.90039,0.7451
6.048,0.031281,0.36266,0.5197,0.89453,0.75098
6.056,0.026393,0.36266,0.52463,0.90039,0.75098
6.064,0.022483,0.36461,0.52463,0.89453,0.75098
6.072,0.01955,0.36852,0.52463,0.90039,0.75098
6.08,0.017595,0.37634,0.52463,0.89453,0.75098
6.088,0.014663,0.38807,0.52463,0.89453,0.76078
6.096,0.013685,0.40371,0.55049,0.90039,0.75098
6.104,0.012708,0.42424,0.5702,0.89453,0.7451
6.112,0.01173,0.44673,0.59975,0.86914,0.72549
6.12,0.010753,0.47116,0.59483,0.85547,0.73137
6.128,0.010753,0.4956,0.59483,0.85938,0.73137
6.136,0.010753,0.51906,0.5702,0.85938,0.75098
6.144,0.010753,0.54057,0.55542,0.86523,0.7549
6.152,0.01173,0.56109,0.57512,0.86523,0.7451
6.16,0.012708,0.57967,0.53941,0.87891,0.7549
6.168,0.013685,0.59433,0.50493,0.90039,0.76667
6.176,0.014663,0.60606,0.5,0.90039,0.7549
6.184,0.016618,0.61779,0.49507,0.9043,0.76078
6.192,0.018573,0.62757,0.49015,0.9043,0.76078
6.2,0.020528,0.63539,0.49507,0.91406,0.7549
6.208,0.02346,0.64125,0.49015,0.91406,0.76078
6.216,0.025415,0.64614,0.49507,0.91406,0.76078
6.224,0.028348,0.65005,0.4803,0.91992,0.77059
6.232,0.031281,0.65298,0.48522,0.91992,0.76078
6.24,0.034213,0.65494,0.47537,0.92383,0.76667
6.248,0.037146,0.65689,0.49015,0.92383,0.7549
6.256,0.040078,0.65689,0.47044,0.93945,0.78039
6.264,0.043011,0.65591,0.41502,1.0645,0.85686
6.272,0.046921,0.65298,0.35468,0.98047,0.93137
6.28,0.050831,0.64907,0.4298,0.7207,0.94706
6.288,0.054741,0.64418,0.57512,0.48438,0.87059
6.296,0.058651,0.6393,0.46059,0.46484,0.86667
6.304,0.061584,0.63343,0.56527,0.65039,0.68627
6.312,0.065494,0.62757,0.63547,0.79492,0.61569
6.32,0.069404,0.62072,0.55542,0.91406,0.67647
6.328,0.074291,0.61193,0.5197,0.95898,0.7
6.336,0.079179,0.60215,0.50985,0.96875,0.7
6.344,0.084066,0.59042,0.5197,0.96875,0.7
6.352,0.089932,0.57967,0.52463,0.97461,0.70588
6.36,0.095797,0.56891,0.52463,0.97461,0.7
6.368,0.10264,0.55914,0.52463,0.97461,0.7
6.376,0.10948,0.55034,0.52956,0.98047,0.7
6.384,0.11632,0.54154,0.53448,0.98047,0.6902
6.392,0.12317,0.53177,0.52956,0.98047,0.69608
6.4,0.13099,0.52395,0.53941,0.98047,0.68627
6.408,0.13881,0.51613,0.52956,0.98047,0.7
6.416,0.14956,0.50929,0.54557,0.97461,0.6902
6.424,0.15934,0.50244,0.55049,0.97461,0.6902
6.432,0.17204,0.49658,0.54557,0.98047,0.6902
6.44,0.18475,0.48974,0.54557,0.97461,0.69608
6.448,0.19941,0.48387,0.55049,0.97461,0.68627
6.456,0.21408,0.47898,0.55542,0.97461,0.68039
6.464,0.22972,0.47507,0.56034,0.97461,0.68627
6.472,0.24633,0.47214,0.56527,0.96875,0.68627
6.48,0.26197,0.46725,0.57512,0.96875,0.67647
6.488,0.27761,0.46237,0.5899,0.97461,0.67647
6.496,0.29228,0.45748,0.59483,0.97461,0.67059
6.504,0.30694,0.45259,0.59483,0.97461,0.68039
6.512,0.32258,0.44868,0.5899,0.98047,0.68627
6.52,0.33724,0.44477,0.5899,0.98047,0.6902
6.528,0.35288,0.44184,0.59483,0.98047,0.69608
6.536,0.36852,0.43793,0.5899,0.97461,0.70588
6.544,0.38221,0.43402,0.57512,0.96875,0.72549
6.552,0.39589,0.42815,0.56527,0.96484,0.73137
6.56,0.40762,0.42326,0.56034,0.95898,0.74118
6.568,0.42033,0.41838,0.55049,0.95508,0.75098
6.576,0.43109,0.41447,0.53941,0.94531,0.76078
6.584,0.44282,0.41056,0.52463,0.92969,0.77059
6.592,0.45357,0.40665,0.51478,0.91992,0.78039
6.6,0.46432,0.40371,0.50493,0.91016,0.7902
6.608,0.47312,0.40078,0.5,0.9043,0.79608
6.616,0.48192,0.39589,0.5,0.9043,0.7902
6.624,0.48876,0.39101,0.5,0.90039,0.78627
6.632,0.4956,0.38612,0.49507,0.90039,0.78627
6.64,0.50147,0.38221,0.5,0.90039,0.78039
6.648,0.50733,0.37732,0.5,0.9043,0.77059
6.656,0.51222,0.37243,0.50985,0.9043,0.76078
6.664,0.51711,0.3695,0.52956,0.9043,0.7451
6.672,0.52102,0.36657,0.5197,0.91016,0.75098
6.68,0.52493,0.36266,0.52463,0.91406,0.75098
6.688,0.52786,0.35973,0.52956,0.91406,0.74118
6.696,0.53079,0.35582,0.53941,0.91406,0.73137
6.704,0.53372,0.35288,0.54557,0.92383,0.72549
6.712,0.53666,0.34897,0.53448,0.92383,0.73137
6.72,0.53959,0.34506,0.53448,0.92383,0.73529
6.728,0.5435,0.34115,0.54557,0.92383,0.72549
6.736,0.54741,0.33724,0.55049,0.91992,0.72549
6.744,0.55132,0.33333,0.54557,0.91992,0.72549
6.752,0.55621,0.3304,0.55049,0.91406,0.72549
6.76,0.56109,0.32942,0.54557,0.91992,0.72157
6.768,0.56696,0.32845,0.55049,0.91406,0.72549
6.776,0.57283,0.3304,0.54557,0.91406,0.72549
6.784,0.57869,0.33431,0.55542,0.91016,0.72157
6.792,0.58553,0.34115,0.56034,0.91016,0.72549
6.8,0.59238,0.35288,0.58498,0.91406,0.7098
6.808,0.59922,0.36852,0.61453,0.91406,0.7
6.816,0.60606,0.38807,0.62438,0.88477,0.69608
6.824,0.6129,0.40958,0.63547,0.86914,0.6902
6.832,0.62072,0.43304,0.64532,0.86914,0.68627
6.84,0.62952,0.45552,0.61453,0.86914,0.70588
6.848,0.63832,0.47703,0.60468,0.875,0.70588
6.856,0.64809,0.49756,0.60961,0.875,0.71569
6.864,0.65787,0.51417,0.57512,0.88477,0.72157
6.872,0.66667,0.52884,0.54557,0.90039,0.73137
6.88,0.67644,0.54545,0.53448,0.90039,0.72549
6.888,0.68622,0.56012,0.52463,0.91016,0.73137
6.896,0.69697,0.5738,0.52463,0.91016,0.73137
6.904,0.70772,0.58651,0.5197,0.91016,0.73529
6.912,0.72043,0.59922,0.51478,0.91016,0.7451
6.92,0.73314,0.60899,0.51478,0.91016,0.74118
6.928,0.74682,0.61877,0.51478,0.91406,0.74118
6.936,0.76051,0.62659,0.50493,0.91406,0.75098
6.944,0.77517,0.63148,0.50985,0.91992,0.7451
6.952,0.78983,0.63441,0.51478,0.91992,0.74118
6.96,0.80254,0.63636,0.49507,0.93945,0.76078
6.968,0.81623,0.63539,0.44951,1.0488,0.83137
6.976,0.82893,0.63441,0.38054,0.98047,0.91569
6.984,0.84164,0.63343,0.47044,0.73438,0.92549
6.992,0.85533,0.6305,0.65025,0.53906,0.80588
7,0.86901,0.62757,0.55049,0.5293,0.7902
7.008,0.88368,0.62366,0.61946,0.70508,0.65098
7.016,0.89834,0.61975,0.66502,0.80469,0.6
7.024,0.91105,0.61486,0.57512,0.9043,0.67059
7.032,0.92473,0.60802,0.53941,0.94531,0.6902
7.04,0.93744,0.6002,0.53941,0.95508,0.69608
7.048,0.95015,0.5914,0.52956,0.96484,0.69608
7.056,0.96383,0.58065,0.52463,0.96484,0.7
7.064,0.97849,0.57185,0.54557,0.96484,0.68627
7.072,0.98925,0.56305,0.55049,0.96875,0.68039
7.08,1,0.55425,0.53448,0.96875,0.7
7.088,1,0.54643,0.54557,0.96484,0.69608
7.096,1,0.53763,0.55049,0.96484,0.6902
7.104,1,0.52786,0.55542,0.96484,0.68039
7.112,1,0.51808,0.55049,0.96875,0.68627
7.12,1,0.51026,0.55542,0.95898,0.6902
7.128,1,0.5044,0.56527,0.95898,0.68039
7.136,1,0.49853,0.57512,0.95898,0.67647
7.144,1,0.49365,0.57512,0.96484,0.67647
7.152,1,0.48876,0.58498,0.95508,0.68039
7.16,1,0.48485,0.58005,0.96484,0.68039
7.168,1,0.48094,0.59483,0.96484,0.67647
7.176,1,0.47801,0.59483,0.95898,0.67647
7.184,1,0.4741,0.59975,0.96484,0.67059
7.192,1,0.47019,0.59975,0.95898,0.67647
7.2,1,0.46628,0.60961,0.96484,0.67059
7.208,1,0.46237,0.61453,0.96484,0.67647
7.216,1,0.45846,0.60468,0.96484,0.68039
7.224,1,0.45455,0.61453,0.96484,0.68627
7.232,1,0.45064,0.59975,0.96875,0.68039
7.24,1,0.44868,0.59483,0.96484,0.7
7.248,1,0.44575,0.59483,0.95508,0.7098
7.256,1,0.44282,0.58005,0.94922,0.72549
7.264,1,0.44086,0.56527,0.94531,0.74118
7.272,1,0.43891,0.56034,0.93945,0.75098
7.28,1,0.43695,0.55049,0.92383,0.75098
7.288,1,0.435,0.55049,0.91992,0.76078
7.296,1,0.43206,0.52463,0.91016,0.77647
7.304,1,0.42717,0.50985,0.9043,0.78627
7.312,1,0.42229,0.50985,0.90039,0.7902
7.32,1,0.4174,0.51478,0.89453,0.78039
7.328,1,0.41251,0.52463,0.89453,0.77059
7.336,1,0.40762,0.52463,0.88867,0.77059
7.344,1,0.40371,0.52956,0.89453,0.76078
7.352,1,0.3998,0.53941,0.89453,0.75098
7.36,1,0.39492,0.54557,0.89453,0.74118
7.368,1,0.39101,0.56034,0.89453,0.72549
7.376,1,0.38905,0.55542,0.89453,0.73137
7.384,1,0.38514,0.55542,0.89453,0.72549
7.392,1,0.38123,0.56034,0.89453,0.72549
7.4,1,0.37732,0.56034,0.89453,0.72157
7.408,1,0.37341,0.57512,0.89453,0.7098
7.416,1,0.3695,0.57512,0.89453,0.7098
7.424,1,0.36559,0.58005,0.89453,0.71569
7.432,1,0.36168,0.58498,0.88867,0.7098
7.44,1,0.35777,0.57512,0.88477,0.72549
7.448,1,0.35386,0.5702,0.88477,0.72549
7.456,1,0.35191,0.56034,0.88867,0.72549
7.464,1,0.35093,0.56527,0.89453,0.72549
7.472,1,0.35191,0.5702,0.89453,0.72549
7.48,1,0.35288,0.56527,0.89453,0.72549
7.488,1,0.35582,0.56527,0.88867,0.72549
7.496,1,0.36364,0.57512,0.88867,0.72549
7.504,1,0.37439,0.60468,0.89453,0.70588
7.512,1,0.38905,0.62438,0.88477,0.7
7.52,1,0.40567,0.64532,0.85938,0.69608
7.528,1,0.4262,0.65517,0.84375,0.7
7.536,1,0.44673,0.6601,0.84375,0.6902
7.544,1,0.46921,0.63054,0.85547,0.70588
7.552,1,0.49071,0.61946,0.85547,0.7098
7.56,1,0.51124,0.63547,0.85547,0.7
7.568,1,0.52884,0.59975,0.86523,0.72157
7.576,1,0.5435,0.5702,0.88477,0.72549
7.584,1,0.55914,0.54557,0.88477,0.73137
7.592,1,0.57283,0.54557,0.88867,0.73137
7.6,1,0.58651,0.55049,0.88867,0.72549
7.608,1,0.59922,0.53941,0.88867,0.74118
7.616,1,0.60997,0.53448,0.88867,0.74118
7.624,1,0.61975,0.52956,0.88867,0.7451
7.632,1,0.62757,0.52956,0.88867,0.7451
7.64,1,0.63343,0.53448,0.89453,0.74118
7.648,1,0.63734,0.53448,0.89453,0.73529
7.656,1,0.6393,0.54557,0.89453,0.73137
7.664,1,0.63832,0.5197,0.92969,0.76078
7.672,1,0.63636,0.46552,1.0254,0.83137
7.68,1,0.63539,0.42488,0.9043,0.90196
7.688,1,0.63441,0.53941,0.66016,0.86667
7.696,1,0.63343,0.6601,0.48047,0.79608
7.704,1,0.6305,0.50493,0.56055,0.81176
7.712,1,0.62757,0.64039,0.68555,0.63529
7.72,1,0.62268,0.67488,0.80469,0.59608
7.728,1,0.61584,0.57512,0.89453,0.67059
7.736,1,0.60802,0.55049,0.92383,0.7
7.744,0.99413,0.59922,0.54557,0.93555,0.69608
7.752,0.98729,0.59042,0.53941,0.93945,0.7
7.76,0.97458,0.58162,0.55049,0.94531,0.6902
7.768,0.96285,0.57283,0.55049,0.94531,0.69608
7.776,0.95112,0.565,0.55049,0.94531,0.7
7.784,0.94037,0.55621,0.55542,0.93945,0.6902
7.792,0.92962,0.54741,0.55542,0.93945,0.6902
7.8,0.91887,0.53763,0.56034,0.93945,0.68627
7.808,0.90909,0.52786,0.5702,0.93945,0.68039
7.816,0.89932,0.51906,0.5702,0.93945,0.68039
7.824,0.89052,0.51222,0.56527,0.94531,0.68627
7.832,0.88172,0.50635,0.57512,0.93945,0.68039
7.84,0.8739,0.50147,0.5702,0.93945,0.6902
7.848,0.86608,0.49756,0.57512,0.93945,0.68039
7.856,0.85826,0.49462,0.58005,0.93555,0.68627
7.864,0.85044,0.49365,0.58498,0.93945,0.68627
7.872,0.84262,0.49169,0.5899,0.94531,0.68039
7.88,0.8348,0.48876,0.59975,0.94531,0.67647
7.888,0.82698,0.48583,0.60468,0.94531,0.67647
7.896,0.81916,0.48192,0.59975,0.94531,0.68039
7.904,0.81134,0.47898,0.59975,0.94531,0.68039
7.912,0.80254,0.47507,0.60961,0.95508,0.6902
7.92,0.79472,0.47116,0.60961,0.95508,0.6902
7.928,0.78788,0.46725,0.61946,0.94922,0.68627
7.936,0.78006,0.46334,0.61946,0.95508,0.69608
7.944,0.77224,0.46041,0.61946,0.94922,0.7
7.952,0.76344,0.45748,0.59483,0.94531,0.72157
7.96,0.75367,0.45552,0.5899,0.93945,0.72549
7.968,0.74291,0.45357,0.58498,0.92969,0.73137
7.976,0.73314,0.45064,0.56527,0.92383,0.75098
7.984,0.72239,0.44673,0.55049,0.91992,0.77059
7.992,0.71163,0.44282,0.54557,0.9043,0.77059
8,0.6999,0.43793,0.52463,0.90039,0.78627
8.008,0.68915,0.43402,0.52463,0.89453,0.7902
8.016,0.67546,0.43011,0.5197,0.88477,0.78627
8.024,0.66178,0.4262,0.51478,0.875,0.7902
8.032,0.64614,0.42229,0.51478,0.875,0.79608
8.04,0.62952,0.41838,0.52463,0.875,0.77647
8.048,0.61095,0.41544,0.52463,0.875,0.77059
8.056,0.5914,0.41153,0.52956,0.875,0.76078
8.064,0.56989,0.4086,0.54557,0.875,0.75098
8.072,0.54839,0.40665,0.55049,0.875,0.75098
8.08,0.52884,0.40274,0.55049,0.875,0.7451
8.088,0.50831,0.39883,0.55049,0.87891,0.73529
8.096,0.48876,0.39492,0.55049,0.88477,0.73529
8.104,0.46921,0.39101,0.55049,0.88477,0.73529
8.112,0.44868,0.3871,0.56034,0.88867,0.72549
8.12,0.42717,0.38319,0.5702,0.88867,0.72549
8.128,0.40567,0.38025,0.5702,0.88477,0.72157
8.136,0.38319,0.37634,0.5702,0.88867,0.72549
8.144,0.36364,0.37243,0.57512,0.88477,0.72157
8.152,0.34311,0.36852,0.5702,0.88477,0.72549
8.16,0.32454,0.36559,0.57512,0.88867,0.71569
8.168,0.30694,0.36364,0.57512,0.88867,0.72157
8.176,0.28837,0.36364,0.57512,0.88477,0.72157
8.184,0.26979,0.36559,0.57512,0.88477,0.72157
8.192,0.25122,0.37048,0.58005,0.88867,0.7098
8.2,0.23265,0.3783,0.5702,0.88477,0.72157
8.208,0.21408,0.39003,0.57512,0.88867,0.72549
8.216,0.1955,0.40567,0.5899,0.88867,0.7098
8.224,0.17791,0.42424,0.61453,0.88867,0.7
8.232,0.16031,0.44575,0.63547,0.87891,0.69608
8.24,0.14565,0.46823,0.65517,0.85547,0.6902
8.248,0.13099,0.48974,0.6601,0.84961,0.6902
8.256,0.11926,0.51026,0.65025,0.84961,0.69608
8.264,0.10655,0.52688,0.62438,0.84961,0.70588
8.272,0.095797,0.54154,0.61946,0.85547,0.7098
8.28,0.084066,0.55718,0.64039,0.84961,0.69608
8.288,0.074291,0.57087,0.59483,0.86914,0.71569
8.296,0.064516,0.58456,0.56527,0.88477,0.72549
8.304,0.055718,0.59629,0.55542,0.88867,0.72157
8.312,0.047898,0.60802,0.55049,0.88867,0.71569
8.32,0.041056,0.61877,0.53941,0.88477,0.72549
8.328,0.035191,0.62757,0.54557,0.88477,0.72549
8.336,0.029326,0.63441,0.53941,0.88867,0.72549
8.344,0.02346,0.64125,0.53941,0.88867,0.72549
8.352,0.018573,0.64614,0.53941,0.89453,0.72549
8.36,0.013685,0.64907,0.53448,0.88867,0.72549
8.368,0.0087977,0.65005,0.54557,0.89453,0.72549
8.376,0.0048876,0.65005,0.53941,0.90039,0.72549
8.384,0.001955,0.64907,0.5197,0.93945,0.7549
8.392,0,0.64712,0.46552,1.0352,0.83137
8.4,0,0.64516,0.42488,0.88477,0.90196
8.408,0,0.64223,0.56034,0.60938,0.85686
8.416,0,0.6393,0.64532,0.44531,0.82157
8.424,0,0.63441,0.47537,0.5293,0.8451
8.432,0,0.62757,0.64532,0.66992,0.62941
8.44,0,0.62072,0.6601,0.81445,0.60588
8.448,0,0.6129,0.55542,0.91406,0.67647
8.456,0,0.60508,0.54557,0.94531,0.6902
8.464,0,0.59726,0.55049,0.94922,0.68039
8.472,0,0.58847,0.54557,0.95508,0.6902
8.48,0,0.57869,0.54557,0.95508,0.69608
8.488,0,0.56891,0.54557,0.95508,0.69608
8.496,0,0.56012,0.55049,0.95898,0.68627
8.504,0,0.55034,0.55049,0.95508,0.69608
8.512,0,0.54057,0.55049,0.95508,0.69608
8.52,0,0.53177,0.55049,0.94922,0.6902
8.528,0.001955,0.52493,0.55542,0.95508,0.68627
8.536,0.0048876,0.51906,0.56034,0.94922,0.68627
8.544,0.0087977,0.5132,0.55049,0.94922,0.68627
8.552,0.013685,0.50831,0.5702,0.94922,0.67647
8.56,0.017595,0.5044,0.57512,0.94922,0.67647
8.568,0.021505,0.50147,0.57512,0.94922,0.67647
8.576,0.026393,0.49756,0.58498,0.95508,0.67647
8.584,0.030303,0.49365,0.58498,0.94922,0.68039
8.592,0.035191,0.48974,0.59483,0.94922,0.67647
8.6,0.040078,0.4868,0.59483,0.94922,0.67059
8.608,0.044966,0.48289,0.60468,0.95508,0.66471
8.616,0.050831,0.47996,0.60961,0.95508,0.67647
8.624,0.055718,0.47605,0.60961,0.95898,0.67647
8.632,0.060606,0.47312,0.61946,0.95898,0.67647
8.64,0.064516,0.46921,0.62438,0.96875,0.67647
8.648,0.069404,0.4653,0.61946,0.96484,0.68627
8.656,0.073314,0.46139,0.61453,0.96484,0.7
8.664,0.077224,0.45846,0.60961,0.95898,0.70588
8.672,0.080156,0.4565,0.60961,0.95508,0.7098
8.68,0.083089,0.45357,0.59975,0.94531,0.72157
8.688,0.085044,0.45064,0.58498,0.93945,0.74118
8.696,0.086999,0.4477,0.5702,0.93555,0.75098
8.704,0.086999,0.44379,0.55542,0.92383,0.76078
8.712,0.086999,0.44086,0.55049,0.91992,0.76667
8.72,0.086999,0.43793,0.53448,0.91016,0.78039
8.728,0.086022,0.435,0.52463,0.90039,0.7902
8.736,0.085044,0.43109,0.5197,0.90039,0.78627
8.744,0.084066,0.42717,0.51478,0.89453,0.79608
8.752,0.081134,0.42326,0.50493,0.87891,0.79608
8.76,0.078201,0.42033,0.51478,0.87891,0.78039
8.768,0.073314,0.4174,0.5197,0.87891,0.77059
8.776,0.068426,0.41447,0.52463,0.88477,0.77059
8.784,0.062561,0.41153,0.53448,0.88477,0.7549
8.792,0.057674,0.40762,0.53941,0.88867,0.7549
8.8,0.051808,0.40371,0.52956,0.89453,0.75098
8.808,0.045943,0.3998,0.53941,0.90039,0.74118
8.816,0.039101,0.39492,0.54557,0.89453,0.75098
8.824,0.033236,0.39101,0.53448,0.89453,0.74118
8.832,0.025415,0.3871,0.55049,0.89453,0.73137
8.84,0.017595,0.38416,0.55542,0.90039,0.73529
8.848,0.010753,0.38123,0.56034,0.89453,0.72549
8.856,0.0029325,0.3783,0.5702,0.88867,0.72157
8.864,0.00097752,0.37634,0.5702,0.88867,0.71569
8.872,0,0.37439,0.56527,0.88867,0.71569
8.88,0,0.37341,0.5702,0.88867,0.72157
8.888,0,0.37243,0.56034,0.88477,0.72549
8.896,0,0.37341,0.5702,0.88477,0.72157
8.904,0,0.37537,0.5702,0.87891,0.72157
8.912,0,0.38025,0.57512,0.88477,0.72157
8.92,0,0.38905,0.5702,0.88867,0.72549
8.928,0,0.40176,0.57512,0.88867,0.72157
8.936,0,0.41838,0.59483,0.88867,0.70588
8.944,0,0.43695,0.61946,0.88477,0.69608
8.952,0,0.4565,0.65025,0.86523,0.68627
8.96,0,0.47507,0.64532,0.84375,0.7
8.968,0,0.49365,0.64532,0.84961,0.7
8.976,0,0.5132,0.63547,0.84961,0.69608
8.984,0,0.53372,0.60961,0.85547,0.71569
8.992,0,0.55425,0.64039,0.84961,0.69608
9,0,0.57283,0.60961,0.85938,0.68627
9.008,0,0.58944,0.5702,0.88477,0.72157
9.016,0,0.60313,0.56034,0.88867,0.7098
9.024,0,0.61584,0.55049,0.90039,0.71569
9.032,0,0.62561,0.54557,0.89453,0.72549
9.04,0,0.63343,0.53448,0.89453,0.73137
9.048,0,0.64027,0.53941,0.90039,0.73137
9.056,0,0.64712,0.53448,0.90039,0.72549
9.064,0,0.652,0.53941,0.90039,0.73137
9.072,0,0.65494,0.53941,0.90039,0.73137
9.08,0,0.65787,0.53941,0.90039,0.73137
9.088,0,0.65982,0.53941,0.90039,0.73137
9.096,0,0.66276,0.53941,0.91406,0.73529
9.104,0,0.66373,0.48522,1.0098,0.8
9.112,0,0.66471,0.4298,1.0391,0.87647
9.12,0,0.66373,0.42488,0.75391,0.90196
9.128,0,0.6608,0.63547,0.48047,0.82549
9.136,0,0.65689,0.52956,0.41992,0.85098
9.144,0,0.65005,0.47537,0.57422,0.73529
9.152,0,0.64223,0.65025,0.73047,0.61961
9.16,0,0.63539,0.57512,0.86914,0.67059
9.168,0.0029325,0.62854,0.53448,0.92383,0.7
9.176,0.0068426,0.6217,0.52956,0.94531,0.7098
9.184,0.0097752,0.61388,0.52956,0.94922,0.70588
9.192,0.013685,0.60411,0.52463,0.95508,0.7098
9.2,0.016618,0.59433,0.5197,0.95508,0.71569
9.208,0.020528,0.58358,0.5197,0.95508,0.72549
9.216,0.02346,0.5738,0.52463,0.95508,0.71569
9.224,0.02737,0.565,0.5197,0.95898,0.71569
9.232,0.030303,0.55718,0.52956,0.95898,0.71569
9.24,0.034213,0.54936,0.52956,0.96484,0.70588
9.248,0.039101,0.5435,0.52956,0.96875,0.70588
9.256,0.043011,0.53666,0.53448,0.96484,0.7
9.264,0.047898,0.52981,0.53941,0.96484,0.7
9.272,0.052786,0.52395,0.55049,0.96484,0.7
9.28,0.058651,0.51711,0.55049,0.96484,0.70588
9.288,0.064516,0.51124,0.55049,0.96484,0.7
9.296,0.070381,0.50635,0.56034,0.96484,0.69608
9.304,0.076246,0.50244,0.56527,0.96484,0.6902
9.312,0.082111,0.49756,0.5702,0.96875,0.69608
9.32,0.087977,0.49365,0.57512,0.96875,0.6902
9.328,0.094819,0.48974,0.58005,0.96875,0.6902
9.336,0.10166,0.4868,0.5899,0.96875,0.68627
9.344,0.1085,0.48387,0.59483,0.96875,0.67647
9.352,0.11632,0.47996,0.59483,0.96875,0.6902
9.36,0.12219,0.47703,0.59483,0.96875,0.6902
9.368,0.12805,0.4741,0.59483,0.96875,0.7
9.376,0.13294,0.47116,0.59483,0.96875,0.71569
9.384,0.13783,0.46725,0.5899,0.97461,0.71569
9.392,0.14174,0.46334,0.57512,0.96484,0.72549
9.4,0.14565,0.45943,0.56527,0.95898,0.74118
9.408,0.14858,0.45455,0.56034,0.94922,0.75098
9.416,0.15249,0.44868,0.55049,0.94531,0.76078
9.424,0.15445,0.44379,0.53448,0.93945,0.76667
9.432,0.15738,0.43793,0.50493,0.92969,0.7902
9.44,0.15836,0.43304,0.5,0.92383,0.79608
9.448,0.16031,0.42815,0.49507,0.91406,0.79608
9.456,0.16031,0.42424,0.48522,0.9043,0.8
9.464,0.16129,0.42229,0.4803,0.90039,0.80588
9.472,0.16031,0.42033,0.4803,0.90039,0.79608
9.48,0.16031,0.41838,0.48522,0.90039,0.7902
9.488,0.15836,0.41447,0.49015,0.90039,0.78039
9.496,0.1564,0.41056,0.5,0.9043,0.77059
9.504,0.15445,0.40469,0.51478,0.91016,0.7549
9.512,0.15152,0.3998,0.5197,0.91016,0.75098
9.52,0.14956,0.39589,0.50493,0.91406,0.76078
9.528,0.14761,0.39198,0.5197,0.91406,0.7451
9.536,0.14565,0.38807,0.52463,0.91992,0.74118
9.544,0.14467,0.38416,0.53448,0.91992,0.73137
9.552,0.1437,0.38123,0.53941,0.91992,0.72549
9.56,0.14272,0.38025,0.54557,0.91992,0.72157
9.568,0.14174,0.3783,0.55049,0.91406,0.71569
9.576,0.14174,0.37537,0.55049,0.91992,0.71569
9.584,0.14272,0.37146,0.54557,0.91992,0.72549
9.592,0.1437,0.36852,0.55049,0.91406,0.71569
9.6,0.14467,0.36461,0.55542,0.91406,0.7098
9.608,0.14663,0.36266,0.56034,0.91016,0.71569
9.616,0.14956,0.36266,0.55542,0.91016,0.71569
9.624,0.15249,0.36461,0.55542,0.91406,0.72157
9.632,0.15738,0.37048,0.55049,0.91016,0.72157
9.64,0.16227,0.37928,0.57512,0.9043,0.7098
9.648,0.16716,0.39296,0.59975,0.91016,0.7
9.656,0.17302,0.40665,0.61946,0.91406,0.69608
9.664,0.17986,0.42131,0.64532,0.875,0.68627
9.672,0.18671,0.43891,0.64532,0.86523,0.68039
9.68,0.19355,0.45748,0.64532,0.86523,0.6902
9.688,0.20039,0.47801,0.61946,0.86914,0.70588
9.696,0.20821,0.49756,0.61946,0.86914,0.7
9.704,0.21505,0.51613,0.61946,0.875,0.7
9.712,0.22385,0.5347,0.58498,0.88477,0.7098
9.72,0.23265,0.55132,0.55049,0.90039,0.72549
9.728,0.24242,0.56696,0.53448,0.9043,0.72157
9.736,0.2522,0.57967,0.52956,0.9043,0.72549
9.744,0.26197,0.59238,0.52463,0.90039,0.72549
9.752,0.27175,0.60313,0.5197,0.91016,0.72549
9.76,0.28055,0.61095,0.52463,0.91016,0.73137
9.768,0.28935,0.61779,0.5197,0.91016,0.72549
9.776,0.3001,0.62366,0.52463,0.91406,0.73529
9.784,0.30987,0.62854,0.52463,0.91992,0.72549
9.792,0.3216,0.63245,0.52463,0.91406,0.72549
9.8,0.33236,0.63539,0.5197,0.91992,0.73529
9.808,0.34506,0.63734,0.49507,0.93945,0.7549
9.816,0.35679,0.63734,0.43966,1.0547,0.83529
9.824,0.3695,0.63734,0.38054,0.99023,0.91569
9.832,0.38221,0.63539,0.46552,0.72461,0.93137
9.84,0.39394,0.63343,0.64039,0.52539,0.82157
9.848,0.40567,0.62952,0.53941,0.50586,0.8
9.856,0.4174,0.62561,0.63547,0.68555,0.63529
9.864,0.42815,0.61975,0.6798,0.79492,0.58431
9.872,0.44086,0.6129,0.58005,0.90039,0.66078
9.88,0.45259,0.60508,0.55049,0.94531,0.68039
9.888,0.4653,0.59629,0.53941,0.94922,0.6902
9.896,0.47703,0.58651,0.55049,0.95508,0.67647
9.904,0.48876,0.5738,0.55049,0.95898,0.68039
9.912,0.50147,0.56012,0.55049,0.95508,0.68627
9.92,0.51222,0.54741,0.55049,0.95898,0.6902
9.928,0.52395,0.53666,0.55049,0.95898,0.68627
9.936,0.53666,0.52688,0.55049,0.95898,0.68039
9.944,0.55034,0.51808,0.56034,0.95898,0.67647
9.952,0.565,0.50929,0.55542,0.95898,0.68627
9.96,0.57967,0.50244,0.56527,0.95898,0.68627
9.968,0.59629,0.49658,0.56527,0.95508,0.68039
9.976,0.6129,0.49071,0.5702,0.95898,0.67647
9.984,0.6305,0.48583,0.57512,0.95898,0.68039
9.992,0.64907,0.48094,0.56527,0.95508,0.68627
10,0.66667,0.47703,0.57512,0.94922,0.68039
10.008,0.68328,0.47214,0.57512,0.95508,0.67647
10.016,0.6999,0.46823,0.58498,0.95898,0.67059
10.024,0.7175,0.46432,0.59483,0.95508,0.67059
10.032,0.73509,0.46041,0.59483,0.95508,0.67059
10.04,0.75367,0.4565,0.59975,0.95898,0.66471
10.048,0.77224,0.45259,0.5899,0.95898,0.68627
10.056,0.79179,0.44966,0.59483,0.96484,0.68039
10.064,0.80841,0.44673,0.59483,0.96484,0.68039
10.072,0.82502,0.44379,0.59975,0.96484,0.6902
10.08,0.84066,0.44086,0.59483,0.95898,0.7
10.088,0.85533,0.43891,0.59975,0.94922,0.69608
10.096,0.87097,0.43695,0.58005,0.94922,0.72157
10.104,0.88563,0.43402,0.5702,0.94531,0.73137
10.112,0.90127,0.43109,0.5702,0.93945,0.73529
10.12,0.91593,0.42717,0.56034,0.92383,0.7451
10.128,0.92962,0.42326,0.53941,0.92383,0.7549
10.136,0.9433,0.41935,0.52463,0.91016,0.77059
10.144,0.95601,0.41544,0.50985,0.9043,0.78039
10.152,0.96774,0.41153,0.5,0.90039,0.7902
10.16,0.97752,0.4086,0.49507,0.90039,0.79608
10.168,0.98729,0.40469,0.5,0.89453,0.78627
10.176,0.99413,0.40078,0.50493,0.88867,0.78039
10.184,1,0.39492,0.50985,0.89453,0.77059
10.192,1,0.38905,0.52463,0.88867,0.76667
10.2,1,0.38416,0.51478,0.88867,0.76078
10.208,1,0.37928,0.52956,0.89453,0.7451
10.216,1,0.37537,0.53448,0.89453,0.7451
10.224,1,0.37146,0.53448,0.89453,0.74118
10.232,1,0.3695,0.53941,0.89453,0.73529
10.24,1,0.36852,0.54557,0.90039,0.73137
10.248,1,0.36755,0.55049,0.89453,0.73137
10.256,1,0.36657,0.55049,0.90039,0.73137
10.264,1,0.36461,0.55542,0.90039,0.72157
10.272,1,0.36266,0.55049,0.90039,0.72549
10.28,1,0.35875,0.55049,0.90039,0.72549
10.288,1,0.35484,0.55049,0.90039,0.72549
10.296,1,0.35191,0.55049,0.89453,0.73137
10.304,1,0.348,0.55049,0.90039,0.72549
10.312,1,0.34409,0.55542,0.89453,0.72549
10.32,1,0.34213,0.55542,0.89453,0.72549
10.328,1,0.34213,0.56527,0.89453,0.71569
10.336,1,0.34506,0.56527,0.88867,0.72549
10.344,1,0.35093,0.58005,0.88867,0.72157
10.352,1,0.36168,0.59975,0.89453,0.7098
10.36,1,0.37341,0.61453,0.88867,0.70588
10.368,1,0.3871,0.64039,0.85938,0.7
10.376,1,0.40371,0.65517,0.84961,0.68627
10.384,1,0.42326,0.6601,0.84961,0.6902
10.392,1,0.44477,0.62438,0.85938,0.70588
10.4,1,0.46725,0.61946,0.85938,0.7098
10.408,1,0.48876,0.63054,0.85547,0.7
10.416,1,0.50831,0.59483,0.875,0.71569
10.424,1,0.52688,0.56527,0.88867,0.72549
10.432,1,0.54448,0.54557,0.89453,0.71569
10.44,1,0.56012,0.54557,0.89453,0.73137
10.448,1,0.5738,0.53941,0.90039,0.72549
10.456,1,0.58456,0.53448,0.90039,0.73529
10.464,1,0.59433,0.52956,0.90039,0.73137
10.472,1,0.60411,0.53448,0.90039,0.73137
10.48,1,0.61193,0.52463,0.90039,0.74118
10.488,1,0.61877,0.52956,0.90039,0.7451
10.496,1,0.62268,0.53941,0.90039,0.72549
10.504,1,0.62659,0.52956,0.90039,0.74118
10.512,1,0.62952,0.50493,0.93555,0.76078
10.52,1,0.6305,0.46552,1.0352,0.83137
10.528,1,0.63148,0.41995,0.92969,0.90588
10.536,1,0.6305,0.52463,0.67969,0.87647
10.544,1,0.62854,0.67488,0.50586,0.78627
10.552,1,0.62561,0.52463,0.58008,0.79608
10.56,1,0.62268,0.64532,0.69922,0.62941
10.568,1,0.61779,0.6798,0.81055,0.5902
10.576,1,0.61193,0.5702,0.89453,0.67647
10.584,1,0.60411,0.54557,0.92969,0.7
10.592,1,0.59629,0.53941,0.93945,0.7
10.6,1,0.58651,0.53941,0.94531,0.7
10.608,1,0.57576,0.53941,0.94531,0.69608
10.616,1,0.56598,0.55049,0.94922,0.6902
10.624,1,0.55523,0.53941,0.94922,0.7
10.632,1,0.54545,0.55049,0.94531,0.69608
10.64,1,0.53568,0.55542,0.94531,0.6902
10.648,1,0.5259,0.55049,0.94531,0.69608
10.656,1,0.51808,0.56034,0.94531,0.68039
10.664,1,0.51124,0.56527,0.94531,0.68627
10.672,1,0.5044,0.56527,0.94531,0.68627
10.68,1,0.49756,0.57512,0.93945,0.68039
10.688,1,0.49169,0.5702,0.93945,0.68627
10.696,1,0.48583,0.57512,0.94531,0.67647
10.704,1,0.48094,0.58005,0.94531,0.68627
10.712,1,0.47507,0.57512,0.94531,0.68039
10.72,1,0.47116,0.5899,0.94531,0.67647
10.728,1,0.46725,0.59483,0.93945,0.67647
10.736,1,0.46237,0.59483,0.93945,0.67647
10.744,1,0.45846,0.59975,0.94531,0.67647
10.752,1,0.45455,0.60468,0.93945,0.68039
10.76,1,0.45161,0.59975,0.94531,0.68039
10.768,1,0.44868,0.60468,0.94531,0.6902
10.776,1,0.44477,0.60468,0.94531,0.7
10.784,1,0.44282,0.60961,0.94531,0.7
10.792,1,0.44086,0.59483,0.94531,0.70588
10.8,1,0.43891,0.58005,0.93555,0.72549
10.808,1,0.43695,0.56527,0.92969,0.7451
10.816,1,0.435,0.54557,0.91992,0.76667
10.824,1,0.43206,0.53448,0.91016,0.77647
10.832,1,0.42815,0.5197,0.90039,0.78627
10.84,1,0.42424,0.5,0.90039,0.80588
10.848,1,0.42033,0.49507,0.89453,0.81176
10.856,1,0.4174,0.4803,0.88867,0.82157
10.864,1,0.41447,0.47537,0.88477,0.82157
10.872,1,0.40958,0.47537,0.88477,0.81569
10.88,1,0.40469,0.4803,0.87891,0.80588
10.888,1,0.39883,0.47537,0.875,0.79608
10.896,0.9824,0.39394,0.49015,0.875,0.7902
10.904,0.96481,0.38807,0.5,0.875,0.78039
10.912,0.94428,0.38416,0.50985,0.875,0.76078
10.92,0.92473,0.38221,0.5197,0.87891,0.75098
10.928,0.90225,0.37928,0.5197,0.88477,0.76667
10.936,0.87977,0.37732,0.52463,0.88477,0.75098
10.944,0.85533,0.37634,0.52956,0.89453,0.7451
10.952,0.83089,0.37537,0.52956,0.89453,0.75098
10.96,0.80841,0.37439,0.53448,0.89453,0.7451
10.968,0.78592,0.37243,0.53448,0.89453,0.73529
10.976,0.7654,0.37048,0.52463,0.88867,0.7451
10.984,0.74389,0.36657,0.52956,0.88867,0.75098
10.992,0.72141,0.36266,0.5197,0.88867,0.7549
11,0.69892,0.35777,0.5197,0.89453,0.75098
11.008,0.67546,0.35386,0.50493,0.89453,0.76667
11.016,0.652,0.34995,0.49507,0.89453,0.77059
11.024,0.62952,0.34897,0.49015,0.89453,0.77059
11.032,0.60802,0.34897,0.49507,0.89453,0.77059
11.04,0.58749,0.35288,0.48522,0.89453,0.77059
11.048,0.56696,0.3607,0.49507,0.90039,0.77059
11.056,0.54545,0.3695,0.50985,0.89453,0.76667
11.064,0.52395,0.38123,0.53941,0.89453,0.7549
11.072,0.50147,0.39589,0.5702,0.89453,0.73529
11.08,0.47898,0.41447,0.59483,0.86523,0.73137
11.088,0.45748,0.43597,0.60961,0.85547,0.72157
11.096,0.435,0.45846,0.61453,0.85938,0.72157
11.104,0.41251,0.48094,0.58498,0.85938,0.74118
11.112,0.39101,0.5044,0.58005,0.86523,0.72549
11.12,0.37146,0.52688,0.60468,0.85938,0.72549
11.128,0.35191,0.54839,0.56527,0.87891,0.73529
11.136,0.33529,0.56891,0.54557,0.90039,0.74118
11.144,0.31769,0.58749,0.53448,0.90039,0.73529
11.152,0.30205,0.60215,0.52463,0.90039,0.74118
11.16,0.28543,0.6129,0.5197,0.90039,0.74118
11.168,0.27077,0.62072,0.52463,0.90039,0.74118
11.176,0.25513,0.62757,0.50985,0.90039,0.75098
11.184,0.24242,0.63148,0.5,0.91406,0.76078
11.192,0.23069,0.63343,0.5,0.91992,0.75098
11.2,0.21994,0.63245,0.49015,0.91406,0.76667
11.208,0.20919,0.62854,0.49507,0.91992,0.76078
11.216,0.19941,0.62268,0.49015,0.91992,0.76667
11.224,0.18964,0.61584,0.46059,0.97461,0.8
11.232,0.18084,0.60802,0.40517,1.0547,0.87647
11.24,0.17107,0.59726,0.37562,0.88867,0.93725
11.248,0.16227,0.58749,0.52463,0.61914,0.8902
11.256,0.15445,0.57967,0.59483,0.47461,0.85098
11.264,0.14565,0.57283,0.46552,0.58008,0.86667
11.272,0.13783,0.56598,0.63054,0.70508,0.63529
11.28,0.13099,0.56012,0.63547,0.83984,0.62549
11.288,0.12512,0.55621,0.5197,0.92969,0.70588
11.296,0.12023,0.55132,0.5197,0.95508,0.7098
11.304,0.11535,0.54643,0.52463,0.96484,0.7098
11.312,0.11046,0.54154,0.51478,0.96484,0.71569
11.32,0.10557,0.53568,0.5197,0.96484,0.72157
11.328,0.10166,0.52884,0.51478,0.96484,0.70588
11.336,0.096774,0.52102,0.52463,0.96484,0.70588
11.344,0.093842,0.51124,0.53448,0.96875,0.7
11.352,0.090909,0.50342,0.53448,0.96484,0.7
11.36,0.088954,0.49462,0.53941,0.96875,0.7
11.368,0.087977,0.48485,0.55049,0.96875,0.69608
11.376,0.086999,0.47312,0.56527,0.96875,0.67647
11.384,0.086999,0.46237,0.56034,0.95898,0.68039
11.392,0.086999,0.45161,0.57512,0.95898,0.67647
11.4,0.086999,0.44086,0.58005,0.96484,0.67647
11.408,0.088954,0.43011,0.5899,0.96484,0.66471
11.416,0.089932,0.41838,0.59483,0.96875,0.66078
11.424,0.091887,0.40665,0.59975,0.96484,0.66078
11.432,0.093842,0.39589,0.59975,0.96875,0.6549
11.44,0.096774,0.38416,0.59483,0.96875,0.66471
11.448,0.099707,0.37341,0.59483,0.96875,0.67647
11.456,0.10264,0.36364,0.59483,0.96875,0.68039
11.464,0.10557,0.35484,0.59483,0.97461,0.68627
11.472,0.1085,0.34506,0.59975,0.97461,0.68627
11.48,0.11241,0.33529,0.60468,0.98047,0.68627
11.488,0.11535,0.32747,0.60961,0.96875,0.6902
11.496,0.11926,0.3216,0.61453,0.96875,0.7
11.504,0.12219,0.31769,0.59483,0.96875,0.71569
11.512,0.12414,0.31476,0.60468,0.95898,0.7098
11.52,0.1261,0.31183,0.59975,0.94922,0.72549
11.528,0.12805,0.30792,0.58498,0.94531,0.74118
11.536,0.12903,0.30205,0.5702,0.93555,0.75098
11.544,0.12903,0.29423,0.57512,0.92969,0.7549
11.552,0.12903,0.28446,0.5702,0.92383,0.7451
11.56,0.12903,0.27273,0.54557,0.91406,0.77059
11.568,0.1261,0.25611,0.54557,0.91016,0.77059
11.576,0.12414,0.23558,0.53941,0.9043,0.76667
11.584,0.12023,0.21212,0.55049,0.90039,0.7549
11.592,0.11632,0.18866,0.56527,0.88867,0.7451
11.6,0.11144,0.16716,0.56527,0.88477,0.74118
11.608,0.10655,0.14858,0.58005,0.88477,0.72157
11.616,0.10068,0.1349,0.58498,0.87891,0.71569
11.624,0.095797,0.12512,0.59483,0.875,0.7
11.632,0.087977,0.12121,0.59483,0.87891,0.70588
11.64,0.080156,0.12023,0.59483,0.875,0.7
11.648,0.070381,0.12317,0.59483,0.87891,0.7
11.656,0.061584,0.12903,0.59975,0.88477,0.7
11.664,0.052786,0.1349,0.59975,0.88477,0.7
11.672,0.044966,0.14174,0.59483,0.88867,0.7
11.68,0.036168,0.14663,0.59483,0.88477,0.7
11.688,0.028348,0.14956,0.5899,0.88477,0.70588
11.696,0.020528,0.14956,0.58498,0.88477,0.70588
11.704,0.01173,0.14663,0.57512,0.88477,0.7098
11.712,0.0058651,0.13978,0.56527,0.88867,0.72157
11.72,0,0.13196,0.55542,0.88477,0.72549
11.728,0,0.12023,0.55542,0.88867,0.72549
11.736,0,0.10753,0.55542,0.88477,0.73137
11.744,0,0.095797,0.55542,0.88477,0.73137
11.752,0,0.086999,0.56034,0.88477,0.73137
11.76,0,0.083089,0.5899,0.88867,0.7098
11.768,0,0.079179,0.59483,0.88867,0.7098
11.776,0,0.079179,0.62438,0.87891,0.7
11.784,0,0.083089,0.64532,0.85547,0.69608
11.792,0,0.092864,0.64532,0.84961,0.7
11.8,0,0.1085,0.65025,0.85547,0.6902
11.808,0,0.12903,0.61946,0.85938,0.70588
11.816,0,0.15445,0.63054,0.86523,0.7
11.824,0,0.1828,0.64532,0.85547,0.68039
11.832,0,0.21408,0.59975,0.875,0.7
11.84,0,0.24633,0.57512,0.88867,0.7
11.848,0,0.27957,0.56034,0.88477,0.72157
11.856,0,0.30792,0.55049,0.88477,0.72549
11.864,0,0.33529,0.55049,0.88867,0.72549
11.872,0,0.36364,0.55049,0.88477,0.72549
11.88,0,0.39198,0.55049,0.88867,0.73137
11.888,0,0.41935,0.53941,0.88477,0.74118
11.896,0,0.44477,0.53941,0.88867,0.74118
11.904,0,0.46921,0.53448,0.88867,0.7451
11.912,0,0.49169,0.54557,0.89453,0.72549
11.92,0,0.5132,0.55049,0.89453,0.74118
11.928,0,0.53177,0.5,0.94922,0.78039
11.936,0,0.54839,0.44458,1.0195,0.86667
11.944,0,0.56109,0.41995,0.84375,0.91569
11.952,0,0.58065,0.59975,0.57031,0.8451
11.96,0,0.60313,0.65517,0.43945,0.82157
11.968,0,0.61584,0.5197,0.54492,0.83529
11.976,0,0.62268,0.69951,0.68555,0.5902
11.984,0,0.62659,0.65517,0.83008,0.58431
11.992,0,0.62952,0.5899,0.91016,0.6549
12,0,0.63245,0.58005,0.93945,0.66078
12.008,0,0.63539,0.58498,0.94531,0.66078
12.016,0,0.63734,0.58005,0.94531,0.66471
12.024,0,0.64027,0.5899,0.94531,0.66078
12.032,0,0.64223,0.5899,0.94531,0.6549
12.04,0,0.64516,0.59483,0.94531,0.6549
12.048,0,0.64712,0.59975,0.94531,0.6549
12.056,0,0.64809,0.59483,0.93945,0.66078
12.064,0.00097752,0.64809,0.60468,0.94531,0.6549
12.072,0.001955,0.64907,0.60961,0.93945,0.65098
12.08,0.0058651,0.65005,0.61946,0.94531,0.64118
12.088,0.0087977,0.65005,0.61946,0.94531,0.6451
12.096,0.01173,0.65005,0.61946,0.94531,0.6451
12.104,0.01564,0.65005,0.60961,0.94531,0.6549
12.112,0.020528,0.65005,0.61453,0.94531,0.6549
12.12,0.025415,0.65103,0.61453,0.94531,0.6549
12.128,0.032258,0.652,0.60961,0.94531,0.66078
12.136,0.038123,0.65494,0.61453,0.94531,0.66078
12.144,0.043988,0.65885,0.61453,0.94531,0.66471
12.152,0.050831,0.66178,0.61946,0.94922,0.66471
12.16,0.057674,0.66667,0.61453,0.94531,0.67647
12.168,0.064516,0.67253,0.60961,0.94531,0.68039
12.176,0.072336,0.67937,0.60961,0.94922,0.68627
12.184,0.080156,0.68524,0.59975,0.95508,0.69608
12.192,0.088954,0.69208,0.59975,0.94922,0.7
12.2,0.096774,0.69697,0.59483,0.95508,0.71569
12.208,0.10557,0.70088,0.59483,0.94922,0.72157
12.216,0.11437,0.70381,0.5899,0.94531,0.73137
12.224,0.12219,0.70674,0.57512,0.93555,0.75098
12.232,0.13099,0.7087,0.56527,0.92969,0.76667
12.24,0.13783,0.71065,0.55049,0.92383,0.77059
12.248,0.14467,0.71163,0.53448,0.91406,0.7902
12.256,0.15054,0.71065,0.52956,0.9043,0.7902
12.264,0.15543,0.7087,0.51478,0.90039,0.8
12.272,0.16031,0.70674,0.50493,0.88867,0.80588
12.28,0.16422,0.70479,0.50493,0.87891,0.8
12.288,0.16813,0.70186,0.50493,0.875,0.79608
12.296,0.17107,0.69795,0.50985,0.875,0.79608
12.304,0.174,0.69501,0.51478,0.875,0.78627
12.312,0.17595,0.69208,0.5197,0.875,0.77647
12.32,0.17791,0.68915,0.52463,0.875,0.76667
12.328,0.17889,0.68719,0.52956,0.87891,0.7549
12.336,0.17791,0.68426,0.54557,0.87891,0.7451
12.344,0.17791,0.68231,0.55542,0.87891,0.73137
12.352,0.17498,0.67937,0.55049,0.87891,0.7451
12.36,0.17204,0.67644,0.56527,0.88477,0.72549
12.368,0.16813,0.67253,0.56527,0.88477,0.72549
12.376,0.1652,0.66764,0.57512,0.88477,0.71569
12.384,0.16031,0.66178,0.57512,0.88867,0.72157
12.392,0.15543,0.65494,0.57512,0.88477,0.72157
12.4,0.15054,0.64809,0.58005,0.88867,0.7098
12.408,0.14565,0.64125,0.58005,0.88477,0.7098
12.416,0.14076,0.63441,0.57512,0.88867,0.71569
12.424,0.13587,0.62757,0.57512,0.88477,0.72157
12.432,0.13001,0.62072,0.57512,0.88867,0.71569
12.44,0.12414,0.61584,0.5702,0.88867,0.72157
12.448,0.1173,0.61193,0.57512,0.89453,0.70588
12.456,0.11046,0.60997,0.56527,0.88867,0.72157
12.464,0.10459,0.60997,0.59975,0.89453,0.7
12.472,0.098729,0.61193,0.61946,0.88477,0.7
12.48,0.092864,0.61584,0.64532,0.86523,0.68627
12.488,0.086999,0.62072,0.64532,0.84961,0.69608
12.496,0.083089,0.62659,0.64532,0.85547,0.7
12.504,0.078201,0.63441,0.62438,0.84961,0.7
12.512,0.074291,0.64125,0.61946,0.85938,0.70588
12.52,0.070381,0.64907,0.63547,0.84961,0.6902
12.528,0.067449,0.65494,0.59483,0.86523,0.71569
12.536,0.064516,0.65982,0.55049,0.88477,0.73137
12.544,0.062561,0.66471,0.55049,0.88867,0.72549
12.552,0.060606,0.66667,0.54557,0.88867,0.72157
12.56,0.060606,0.66862,0.55049,0.88867,0.72157
12.568,0.060606,0.6696,0.54557,0.88867,0.72549
12.576,0.061584,0.66862,0.54557,0.88867,0.72549
12.584,0.063539,0.66862,0.55049,0.90039,0.72157
12.592,0.066471,0.66764,0.53448,0.89453,0.73137
12.6,0.069404,0.66667,0.52956,0.89453,0.73529
12.608,0.074291,0.66569,0.53448,0.90039,0.74118
12.616,0.078201,0.66471,0.53448,0.90039,0.73529
12.624,0.083089,0.66373,0.51478,0.93555,0.76078
12.632,0.087977,0.66178,0.44951,1.0449,0.8451
12.64,0.092864,0.6608,0.39532,0.92969,0.91569
12.648,0.096774,0.65787,0.49507,0.65039,0.8902
12.656,0.10166,0.65494,0.61453,0.43945,0.83137
12.664,0.10655,0.652,0.48522,0.43555,0.83529
12.672,0.11046,0.65005,0.63547,0.64453,0.63529
12.68,0.11535,0.64712,0.6798,0.78906,0.58431
12.688,0.11828,0.64321,0.55542,0.88867,0.68039
12.696,0.12219,0.6393,0.53448,0.93555,0.7
12.704,0.1261,0.63343,0.53941,0.94531,0.7
12.712,0.12903,0.62757,0.53941,0.94922,0.69608
12.72,0.13196,0.6217,0.54557,0.95508,0.69608
12.728,0.1349,0.61486,0.55049,0.95898,0.6902
12.736,0.13783,0.60899,0.55049,0.95898,0.68627
12.744,0.14076,0.60313,0.55049,0.96484,0.68627
12.752,0.14272,0.59726,0.55542,0.96484,0.68039
12.76,0.14565,0.59335,0.56034,0.95898,0.68039
12.768,0.14858,0.58847,0.5702,0.96484,0.67647
12.776,0.15249,0.58358,0.57512,0.95898,0.67059
12.784,0.15543,0.57771,0.57512,0.96484,0.67059
12.792,0.15836,0.57283,0.57512,0.95898,0.67647
12.8,0.16227,0.56598,0.58005,0.95898,0.67059
12.808,0.1652,0.56012,0.5899,0.95898,0.6549
12.816,0.17107,0.55523,0.58498,0.96484,0.66471
12.824,0.17595,0.55034,0.5899,0.95508,0.67059
12.832,0.18377,0.54643,0.59483,0.95898,0.66471
12.84,0.19062,0.54252,0.59483,0.96484,0.66471
12.848,0.19941,0.53959,0.60468,0.96484,0.66078
12.856,0.20821,0.53666,0.61453,0.95898,0.66471
12.864,0.21799,0.5347,0.61453,0.96484,0.67059
12.872,0.22776,0.53275,0.61946,0.96484,0.67059
12.88,0.23656,0.53079,0.61946,0.96484,0.67647
12.888,0.24536,0.52981,0.61453,0.95898,0.68627
12.896,0.25318,0.52884,0.60961,0.96484,0.7
12.904,0.261,0.52688,0.60468,0.95508,0.70588
12.912,0.26784,0.5259,0.59483,0.94922,0.71569
12.92,0.27566,0.52493,0.58498,0.94531,0.73529
12.928,0.28152,0.52199,0.57512,0.93945,0.7451
12.936,0.28837,0.51906,0.5702,0.93555,0.75098
12.944,0.29326,0.51613,0.55049,0.92383,0.76078
12.952,0.29814,0.5132,0.53941,0.91992,0.77059
12.96,0.30205,0.51124,0.52463,0.91016,0.78627
12.968,0.30596,0.50733,0.50985,0.90039,0.79608
12.976,0.30694,0.50342,0.50493,0.89453,0.79608
12.984,0.30792,0.49853,0.5,0.88477,0.79608
12.992,0.30694,0.49365,0.50985,0.87891,0.7902
13,0.30596,0.48876,0.50985,0.875,0.7902
13.008,0.30205,0.48387,0.50985,0.875,0.77647
13.016,0.29912,0.47996,0.51478,0.875,0.77059
13.024,0.29326,0.47507,0.52463,0.88477,0.76667
13.032,0.28739,0.47116,0.53448,0.88867,0.7549
13.04,0.28152,0.46628,0.54557,0.88867,0.75098
13.048,0.27566,0.46041,0.52463,0.88867,0.7549
13.056,0.26882,0.4565,0.52463,0.88867,0.76078
13.064,0.26295,0.45259,0.54557,0.89453,0.74118
13.072,0.25513,0.44868,0.55049,0.90039,0.73137
13.08,0.24829,0.44379,0.55542,0.90039,0.72549
13.088,0.24145,0.43988,0.55049,0.90039,0.73529
13.096,0.2346,0.435,0.55049,0.90039,0.73529
13.104,0.22776,0.43109,0.54557,0.88867,0.73137
13.112,0.22092,0.4262,0.55049,0.88867,0.73137
13.12,0.21505,0.42229,0.54557,0.88867,0.73529
13.128,0.20919,0.42033,0.55542,0.88477,0.72549
13.136,0.20235,0.41838,0.55049,0.88477,0.72549
13.144,0.19648,0.42033,0.55049,0.88867,0.73137
13.152,0.18964,0.42326,0.5702,0.88867,0.72549
13.16,0.1828,0.42815,0.59483,0.88867,0.71569
13.168,0.17693,0.435,0.61946,0.87891,0.70588
13.176,0.17009,0.44477,0.64532,0.85547,0.7
13.184,0.16422,0.45748,0.63054,0.84961,0.7
13.192,0.15836,0.47116,0.62438,0.84961,0.70588
13.2,0.15347,0.4868,0.59975,0.85547,0.72157
13.208,0.14858,0.5044,0.61453,0.85938,0.7098
13.216,0.14467,0.52102,0.61946,0.84961,0.70588
13.224,0.14076,0.53861,0.58498,0.86914,0.72157
13.232,0.13685,0.55425,0.55542,0.88477,0.72549
13.24,0.13294,0.56989,0.54557,0.88477,0.72549
13.248,0.12903,0.58162,0.54557,0.88867,0.72549
13.256,0.12512,0.59238,0.53941,0.89453,0.72549
13.264,0.12219,0.60313,0.54557,0.90039,0.72157
13.272,0.11926,0.61388,0.54557,0.90039,0.71569
13.28,0.1173,0.62268,0.53448,0.90039,0.72549
13.288,0.11632,0.62952,0.52956,0.90039,0.73137
13.296,0.11535,0.63636,0.53448,0.90039,0.73137
13.304,0.11437,0.64125,0.52463,0.90039,0.73137
13.312,0.11339,0.64516,0.52463,0.9043,0.73137
13.32,0.11241,0.64712,0.49015,0.98438,0.78627
13.328,0.11339,0.64809,0.43473,1.0449,0.86667
13.336,0.11437,0.64809,0.40517,0.81055,0.91176
13.344,0.11632,0.64809,0.59975,0.51562,0.83529
13.352,0.11828,0.64614,0.61453,0.41602,0.8451
13.36,0.12121,0.64516,0.47537,0.53906,0.7549
13.368,0.12317,0.64321,0.6798,0.69922,0.58431
13.376,0.12512,0.64027,0.60961,0.84961,0.62941
13.384,0.12805,0.63734,0.55542,0.92969,0.67647
13.392,0.13099,0.63343,0.54557,0.94531,0.6902
13.4,0.13392,0.62952,0.54557,0.95508,0.6902
13.408,0.13783,0.62366,0.55049,0.95508,0.68039
13.416,0.14174,0.61779,0.54557,0.95898,0.6902
13.424,0.14565,0.61095,0.54557,0.95898,0.6902
13.432,0.14956,0.60508,0.55049,0.96484,0.68039
13.44,0.15347,0.59824,0.54557,0.95898,0.69608
13.448,0.15738,0.59238,0.55049,0.95898,0.6902
13.456,0.16129,0.58749,0.55049,0.96484,0.6902
13.464,0.1652,0.58162,0.56034,0.96484,0.68039
13.472,0.17009,0.57674,0.55542,0.95898,0.67647
13.48,0.17498,0.57185,0.5702,0.96484,0.67647
13.488,0.18084,0.56696,0.5702,0.96875,0.67647
13.496,0.18671,0.56305,0.5702,0.96875,0.66471
13.504,0.19355,0.55816,0.57512,0.96484,0.67059
13.512,0.19941,0.55425,0.57512,0.96484,0.67647
13.52,0.20626,0.55132,0.59975,0.96875,0.6549
13.528,0.21212,0.54839,0.60468,0.96484,0.66078
13.536,0.21896,0.54643,0.59483,0.96484,0.67059
13.544,0.22483,0.54448,0.60961,0.96484,0.66078
13.552,0.23069,0.5435,0.61946,0.96875,0.66078
13.56,0.23754,0.54154,0.61946,0.96875,0.66471
13.568,0.2434,0.54057,0.61946,0.96875,0.67647
13.576,0.25024,0.53959,0.61946,0.96875,0.67647
13.584,0.25513,0.53861,0.61946,0.96875,0.68627
13.592,0.261,0.53666,0.61946,0.96875,0.6902
13.6,0.26588,0.53568,0.61453,0.96484,0.7
13.608,0.27077,0.5347,0.60961,0.95898,0.7098
13.616,0.2737,0.53372,0.5899,0.94922,0.72549
13.624,0.27761,0.53275,0.58005,0.94531,0.73529
13.632,0.28055,0.53177,0.56527,0.93555,0.7451
13.64,0.2825,0.52981,0.55049,0.92969,0.76078
13.648,0.28348,0.52786,0.52463,0.91992,0.77647
13.656,0.28348,0.5259,0.5197,0.91016,0.78039
13.664,0.2825,0.52297,0.50493,0.9043,0.79608
13.672,0.28152,0.52004,0.49507,0.90039,0.8
13.68,0.27957,0.51711,0.49507,0.89453,0.79608
13.688,0.27761,0.51417,0.49507,0.88867,0.79608
13.696,0.27566,0.51222,0.5,0.88867,0.78039
13.704,0.2737,0.50929,0.50493,0.89453,0.77059
13.712,0.26979,0.50733,0.51478,0.89453,0.76667
13.72,0.26588,0.50538,0.5197,0.90039,0.7549
13.728,0.261,0.50342,0.52463,0.90039,0.75098
13.736,0.25611,0.50244,0.52956,0.9043,0.75098
13.744,0.25024,0.50147,0.53941,0.9043,0.73529
13.752,0.24536,0.50147,0.53941,0.91016,0.73529
13.76,0.24047,0.50049,0.52956,0.91016,0.7451
13.768,0.23656,0.50049,0.53941,0.9043,0.73529
13.776,0.23167,0.49951,0.54557,0.91016,0.73137
13.784,0.22678,0.49951,0.53941,0.91016,0.72549
13.792,0.22287,0.49853,0.55049,0.9043,0.72549
13.8,0.21799,0.49756,0.55049,0.9043,0.72549
13.808,0.21505,0.49658,0.55049,0.90039,0.72549
13.816,0.21212,0.4956,0.55049,0.90039,0.72549
13.824,0.21017,0.4956,0.55049,0.90039,0.72549
13.832,0.20723,0.4956,0.55049,0.90039,0.72549
13.84,0.20626,0.49756,0.5702,0.90039,0.72549
13.848,0.2043,0.50049,0.5899,0.90039,0.71569
13.856,0.2043,0.50538,0.61453,0.88867,0.70588
13.864,0.20332,0.51124,0.61946,0.86523,0.7098
13.872,0.20332,0.52004,0.60961,0.86914,0.72157
13.88,0.2043,0.52981,0.61453,0.86914,0.7098
13.888,0.20626,0.54057,0.5899,0.875,0.73137
13.896,0.20723,0.5523,0.59483,0.86523,0.72549
13.904,0.20919,0.56403,0.60468,0.85938,0.72157
13.912,0.21114,0.57576,0.54557,0.88867,0.74118
13.92,0.21408,0.58749,0.53448,0.89453,0.72549
13.928,0.21603,0.59922,0.52463,0.90039,0.73529
13.936,0.21896,0.60899,0.5197,0.90039,0.74118
13.944,0.2219,0.61877,0.51478,0.90039,0.7451
13.952,0.22483,0.62659,0.52463,0.90039,0.74118
13.96,0.22874,0.63245,0.5197,0.90039,0.74118
13.968,0.23265,0.6393,0.51478,0.90039,0.74118
13.976,0.23656,0.64516,0.50985,0.90039,0.7451
13.984,0.24145,0.65005,0.50985,0.90039,0.7451
13.992,0.24633,0.65396,0.51478,0.9043,0.7451
14,0.25122,0.64516,0.50493,0.92383,0.7549
14.008,0.25513,0.6305,0.43966,1.0449,0.83137
14.016,0.25904,0.62366,0.37562,1.0547,0.92157
14.024,0.26295,0.62072,0.43473,0.7207,0.93725
14.032,0.26686,0.61877,0.59975,0.45508,0.85686
14.04,0.26979,0.61681,0.48522,0.41016,0.86667
14.048,0.2737,0.61486,0.47537,0.5957,0.68627
14.056,0.27664,0.6129,0.66995,0.75391,0.6
14.064,0.27957,0.60997,0.56034,0.88477,0.68039
14.072,0.2825,0.60704,0.52463,0.94531,0.7
14.08,0.28543,0.60313,0.5197,0.95898,0.70588
14.088,0.28837,0.59922,0.52463,0.96875,0.70588
14.096,0.2913,0.59531,0.52463,0.96484,0.70588
14.104,0.29423,0.59042,0.52463,0.96484,0.7
14.112,0.29619,0.58553,0.52956,0.96875,0.70588
14.12,0.29912,0.57967,0.52463,0.96875,0.70588
14.128,0.30205,0.57283,0.53448,0.96484,0.7
14.136,0.30401,0.56598,0.53941,0.96875,0.6902
14.144,0.30694,0.55914,0.52956,0.96875,0.7
14.152,0.3089,0.55327,0.53941,0.96875,0.7
14.16,0.31183,0.54839,0.54557,0.96875,0.69608
14.168,0.31574,0.54154,0.54557,0.96484,0.6902
14.176,0.31867,0.53568,0.55049,0.96875,0.68627
14.184,0.32258,0.52884,0.55542,0.96875,0.6902
14.192,0.32649,0.52297,0.56034,0.96484,0.69608
14.2,0.3304,0.51808,0.55542,0.96484,0.7
14.208,0.33529,0.51417,0.56527,0.96875,0.7
14.216,0.34018,0.51124,0.5702,0.96875,0.69608
14.224,0.34506,0.50831,0.57512,0.96875,0.7
14.232,0.34995,0.50538,0.57512,0.96875,0.6902
14.24,0.35484,0.50244,0.57512,0.96875,0.69608
14.248,0.35973,0.49951,0.58498,0.96875,0.6902
14.256,0.36461,0.49658,0.56527,0.96875,0.72157
14.264,0.3695,0.49169,0.5702,0.96875,0.72157
14.272,0.37341,0.4868,0.5702,0.96875,0.71569
14.28,0.3783,0.48289,0.56527,0.96484,0.73137
14.288,0.38123,0.47898,0.55049,0.96875,0.75098
14.296,0.38416,0.47507,0.53941,0.95898,0.76078
14.304,0.38612,0.47214,0.52463,0.94531,0.78039
14.312,0.38807,0.46921,0.5197,0.93945,0.7902
14.32,0.38807,0.4653,0.5,0.92969,0.8
14.328,0.38905,0.46237,0.48522,0.92383,0.81569
14.336,0.38905,0.45943,0.47537,0.91406,0.82157
14.344,0.38807,0.45748,0.45443,0.9043,0.84118
14.352,0.38514,0.45552,0.44458,0.90039,0.8451
14.36,0.38221,0.45357,0.44458,0.89453,0.84118
14.368,0.37634,0.45259,0.44951,0.88867,0.82549
14.376,0.37146,0.45064,0.46552,0.88867,0.81176
14.384,0.36559,0.44868,0.46552,0.89453,0.80588
14.392,0.35875,0.44673,0.46552,0.90039,0.8
14.4,0.35093,0.44477,0.4803,0.90039,0.7902
14.408,0.34409,0.44282,0.4803,0.9043,0.78039
14.416,0.33431,0.44086,0.48522,0.91406,0.78627
14.424,0.32454,0.43988,0.4803,0.91992,0.77059
14.432,0.31281,0.43793,0.49507,0.91406,0.7549
14.44,0.30205,0.43597,0.50493,0.91406,0.74118
14.448,0.28935,0.43402,0.52463,0.91016,0.73137
14.456,0.27761,0.43206,0.51478,0.92383,0.75098
14.464,0.26588,0.42913,0.52463,0.91992,0.75098
14.472,0.25415,0.42717,0.50985,0.94531,0.79608
14.48,0.2434,0.42424,0.50985,0.93945,0.77647
14.488,0.23363,0.42033,0.50985,0.92383,0.76667
14.496,0.22483,0.4174,0.50985,0.90039,0.73137
14.504,0.21603,0.41447,0.50985,0.91016,0.74118
14.512,0.20723,0.41349,0.52463,0.9043,0.72157
14.52,0.19844,0.41349,0.55049,0.91406,0.72549
14.528,0.19062,0.41447,0.57512,0.92383,0.72157
14.536,0.1828,0.41935,0.59483,0.92969,0.74118
14.544,0.17595,0.4262,0.61453,0.86914,0.6902
14.552,0.16911,0.435,0.62438,0.875,0.67647
14.56,0.16422,0.44379,0.63054,0.87891,0.68039
14.568,0.15934,0.45552,0.60468,0.88867,0.72157
14.576,0.15543,0.46921,0.58005,0.93555,0.79608
14.584,0.15249,0.48289,0.53448,0.95508,0.8451
14.592,0.15054,0.49756,0.5197,0.91016,0.74118
14.6,0.14858,0.51222,0.52463,0.9043,0.72549
14.608,0.14761,0.5259,0.51478,0.92383,0.7451
14.616,0.14761,0.53959,0.52463,0.93555,0.74118
14.624,0.14858,0.55132,0.52956,0.96484,0.80588
14.632,0.15054,0.56207,0.56527,0.9043,0.66078
14.64,0.15249,0.57185,0.53448,0.96484,0.78039
14.648,0.15445,0.57967,0.52463,0.97461,0.8
14.656,0.1564,0.58553,0.53448,0.90039,0.70588
14.664,0.15934,0.59042,0.51478,0.91016,0.74118
14.672,0.16325,0.59531,0.5,0.92383,0.78039
14.68,0.16813,0.59922,0.48522,0.97461,0.78039
14.688,0.17302,0.60215,0.41502,1.125,0.93725
14.696,0.17889,0.60411,0.37562,0.99414,1.0569
14.704,0.18475,0.60606,0.58005,0.61523,0.81569
14.712,0.19062,0.60704,0.65517,0.50586,0.8
14.72,0.1955,0.60606,0.55049,0.59961,0.76667
14.728,0.20137,0.60508,0.66995,0.75,0.6098
14.736,0.20821,0.60313,0.5899,0.85938,0.62941
14.744,0.21408,0.6002,0.49507,0.95508,0.74118
14.752,0.2219,0.59824,0.53941,0.96875,0.75098
14.76,0.22874,0.59531,0.56527,0.94531,0.61961
14.768,0.23754,0.5914,0.5702,0.98047,0.7451
14.776,0.24731,0.58749,0.52463,1.0098,0.7902
14.784,0.25709,0.5826,0.57512,0.98438,0.7
14.792,0.26784,0.57771,0.54557,0.95508,0.72549
14.8,0.27761,0.57283,0.52956,0.93945,0.7549
14.808,0.28837,0.56696,0.50493,0.98438,0.8
14.816,0.3001,0.56109,0.49507,0.97461,0.80588
14.824,0.31183,0.55523,0.49015,0.88477,0.6549
14.832,0.32845,0.54936,0.53448,0.86523,0.62549
14.84,0.34506,0.54252,0.52463,0.92383,0.73529
14.848,0.36559,0.53763,0.52463,0.88477,0.67647
14.856,0.38612,0.53177,0.5197,0.9043,0.67059
14.864,0.40762,0.52688,0.50985,0.95508,0.80588
14.872,0.42913,0.52199,0.48522,0.99023,0.92157
14.88,0.45259,0.51808,0.50493,0.9043,0.73529
14.888,0.47507,0.51515,0.5,0.93945,0.77647
14.896,0.50635,0.5132,0.5,0.98438,0.81176
14.904,0.53666,0.5132,0.47537,0.90039,0.73137
14.912,0.5738,0.51613,0.48522,0.91406,0.75098
14.92,0.61193,0.52297,0.5197,0.90039,0.69608
14.928,0.65396,0.53275,0.52463,0.88867,0.6902
14.936,0.69697,0.54545,0.4803,0.92969,0.81569
14.944,0.74291,0.55816,0.47044,0.93945,0.85686
14.952,0.78886,0.57087,0.4803,0.93555,0.88039
14.96,0.83187,0.58456,0.45443,0.95898,0.90196
14.968,0.87488,0.59824,0.43966,0.90039,0.83137
14.976,0.913,0.6129,0.4298,0.91992,0.88627
14.984,0.9521,0.62854,0.4101,0.85547,0.81176
14.992,0.97654,0.64418,0.40025,0.83008,0.7902
15,1,0.65982,0.36453,0.875,0.91176
15.008,1,0.67644,0.3399,0.86523,0.89608
15.016,1,0.69208,0.29557,0.9043,1.0059
15.024,1,0.70772,0.27956,0.91992,1.0314
15.032,1,0.72336,0.2697,0.88477,0.96078
15.04,1,0.73607,0.21059,0.97461,1.1314
15.048,1,0.74585,0.22537,0.89453,0.98627
15.056,1,0.75269,0.22044,0.84961,0.92549
15.064,1,0.76051,0.24015,0.83984,0.88627
15.072,1,0.76931,0.21552,0.875,0.95098
15.08,1,0.7781,0.23522,0.89453,0.96078
15.088,1,0.78788,0.25493,0.92383,0.96667
15.096,1,0.79863,0.33005,0.93555,0.84118
15.104,1,0.81232,0.34975,1.0137,0.96078
15.112,1,0.82893,0.35468,0.93945,0.85098
15.12,1,0.84946,0.33498,0.98438,0.92157
15.128,1,0.87292,0.39532,0.91016,0.81569
15.136,1,0.89834,0.42488,0.87891,0.7549
15.144,1,0.91887,0.46059,0.92383,0.73529
15.152,1,0.93744,0.4803,0.94922,0.81569
15.16,1,0.95894,0.46552,0.91016,0.8
15.168,1,0.97752,0.48522,0.88867,0.78039
15.176,1,0.98925,0.53941,0.96875,0.86667
15.184,1,0.99511,0.61453,0.91016,0.69608
15.192,1,0.99707,0.66502,0.88867,0.6549
15.2,1,0.99902,0.70443,0.91406,0.67059
15.208,1,1,0.74015,0.91992,0.67647
15.216,1,1,0.72537,0.82031,0.59608
15.224,1,1,0.73522,0.78516,0.57059
15.232,1,1,0.72044,0.7793,0.6549
15.24,1,1,0.68966,0.86523,0.73529
15.248,1,1,0.66502,0.79883,0.77059
15.256,1,1,0.65025,0.75977,0.6451
15.264,1,1,0.63547,0.83984,0.72157
15.272,1,1,0.64039,0.83008,0.67647
15.28,1,1,0.6601,0.86523,0.7
15.288,1,1,0.69458,0.875,0.61569
15.296,1,1,0.70443,0.86914,0.60588
15.304,1,1,0.66995,0.88867,0.67647
15.312,1,1,0.72044,0.86914,0.58431
15.32,1,1,0.68966,0.96484,0.73529
15.328,1,1,0.70936,0.88477,0.59608
15.336,1,1,0.75,0.85547,0.53922
15.344,1,1,0.73522,0.91992,0.6
15.352,1,1,0.70443,1.0293,0.65098
15.36,1,1,0.65517,1.0996,0.72549
15.368,1,1,0.64039,0.90039,0.77647
15.376,1,1,0.88547,0.67578,0.79608
15.384,1,1,0.93966,0.5957,0.5902
15.392,1,1,0.79557,0.7207,0.6451
15.4,1,1,1.0554,0.81445,0.32353
15.408,1,1,0.9803,0.93555,0.37451
15.416,1,1,0.93473,0.99414,0.40392
15.424,1,1,0.90025,1.0586,0.51569
15.432,1,1,0.92488,1.0254,0.40392
15.44,1,1,0.94458,1.0586,0.4549
15.448,1,1,0.95936,1.0801,0.4098
15.456,1,1,0.9101,1.0547,0.4
15.464,1,1,0.82512,1.0039,0.43922
15.472,1,1,0.83005,1.0254,0.47451
15.48,1,1,0.84975,1.0703,0.46078
15.488,1,1,0.83498,1.1035,0.51961
15.496,1,1,0.8399,1.0742,0.4549
15.504,1,1,0.8202,1.0898,0.5
15.512,1,1,0.81034,1.1484,0.60588
15.52,1,1,0.84483,1.0898,0.4451
15.528,1,1,0.83498,1.1641,0.52941
15.536,1,1,0.81527,1.1191,0.53529
15.544,1,1,0.77956,1.1641,0.4451
15.552,1,1,0.78941,1.1445,0.52941
15.56,1,0.99511,0.79557,1.1797,0.48431
15.568,1,0.9824,0.74507,1.209,0.57059
15.576,1,0.96383,0.76478,1.1738,0.4902
15.584,0.99902,0.9433,0.65517,1.2148,0.67059
15.592,0.99804,0.92082,0.66502,1.1699,0.59608
15.6,0.97654,0.89932,0.66502,1.1992,0.58039
15.608,0.95406,0.87683,0.64532,1.1836,0.62549
15.616,0.93353,0.85533,0.61946,1.2637,0.77059
15.624,0.913,0.8348,0.60961,1.1934,0.67059
15.632,0.8915,0.81427,0.61946,1.1895,0.6549
15.64,0.87097,0.79374,0.59483,1.2344,0.73529
15.648,0.84848,0.77419,0.53448,1.2051,0.76667
15.656,0.82698,0.75464,0.53941,1.1543,0.7
15.664,0.80645,0.73314,0.5197,1.1699,0.73137
15.672,0.7869,0.71065,0.49015,1.1934,0.79608
15.68,0.76931,0.68817,0.47537,1.1543,0.76667
15.688,0.75171,0.66569,0.45443,1.1484,0.79608
15.696,0.73412,0.64223,0.4803,1.1445,0.77059
15.704,0.71652,0.61877,0.49507,1.2148,0.85686
15.712,0.69795,0.59531,0.4803,1.1484,0.76078
15.72,0.68035,0.57185,0.48522,1.1152,0.72157
15.728,0.66373,0.54839,0.44951,1.1641,0.79608
15.736,0.64614,0.52493,0.4803,1.1699,0.83529
15.744,0.62952,0.50538,0.4298,1.1191,0.8451
15.752,0.6129,0.48778,0.46059,1.125,0.72157
15.76,0.59824,0.47019,0.47044,1.0898,0.68039
15.768,0.58358,0.45161,0.47044,1.1289,0.73529
15.776,0.56989,0.43304,0.47537,1.1152,0.69608
15.784,0.55718,0.41642,0.46552,1.1934,0.82549
15.792,0.54448,0.40078,0.46059,1.1387,0.74118
15.8,0.53177,0.3871,0.47044,1.125,0.7
15.808,0.52004,0.37341,0.44458,1.1543,0.73529
15.816,0.50831,0.3607,0.44458,1.1699,0.76667
15.824,0.49756,0.34897,0.45443,1.1543,0.73137
15.832,0.4868,0.33724,0.4803,1.2051,0.76667
15.84,0.47801,0.32551,0.47537,1.1484,0.77059
15.848,0.46823,0.31574,0.50493,1.125,0.6451
15.856,0.45846,0.30792,0.43473,1.1602,0.78039
15.864,0.44966,0.29814,0.48522,1.1152,0.69608
15.872,0.43988,0.28837,0.53941,1.0898,0.64118
15.88,0.43011,0.27957,0.56527,1.084,0.62941
15.888,0.42033,0.27175,0.53448,1.1094,0.7549
15.896,0.41056,0.26588,0.54557,1.1094,0.76667
15.904,0.40078,0.261,0.50493,1.0488,0.71569
15.912,0.39101,0.25904,0.49015,1.0645,0.73137
15.92,0.38221,0.26002,0.52463,1.1035,0.8
15.928,0.37341,0.26197,0.5197,1.0645,0.72549
15.936,0.36559,0.26588,0.46059,1.0586,0.72157
15.944,0.35777,0.27077,0.44951,1.0801,0.76078
15.952,0.34897,0.27566,0.4298,1.1191,0.81176
15.96,0.3392,0.28055,0.46552,1.0293,0.66471
15.968,0.3304,0.28446,0.4298,1.0645,0.75098
15.976,0.32063,0.28935,0.43966,1.0488,0.76078
15.984,0.31183,0.29423,0.4803,1.0391,0.67647
15.992,0.30303,0.29814,0.4298,1.0488,0.74118
16,0.29521,0.30303,0.40025,1.0742,0.82549
16.008,0.28739,0.30596,0.4298,1.0195,0.73137
16.016,0.27761,0.3089,0.44951,1.0488,0.73529
16.024,0.26882,0.30987,0.41995,1.0449,0.72157
16.032,0.25904,0.31085,0.37562,1.2285,0.88627
16.04,0.24829,0.3089,0.33005,1.0293,0.91569
16.048,0.23656,0.31672,0.47537,0.78906,0.88627
16.056,0.22581,0.32942,0.54557,0.69531,0.92549
16.064,0.2131,0.33529,0.36453,0.64453,0.79608
16.072,0.20137,0.33822,0.57512,0.79492,0.6098
16.08,0.19062,0.34018,0.52463,0.93555,0.66078
16.088,0.17986,0.34115,0.45443,1.0098,0.70588
16.096,0.17107,0.34213,0.44951,1.0645,0.74118
16.104,0.16129,0.34213,0.46552,1.0352,0.6902
16.112,0.15249,0.34311,0.47044,1.0254,0.67647
16.12,0.1437,0.34311,0.46059,1.0098,0.65098
16.128,0.13587,0.34409,0.47044,1.0195,0.67647
16.136,0.12805,0.34409,0.4803,1.0137,0.66471
16.144,0.12219,0.34409,0.47537,1.0391,0.7
16.152,0.11632,0.34409,0.5,1.0039,0.64118
16.16,0.11241,0.34409,0.51478,1.0449,0.6902
16.168,0.10948,0.34311,0.47044,1.084,0.77647
16.176,0.10753,0.34213,0.43966,1.0293,0.83529
16.184,0.10557,0.34115,0.45443,0.94531,0.62941
16.192,0.10557,0.34018,0.48522,0.98047,0.65098
16.2,0.10557,0.3392,0.49507,0.98438,0.64118
16.208,0.10753,0.33724,0.50493,1.0039,0.68039
16.216,0.11046,0.33627,0.5,1.0098,0.68627
16.224,0.11535,0.33529,0.51478,0.96484,0.65098
16.232,0.11926,0.33529,0.52463,1.0039,0.68039
16.24,0.12414,0.33431,0.54557,1.0352,0.71569
16.248,0.12805,0.33431,0.56527,1.0391,0.72157
16.256,0.13294,0.33431,0.58005,0.99023,0.63529
16.264,0.13685,0.33431,0.53941,0.99414,0.66471
16.272,0.14272,0.33431,0.55542,1.0195,0.6902
16.28,0.14761,0.33431,0.56034,1.0293,0.70588
16.288,0.15347,0.33529,0.55049,0.99023,0.6451
16.296,0.15934,0.33529,0.5197,1,0.6902
16.304,0.16422,0.33529,0.51478,1.0039,0.72549
16.312,0.16911,0.33529,0.52463,1.0098,0.73137
16.32,0.17204,0.33529,0.52463,0.99414,0.7
16.328,0.17595,0.33431,0.50985,1,0.7549
16.336,0.17889,0.33333,0.5,0.98047,0.75098
16.344,0.18182,0.33236,0.49015,1,0.79608
16.352,0.1828,0.33236,0.46552,1.0098,0.83529
16.36,0.18475,0.3304,0.46552,0.92969,0.73529
16.368,0.18475,0.32942,0.47044,0.94531,0.77059
16.376,0.18475,0.32747,0.44458,0.92969,0.76078
16.384,0.1828,0.32551,0.45443,0.94531,0.82157
16.392,0.18182,0.32356,0.43966,0.9043,0.76078
16.4,0.17889,0.3216,0.42488,0.9043,0.82549
16.408,0.17693,0.31965,0.44951,0.91992,0.84118
16.416,0.17498,0.31672,0.45443,0.87891,0.7549
16.424,0.17204,0.31378,0.45443,0.84961,0.7451
16.432,0.16813,0.30987,0.47044,0.89453,0.81569
16.44,0.16422,0.30694,0.47537,0.83398,0.72549
16.448,0.15836,0.30401,0.43473,0.80469,0.72549
16.456,0.15347,0.30205,0.47537,0.83008,0.73137
16.464,0.14858,0.3001,0.48522,0.84375,0.7451
16.472,0.1437,0.29814,0.50493,0.875,0.7549
16.48,0.13881,0.29619,0.53448,0.87891,0.73137
16.488,0.13392,0.29521,0.50493,0.85938,0.71569
16.496,0.12903,0.29521,0.52956,0.88867,0.77059
16.504,0.12317,0.29619,0.50493,0.84961,0.7
16.512,0.1173,0.29912,0.5,0.875,0.73529
16.52,0.11046,0.30303,0.52463,0.91016,0.77059
16.528,0.10459,0.30792,0.55049,0.85938,0.66078
16.536,0.097752,0.31281,0.52956,0.875,0.69608
16.544,0.091887,0.31867,0.55542,0.84961,0.67059
16.552,0.085044,0.32454,0.60468,0.86914,0.6549
16.56,0.080156,0.3304,0.59483,0.83398,0.6902
16.568,0.074291,0.33627,0.59483,0.90039,0.76667
16.576,0.069404,0.34115,0.59483,0.85547,0.6902
16.584,0.065494,0.34702,0.55542,0.83398,0.67059
16.592,0.061584,0.35093,0.55049,0.875,0.7451
16.6,0.056696,0.35582,0.53941,0.84375,0.70588
16.608,0.052786,0.35875,0.49507,0.92383,0.82157
16.616,0.048876,0.36266,0.4803,0.86914,0.72549
16.624,0.045943,0.36559,0.5,0.84961,0.6549
16.632,0.043988,0.36852,0.49015,0.92969,0.77059
16.64,0.042033,0.37146,0.47537,0.89453,0.72549
16.648,0.040078,0.37341,0.46552,0.90039,0.76078
16.656,0.038123,0.37537,0.4803,0.875,0.71569
16.664,0.037146,0.37732,0.45443,0.88477,0.7451
16.672,0.037146,0.3783,0.46059,0.89453,0.76078
16.68,0.036168,0.38025,0.47044,0.87891,0.73529
16.688,0.036168,0.38221,0.46059,0.875,0.7451
16.696,0.036168,0.38416,0.49507,0.93555,0.8
16.704,0.036168,0.38612,0.46552,0.91992,0.72157
16.712,0.036168,0.38807,0.41502,1.0703,0.89608
16.72,0.037146,0.39003,0.35961,0.85547,0.99216
16.728,0.038123,0.39296,0.50985,0.55469,0.87059
16.736,0.039101,0.39589,0.5197,0.46094,0.8902
16.744,0.041056,0.39883,0.4101,0.57422,0.77059
16.752,0.042033,0.40078,0.60961,0.67578,0.62549
16.76,0.043988,0.40469,0.56527,0.78906,0.6098
16.768,0.046921,0.40762,0.50493,0.875,0.68627
16.776,0.048876,0.41153,0.5,0.91992,0.73529
16.784,0.050831,0.41544,0.50985,0.90039,0.6902
16.792,0.053763,0.41935,0.5197,0.9043,0.67647
16.8,0.055718,0.42229,0.52463,0.92969,0.72157
16.808,0.058651,0.42424,0.53448,0.88867,0.63529
16.816,0.062561,0.4262,0.51478,0.91016,0.6902
16.824,0.065494,0.4262,0.55542,0.90039,0.64118
16.832,0.070381,0.42717,0.56034,0.91016,0.61961
16.84,0.075269,0.4262,0.52956,0.88867,0.6902
16.848,0.081134,0.4262,0.51478,0.91992,0.70588
16.856,0.087977,0.4262,0.52956,0.93945,0.72157
16.864,0.094819,0.4262,0.56527,0.95898,0.68627
16.872,0.10166,0.4262,0.55542,0.93945,0.7
16.88,0.10948,0.4262,0.57512,0.89453,0.6
16.888,0.11632,0.4262,0.56527,0.94922,0.6902
16.896,0.12317,0.4262,0.59483,0.90039,0.58039
16.904,0.13099,0.4262,0.56527,0.88477,0.57451
16.912,0.13881,0.4262,0.58005,0.94531,0.68627
16.92,0.14761,0.42522,0.56527,0.9043,0.63529
16.928,0.1564,0.42424,0.55542,0.92383,0.68627
16.936,0.1652,0.42229,0.58005,0.95898,0.72549
16.944,0.174,0.42131,0.5899,0.93945,0.67059
16.952,0.18377,0.41935,0.61453,0.94531,0.67647
16.96,0.19159,0.4174,0.60961,0.91406,0.61961
16.968,0.20039,0.41447,0.61946,0.97461,0.69608
16.976,0.20821,0.41251,0.56034,0.91992,0.66471
16.984,0.21603,0.40958,0.54557,0.92383,0.74118
16.992,0.22287,0.40762,0.55049,0.90039,0.69608
17,0.22972,0.40567,0.5197,0.93555,0.78627
17.008,0.23558,0.40274,0.52956,0.88867,0.72549
17.016,0.24145,0.40078,0.55542,0.875,0.69608
17.024,0.24633,0.39785,0.52956,0.93945,0.7902
17.032,0.25122,0.39492,0.49015,0.875,0.7549
17.04,0.25415,0.39198,0.5197,0.89453,0.78039
17.048,0.25806,0.38905,0.52956,0.90039,0.75098
17.056,0.26002,0.38612,0.47044,0.85938,0.81176
17.064,0.26197,0.38221,0.46552,0.86914,0.79608
17.072,0.26295,0.37928,0.4803,0.85547,0.8
17.08,0.26393,0.37634,0.47537,0.86914,0.78627
17.088,0.26393,0.37341,0.50985,0.84961,0.74118
17.096,0.26393,0.37146,0.49507,0.86914,0.78627
17.104,0.26393,0.3695,0.51478,0.83398,0.6902
17.112,0.26393,0.36852,0.53448,0.88867,0.76078
17.12,0.26393,0.36755,0.53941,0.9043,0.76667
17.128,0.26393,0.36657,0.51478,0.84375,0.69608
17.136,0.26393,0.36461,0.5197,0.91406,0.81176
17.144,0.26393,0.36364,0.54557,0.86914,0.68039
17.152,0.26393,0.36266,0.55049,0.83984,0.62549
17.16,0.26393,0.36168,0.53448,0.91992,0.76078
17.168,0.26491,0.3607,0.53448,0.88867,0.73137
17.176,0.26588,0.35875,0.55049,0.91406,0.77647
17.184,0.26686,0.35679,0.5702,0.875,0.62549
17.192,0.26784,0.35582,0.58498,0.89453,0.6902
17.2,0.26882,0.35386,0.55049,0.90039,0.73137
17.208,0.26979,0.35288,0.57512,0.87891,0.68039
17.216,0.27175,0.35191,0.59483,0.875,0.67647
17.224,0.27273,0.35191,0.64532,0.9043,0.72157
17.232,0.27468,0.35191,0.63547,0.875,0.68627
17.24,0.27664,0.35386,0.62438,0.87891,0.71569
17.248,0.27859,0.35582,0.60961,0.90039,0.74118
17.256,0.28055,0.35973,0.65025,0.88477,0.6451
17.264,0.2825,0.36364,0.6601,0.89453,0.66471
17.272,0.28446,0.36852,0.55542,0.83008,0.72157
17.28,0.28641,0.37341,0.57512,0.9043,0.76667
17.288,0.28837,0.3783,0.54557,0.85547,0.69608
17.296,0.29032,0.38221,0.5197,0.84961,0.72549
17.304,0.29228,0.3871,0.51478,0.85938,0.76078
17.312,0.29521,0.39101,0.50985,0.83398,0.71569
17.32,0.29717,0.39589,0.5197,0.85547,0.7098
17.328,0.3001,0.40078,0.52463,0.82422,0.76078
17.336,0.30401,0.40567,0.54557,0.81445,0.67647
17.344,0.30792,0.41056,0.55049,0.84961,0.71569
17.352,0.31183,0.41447,0.53941,0.84961,0.74118
17.36,0.31574,0.41935,0.55049,0.82031,0.67059
17.368,0.31965,0.42424,0.5,0.86523,0.76078
17.376,0.32356,0.42913,0.46059,1.0137,0.83137
17.384,0.32649,0.43402,0.39532,1.0547,0.88039
17.392,0.33138,0.43695,0.38054,0.76953,0.93137
17.4,0.33529,0.43988,0.5899,0.56055,0.85686
17.408,0.34018,0.44184,0.61453,0.50586,0.81176
17.416,0.34506,0.44282,0.50985,0.58984,0.66471
17.424,0.34995,0.44379,0.66502,0.70508,0.62549
17.432,0.35484,0.44379,0.61453,0.81055,0.6451
17.44,0.35973,0.44379,0.58498,0.83398,0.64118
17.448,0.36461,0.44282,0.52956,0.84961,0.7098
17.456,0.3695,0.44184,0.5702,0.85547,0.6451
17.464,0.37439,0.44086,0.58005,0.875,0.63529
17.472,0.37928,0.43891,0.55049,0.84375,0.70588
17.48,0.38416,0.43597,0.57512,0.84375,0.63529
17.488,0.39003,0.43304,0.5702,0.86523,0.67647
17.496,0.39589,0.43011,0.57512,0.88477,0.72549
17.504,0.40176,0.4262,0.53941,0.875,0.71569
17.512,0.4086,0.42326,0.58005,0.86914,0.63529
17.52,0.41447,0.41935,0.58498,0.86523,0.62941
17.528,0.42131,0.41447,0.5702,0.875,0.67059
17.536,0.42717,0.41056,0.5702,0.91406,0.71569
17.544,0.43304,0.40665,0.58005,0.86914,0.66471
17.552,0.43988,0.40371,0.55542,0.87891,0.68627
17.56,0.44575,0.3998,0.56527,0.875,0.7098
17.568,0.45357,0.39589,0.58498,0.92383,0.66078
17.576,0.46041,0.39296,0.58005,0.89453,0.6549
17.584,0.46725,0.39003,0.59483,0.94531,0.71569
17.592,0.47312,0.3871,0.59975,0.91016,0.65098
17.6,0.47898,0.38416,0.61946,0.92969,0.6451
17.608,0.48583,0.38221,0.61453,0.95898,0.7
17.616,0.49071,0.37928,0.60961,0.91016,0.62549
17.624,0.49658,0.37732,0.61453,0.94922,0.66471
17.632,0.50147,0.37537,0.60961,0.96875,0.6902
17.64,0.50733,0.37439,0.59975,0.94531,0.68039
17.648,0.51026,0.37341,0.60961,0.95898,0.7
17.656,0.5132,0.37243,0.61453,0.96875,0.73137
17.664,0.5132,0.37243,0.59975,0.92969,0.68039
17.672,0.51417,0.37146,0.56527,0.95898,0.78039
17.68,0.5132,0.37146,0.58005,0.93945,0.75098
17.688,0.51222,0.37048,0.52956,0.91016,0.77059
17.696,0.50929,0.3695,0.5,0.90039,0.81569
17.704,0.50538,0.36755,0.50493,0.90039,0.81569
17.712,0.49853,0.36559,0.49507,0.86914,0.78627
17.72,0.49071,0.36364,0.5,0.87891,0.81569
17.728,0.47996,0.36266,0.49015,0.84375,0.77647
17.736,0.46921,0.36168,0.50985,0.84961,0.79608
17.744,0.45846,0.36168,0.5,0.83008,0.79608
17.752,0.44673,0.36266,0.5197,0.82422,0.76667
17.76,0.435,0.36559,0.56527,0.83984,0.7451
17.768,0.42229,0.36852,0.61946,0.83008,0.67647
17.776,0.40665,0.37243,0.56527,0.81445,0.72157
17.784,0.39198,0.37537,0.58498,0.84961,0.74118
17.792,0.37341,0.37928,0.59483,0.82031,0.70588
17.8,0.35582,0.38221,0.52956,0.84375,0.78039
17.808,0.33529,0.38514,0.56527,0.81055,0.67059
17.816,0.31574,0.3871,0.59483,0.87891,0.73529
17.824,0.29521,0.38807,0.59975,0.84961,0.66471
17.832,0.27468,0.38905,0.57512,0.85547,0.7
17.84,0.25611,0.38905,0.56527,0.84375,0.7
17.848,0.23851,0.38905,0.57512,0.88477,0.72549
17.856,0.2219,0.38905,0.58498,0.90039,0.75098
17.864,0.20626,0.38905,0.59483,0.86914,0.70588
17.872,0.19159,0.38807,0.58498,0.84961,0.72157
17.88,0.17595,0.38807,0.57512,0.85938,0.74118
17.888,0.16129,0.38807,0.5899,0.83398,0.7
17.896,0.14663,0.38905,0.61453,0.85547,0.72157
17.904,0.1349,0.38905,0.63547,0.79883,0.67647
17.912,0.12317,0.38905,0.6601,0.80469,0.7098
17.92,0.11339,0.38905,0.68473,0.79883,0.68039
17.928,0.10459,0.38905,0.66995,0.83398,0.72549
17.936,0.096774,0.38905,0.62438,0.80469,0.7
17.944,0.088954,0.39003,0.59483,0.80469,0.7451
17.952,0.083089,0.39003,0.61453,0.83398,0.77647
17.96,0.077224,0.39003,0.57512,0.85547,0.72549
17.968,0.074291,0.39003,0.53448,0.84961,0.76078
17.976,0.070381,0.39003,0.50985,0.85547,0.74118
17.984,0.069404,0.39003,0.5197,0.83008,0.72549
17.992,0.068426,0.39003,0.56034,0.89453,0.74118
18,0.068426,0.39003,0.53448,0.875,0.73529
18.008,0.068426,0.39101,0.52956,0.88477,0.74118
18.016,0.070381,0.39198,0.55049,0.90039,0.75098
18.024,0.071359,0.39296,0.55049,0.875,0.73137
18.032,0.074291,0.39394,0.56527,0.9043,0.73529
18.04,0.077224,0.39492,0.5702,0.88867,0.70588
18.048,0.081134,0.39589,0.55049,0.9043,0.76078
18.056,0.085044,0.39492,0.49507,1.0039,0.82157
18.064,0.088954,0.39296,0.46059,1.0352,0.79608
18.072,0.092864,0.39101,0.43966,0.83398,0.88627
18.08,0.096774,0.38905,0.60468,0.56445,0.8902
18.088,0.10068,0.38807,0.60961,0.48047,0.8451
18.096,0.10557,0.42424,0.47044,0.56055,0.8902
18.104,0.11046,0.48094,0.66502,0.67578,0.64118
18.112,0.11535,0.51124,0.60468,0.82031,0.69608
18.12,0.12023,0.52688,0.56527,0.83984,0.66471
18.128,0.12414,0.53568,0.55049,0.88867,0.72549
18.136,0.12805,0.53861,0.57512,0.86914,0.6549
18.144,0.13099,0.53959,0.56034,0.85547,0.67647
18.152,0.13294,0.53861,0.55542,0.875,0.71569
18.16,0.1349,0.53666,0.56034,0.86914,0.72157
18.168,0.13685,0.5347,0.56527,0.85938,0.68627
18.176,0.13783,0.5347,0.55542,0.83984,0.6902
18.184,0.13978,0.53666,0.5899,0.84375,0.67647
18.192,0.13978,0.54154,0.57512,0.83984,0.67059
18.2,0.13978,0.54741,0.58005,0.83984,0.69608
18.208,0.13978,0.55425,0.59483,0.84961,0.66078
18.216,0.13881,0.56109,0.61453,0.88867,0.68039
18.224,0.13881,0.56696,0.62438,0.90039,0.65098
18.232,0.13783,0.57185,0.64039,0.90039,0.60588
18.24,0.13783,0.57576,0.6798,0.92383,0.59608
18.248,0.13685,0.57771,0.64532,0.94531,0.65098
18.256,0.13685,0.58065,0.60468,0.92383,0.6549
18.264,0.13685,0.58162,0.60961,0.94922,0.70588
18.272,0.13783,0.58358,0.5899,0.94531,0.68039
18.28,0.13783,0.58358,0.63054,0.96875,0.66471
18.288,0.13881,0.58358,0.62438,0.98438,0.72549
18.296,0.13978,0.5826,0.60961,0.93555,0.67647
18.304,0.14076,0.58162,0.6798,0.94922,0.62941
18.312,0.14174,0.57869,0.64039,0.92383,0.67059
18.32,0.14272,0.57478,0.62438,0.94922,0.73529
18.328,0.14467,0.56989,0.61453,0.9043,0.70588
18.336,0.14663,0.56403,0.63547,0.88477,0.6902
18.344,0.14956,0.55816,0.5899,0.84961,0.73137
18.352,0.15152,0.55132,0.60961,0.875,0.77059
18.36,0.15347,0.5435,0.61453,0.81055,0.7
18.368,0.15445,0.53568,0.57512,0.81445,0.76078
18.376,0.1564,0.52786,0.55542,0.80469,0.77647
18.384,0.15836,0.52004,0.54557,0.83008,0.79608
18.392,0.16031,0.51124,0.52463,0.84961,0.82549
18.4,0.16129,0.50147,0.52463,0.84375,0.78039
18.408,0.16325,0.49365,0.52463,0.88867,0.82549
18.416,0.16422,0.48778,0.52956,0.89453,0.76667
18.424,0.1652,0.48192,0.49507,0.88477,0.81569
18.432,0.16618,0.47801,0.48522,0.93945,0.83529
18.44,0.16618,0.4741,0.50985,0.91016,0.77059
18.448,0.16618,0.46921,0.50985,0.93945,0.79608
18.456,0.16618,0.45943,0.52463,0.93555,0.77059
18.464,0.16618,0.44282,0.52956,0.94531,0.77647
18.472,0.16618,0.41838,0.5197,0.91016,0.76667
18.48,0.16618,0.3871,0.50985,0.91406,0.77647
18.488,0.1652,0.35191,0.53941,0.92969,0.79608
18.496,0.1652,0.31867,0.55049,0.9043,0.7549
18.504,0.16422,0.28935,0.56034,0.89453,0.73137
18.512,0.16227,0.26784,0.57512,0.88477,0.72157
18.52,0.16129,0.25709,0.58005,0.89453,0.69608
18.528,0.15836,0.25611,0.5899,0.87891,0.70588
18.536,0.1564,0.26491,0.56527,0.89453,0.75098
18.544,0.15347,0.27957,0.57512,0.86914,0.7098
18.552,0.15152,0.3001,0.5702,0.875,0.73137
18.56,0.14956,0.32454,0.60961,0.84961,0.6902
18.568,0.14761,0.35191,0.57512,0.86914,0.77647
18.576,0.14467,0.37732,0.55049,0.82031,0.78627
18.584,0.14174,0.39883,0.60961,0.84375,0.73137
18.592,0.13783,0.4174,0.65025,0.81445,0.68039
18.6,0.13294,0.43402,0.64532,0.81055,0.7
18.608,0.12805,0.45064,0.64532,0.82031,0.72549
18.616,0.12219,0.47019,0.62438,0.80469,0.75098
18.624,0.11632,0.49169,0.60468,0.79883,0.71569
18.632,0.11046,0.51515,0.64532,0.80469,0.7
18.64,0.10557,0.53568,0.58005,0.82031,0.77059
18.648,0.10068,0.55425,0.55542,0.84961,0.7902
18.656,0.097752,0.5738,0.57512,0.84375,0.7098
18.664,0.093842,0.5914,0.58005,0.87891,0.72157
18.672,0.089932,0.60606,0.56034,0.85547,0.69608
18.68,0.086022,0.61877,0.57512,0.84961,0.6902
18.688,0.083089,0.62952,0.52463,0.88477,0.76078
18.696,0.079179,0.6393,0.53941,0.86914,0.73529
18.704,0.075269,0.64614,0.55049,0.86523,0.72157
18.712,0.072336,0.652,0.52956,0.90039,0.76078
18.72,0.069404,0.65591,0.51478,0.91992,0.83137
18.728,0.067449,0.65885,0.52463,0.84961,0.72157
18.736,0.065494,0.65982,0.50985,0.91016,0.7549
18.744,0.064516,0.65982,0.47537,1.0547,0.85686
18.752,0.063539,0.65787,0.44458,0.94922,0.90588
18.76,0.063539,0.65591,0.52463,0.67969,0.86667
18.768,0.063539,0.65298,0.60468,0.47461,0.91176
18.776,0.063539,0.64907,0.43966,0.42578,0.86667
18.784,0.064516,0.64321,0.58005,0.58008,0.7098
18.792,0.066471,0.63734,0.64039,0.73438,0.62941
18.8,0.068426,0.6305,0.5702,0.84375,0.7
18.808,0.070381,0.62366,0.52956,0.89453,0.7451
18.816,0.072336,0.61584,0.55049,0.9043,0.71569
18.824,0.075269,0.60704,0.55542,0.92969,0.7098
18.832,0.079179,0.59531,0.53448,0.93945,0.71569
18.84,0.083089,0.58456,0.55542,0.92969,0.66471
18.848,0.086999,0.5738,0.52463,0.96484,0.73529
18.856,0.091887,0.56109,0.5197,0.97461,0.7549
18.864,0.095797,0.54741,0.53448,0.93945,0.70588
18.872,0.10068,0.53372,0.55049,0.92383,0.67647
18.88,0.10557,0.51711,0.55049,0.96875,0.72549
18.888,0.10948,0.49658,0.55542,0.95508,0.7098
18.896,0.11535,0.47116,0.56527,0.94922,0.69608
18.904,0.12219,0.43988,0.5702,0.94531,0.7
18.912,0.12903,0.40469,0.5702,0.94922,0.69608
18.92,0.13587,0.37048,0.57512,0.92969,0.68627
18.928,0.14467,0.34115,0.65025,0.95508,0.64118
18.936,0.15347,0.32063,0.6601,0.92383,0.60588
18.944,0.16227,0.30987,0.55542,0.92969,0.72549
18.952,0.17204,0.30792,0.56034,0.96875,0.77647
18.96,0.17986,0.31574,0.57512,0.91406,0.67059
18.968,0.18866,0.33138,0.59483,0.92969,0.68039
18.976,0.19648,0.35386,0.60468,0.92969,0.6902
18.984,0.2043,0.37928,0.59975,0.93555,0.7
18.992,0.21212,0.40567,0.61946,0.92383,0.67059
19,0.21896,0.42815,0.60961,0.93945,0.7
19.008,0.22678,0.44575,0.60468,0.91992,0.72549
19.016,0.23363,0.45846,0.61946,0.94922,0.74118
19.024,0.23949,0.46725,0.60468,0.93555,0.72549
19.032,0.24536,0.47507,0.60961,0.92383,0.72157
19.04,0.24927,0.48094,0.57512,0.91016,0.73529
19.048,0.25318,0.48778,0.55049,0.9043,0.7902
19.056,0.25415,0.49658,0.52956,0.91406,0.79608
19.064,0.25513,0.50635,0.50493,0.89453,0.80588
19.072,0.25415,0.51613,0.50985,0.88867,0.8
19.08,0.2522,0.5259,0.4803,0.875,0.8451
19.088,0.24731,0.5347,0.49507,0.84961,0.79608
19.096,0.2434,0.54154,0.5,0.85938,0.7902
19.104,0.23656,0.54741,0.50493,0.86914,0.81569
19.112,0.23069,0.55327,0.55049,0.875,0.75098
19.12,0.22385,0.55718,0.55542,0.88867,0.77059
19.128,0.21701,0.56109,0.52956,0.875,0.76667
19.136,0.21114,0.56403,0.55049,0.90039,0.78627
19.144,0.2043,0.56696,0.49015,0.86914,0.83137
19.152,0.19648,0.56891,0.51478,0.86523,0.75098
19.16,0.18866,0.56989,0.50493,0.875,0.77059
19.168,0.17986,0.57087,0.5,0.86523,0.78039
19.176,0.17107,0.57087,0.54557,0.86914,0.72549
19.184,0.16325,0.57087,0.52956,0.85547,0.78627
19.192,0.15445,0.56891,0.56527,0.875,0.73137
19.2,0.14761,0.56598,0.54557,0.84961,0.72157
19.208,0.14076,0.56109,0.52463,0.85938,0.79608
19.216,0.1349,0.55523,0.50985,0.83398,0.80588
19.224,0.13001,0.54839,0.52463,0.81055,0.72549
19.232,0.12512,0.54057,0.53448,0.83984,0.7451
19.24,0.12121,0.53275,0.55049,0.85938,0.74118
19.248,0.11926,0.5259,0.53941,0.86523,0.76078
19.256,0.11632,0.51808,0.56527,0.84375,0.72549
19.264,0.11437,0.51124,0.55542,0.87891,0.7902
19.272,0.11339,0.5044,0.59975,0.86523,0.73137
19.28,0.11339,0.49853,0.62438,0.89453,0.75098
19.288,0.11339,0.4956,0.60961,0.85938,0.7
19.296,0.11437,0.49462,0.61453,0.87891,0.73529
19.304,0.11535,0.4956,0.57512,0.90039,0.7902
19.312,0.1173,0.49756,0.58498,0.875,0.76667
19.32,0.12023,0.49951,0.59483,0.84961,0.72157
19.328,0.12317,0.50049,0.56034,0.88867,0.77647
19.336,0.12708,0.49853,0.54557,0.88477,0.7549
19.344,0.13001,0.49658,0.55049,0.87891,0.75098
19.352,0.13392,0.49267,0.5197,0.875,0.76667
19.36,0.13685,0.48876,0.53448,0.86914,0.73529
19.368,0.14076,0.48778,0.52463,0.87891,0.77647
19.376,0.14467,0.48876,0.51478,0.85938,0.7902
19.384,0.14858,0.49462,0.50985,0.83984,0.73137
19.392,0.15152,0.5044,0.52463,0.83398,0.72549
19.4,0.15543,0.51613,0.50985,0.86914,0.77647
19.408,0.15836,0.52981,0.50985,0.875,0.78039
19.416,0.16129,0.54252,0.5197,0.85547,0.73529
19.424,0.16422,0.5523,0.49015,1,0.8
19.432,0.16618,0.55914,0.43473,1.0547,0.87647
19.44,0.16813,0.56207,0.40025,0.80469,0.98235
19.448,0.17009,0.56305,0.56527,0.53906,0.99216
19.456,0.17107,0.56305,0.58498,0.42969,0.8451
19.464,0.17204,0.56207,0.48522,0.55078,0.7549
19.472,0.17204,0.56403,0.64039,0.66406,0.65098
19.48,0.17204,0.56891,0.56034,0.81445,0.7098
19.488,0.17107,0.57674,0.53941,0.84961,0.72157
19.496,0.17009,0.58749,0.55542,0.91016,0.67059
19.504,0.16911,0.59922,0.55049,0.91406,0.70588
19.512,0.16813,0.60997,0.56034,0.90039,0.67059
19.52,0.16716,0.61877,0.57512,0.93555,0.7
19.528,0.16618,0.62366,0.55049,0.94922,0.66471
19.536,0.16618,0.62463,0.54557,0.91406,0.74118
19.544,0.16618,0.62463,0.57512,0.9043,0.65098
19.552,0.16618,0.62366,0.55049,0.92969,0.69608
19.56,0.16618,0.62268,0.59483,0.94531,0.64118
19.568,0.16813,0.6217,0.55542,0.91992,0.69608
19.576,0.17009,0.62072,0.56527,0.95508,0.74118
19.584,0.174,0.62072,0.55049,0.89453,0.66471
19.592,0.17693,0.61975,0.55049,0.91992,0.7098
19.6,0.18182,0.61877,0.5899,0.94531,0.72549
19.608,0.18573,0.61584,0.58005,0.91406,0.67059
19.616,0.19159,0.6129,0.55542,0.88867,0.6549
19.624,0.19746,0.60899,0.55542,0.91992,0.72157
19.632,0.20626,0.60313,0.55049,0.92383,0.70588
19.64,0.21505,0.59726,0.56527,0.93945,0.7451
19.648,0.22678,0.5914,0.58498,0.92383,0.68627
19.656,0.23851,0.58358,0.61946,0.95508,0.67059
19.664,0.25122,0.5738,0.5899,0.97461,0.73137
19.672,0.26393,0.565,0.57512,0.94531,0.70588
19.68,0.27664,0.55523,0.5899,0.95898,0.69608
19.688,0.29032,0.54545,0.56527,0.99023,0.7902
19.696,0.30596,0.53568,0.58498,0.96484,0.71569
19.704,0.32063,0.5259,0.5702,0.95508,0.7451
19.712,0.33724,0.51613,0.57512,0.95898,0.76667
19.72,0.35386,0.50538,0.55049,0.92383,0.73137
19.728,0.3695,0.49365,0.55049,0.93945,0.78039
19.736,0.38612,0.48192,0.53448,0.92383,0.78627
19.744,0.40176,0.47214,0.52463,0.94531,0.85098
19.752,0.4174,0.46139,0.51478,0.91406,0.81569
19.76,0.43011,0.45161,0.51478,0.88867,0.7902
19.768,0.44379,0.44477,0.49507,0.89453,0.81176
19.776,0.45455,0.44282,0.49015,0.85938,0.7902
19.784,0.4653,0.44379,0.52463,0.86914,0.76667
19.792,0.47312,0.44868,0.50985,0.875,0.79608
19.8,0.48192,0.45455,0.5,0.88477,0.81176
19.808,0.48778,0.46139,0.50493,0.85938,0.78627
19.816,0.49462,0.46823,0.49507,0.86523,0.84118
19.824,0.49951,0.47312,0.49015,0.84375,0.7902
19.832,0.5044,0.47703,0.53448,0.875,0.77059
19.84,0.50733,0.47801,0.54557,0.81445,0.69608
19.848,0.51124,0.47898,0.53448,0.84961,0.7098
19.856,0.51417,0.47996,0.55542,0.86914,0.73529
19.864,0.51808,0.48192,0.54557,0.86523,0.75098
19.872,0.52199,0.48583,0.5197,0.84961,0.7451
19.88,0.5259,0.49169,0.52463,0.85938,0.77059
19.888,0.52981,0.49853,0.52463,0.87891,0.8
19.896,0.53372,0.50635,0.55049,0.86914,0.74118
19.904,0.53763,0.5132,0.55542,0.85547,0.72157
19.912,0.54154,0.51906,0.56034,0.90039,0.76667
19.92,0.54545,0.52297,0.58498,0.85547,0.7
19.928,0.54936,0.52493,0.59483,0.88867,0.73529
19.936,0.55425,0.52688,0.57512,0.88867,0.74118
19.944,0.55816,0.52884,0.61946,0.875,0.71569
19.952,0.565,0.53177,0.64532,0.85938,0.68627
19.96,0.57087,0.53666,0.64039,0.85547,0.73529
19.968,0.57967,0.54252,0.64039,0.87891,0.7
19.976,0.58749,0.54936,0.58005,0.86914,0.76667
19.984,0.59531,0.55718,0.5899,0.84961,0.72549
19.992,0.60411,0.565,0.61453,0.86914,0.70588
20,0.6129,0.57185,0.57512,0.88477,0.75098
20.008,0.62268,0.57869,0.55542,0.875,0.7
20.016,0.63343,0.58456,0.51478,0.93945,0.80588
20.024,0.64516,0.58944,0.5,0.90039,0.76667
20.032,0.65982,0.59238,0.55542,0.91016,0.72157
20.04,0.67351,0.59433,0.51478,0.88867,0.74118
20.048,0.69013,0.59433,0.5,0.91406,0.77647
20.056,0.70674,0.59238,0.5197,0.90039,0.7451
20.064,0.72532,0.58847,0.46552,0.91406,0.82549
20.072,0.74389,0.58456,0.48522,0.90039,0.81569
20.08,0.76246,0.57967,0.5,0.86914,0.75098
20.088,0.78006,0.57478,0.48522,0.90039,0.78627
20.096,0.79765,0.57087,0.45443,1,0.85098
20.104,0.81427,0.56696,0.40517,1.0586,0.89608
20.112,0.83382,0.56403,0.37562,0.86523,0.97059
20.12,0.85337,0.56109,0.57512,0.5957,0.86078
20.128,0.87488,0.56109,0.61453,0.53516,0.84118
20.136,0.89541,0.56109,0.50985,0.61914,0.73529
20.144,0.91496,0.56794,0.6798,0.70508,0.61569
20.152,0.93353,0.57771,0.59483,0.83398,0.68627
20.16,0.95112,0.58456,0.55542,0.86914,0.66471
20.168,0.96872,0.59042,0.5197,0.88867,0.73137
20.176,0.98436,0.59531,0.5197,0.88867,0.74118
20.184,1,0.59824,0.55049,0.88477,0.68039
20.192,1,0.59922,0.56527,0.9043,0.67647
20.2,1,0.59922,0.53941,0.90039,0.72157
20.208,1,0.59629,0.55542,0.88867,0.68039
20.216,1,0.59238,0.55049,0.88867,0.67059
20.224,1,0.58749,0.56527,0.91406,0.70588
20.232,1,0.58456,0.5899,0.89453,0.66471
20.24,1,0.58162,0.56034,0.88867,0.7
20.248,1,0.58065,0.55049,0.93555,0.7451
20.256,1,0.58065,0.58005,0.91406,0.7098
20.264,1,0.58162,0.56527,0.88867,0.67059
20.272,1,0.58358,0.58005,0.91406,0.69608
20.28,1,0.58553,0.5899,0.9043,0.67647
20.288,1,0.58749,0.57512,0.91406,0.6902
20.296,1,0.58944,0.59483,0.90039,0.66078
20.304,1,0.59042,0.59975,0.92969,0.6902
20.312,1,0.59042,0.59975,0.91406,0.66471
20.32,1,0.5914,0.58005,0.94531,0.7098
20.328,1,0.59238,0.57512,0.9043,0.67647
20.336,1,0.59335,0.59483,0.92969,0.71569
20.344,1,0.59335,0.58498,0.94531,0.72549
20.352,1,0.59433,0.5899,0.93945,0.7
20.36,1,0.59433,0.60961,0.95508,0.7
20.368,1,0.59531,0.61946,0.94531,0.68039
20.376,1,0.59629,0.59483,0.96875,0.75098
20.384,1,0.59629,0.56527,0.93945,0.73137
20.392,1,0.59726,0.53448,0.91992,0.75098
20.4,1,0.59726,0.56034,0.95508,0.76667
20.408,1,0.59824,0.50985,0.91992,0.79608
20.416,1,0.59726,0.5,0.91406,0.81569
20.424,1,0.59531,0.50985,0.92383,0.8
20.432,1,0.5914,0.5,0.93555,0.83529
20.44,1,0.58553,0.47044,0.91406,0.85098
20.448,1,0.5738,0.48522,0.9043,0.80588
20.456,1,0.56207,0.5,0.94531,0.8451
20.464,1,0.5523,0.4803,0.88867,0.8
20.472,1,0.54057,0.4803,0.91406,0.86078
20.48,1,0.52786,0.50493,0.84375,0.72157
20.488,1,0.51711,0.52463,0.87891,0.7549
20.496,1,0.50733,0.5197,0.88477,0.77647
20.504,1,0.49853,0.52956,0.85547,0.7451
20.512,1,0.49169,0.53941,0.875,0.77647
20.52,1,0.48583,0.55049,0.85547,0.74118
20.528,1,0.48192,0.53941,0.85938,0.75098
20.536,1,0.47996,0.54557,0.89453,0.80588
20.544,1,0.48094,0.54557,0.86523,0.81176
20.552,1,0.48289,0.55049,0.84961,0.72549
20.56,1,0.4868,0.53941,0.84375,0.7451
20.568,1,0.49169,0.60468,0.85938,0.66471
20.576,1,0.49853,0.62438,0.875,0.73529
20.584,1,0.50538,0.53941,0.84961,0.7549
20.592,1,0.51222,0.55049,0.85938,0.75098
20.6,1,0.51711,0.56034,0.87891,0.76667
20.608,1,0.52102,0.57512,0.88477,0.75098
20.616,1,0.52395,0.56527,0.84961,0.73137
20.624,0.99804,0.5259,0.59483,0.875,0.72549
20.632,0.99707,0.52884,0.63054,0.85547,0.70588
20.64,0.9824,0.53177,0.68966,0.84961,0.63529
20.648,0.96774,0.53568,0.6601,0.83984,0.68039
20.656,0.9521,0.54154,0.62438,0.85938,0.72549
20.664,0.93646,0.54936,0.60961,0.86523,0.73137
20.672,0.91984,0.55914,0.64039,0.875,0.71569
20.68,0.90323,0.56989,0.61453,0.86914,0.73137
20.688,0.88563,0.58065,0.56527,0.90039,0.77059
20.696,0.86804,0.5914,0.53448,0.86914,0.74118
20.704,0.85142,0.60117,0.53941,0.86523,0.73137
20.712,0.83382,0.60997,0.5197,0.88477,0.75098
20.72,0.8172,0.61681,0.53941,0.89453,0.7549
20.728,0.80156,0.62366,0.52956,0.86523,0.72549
20.736,0.7869,0.62854,0.54557,0.85938,0.72157
20.744,0.77126,0.63343,0.50985,0.86914,0.77647
20.752,0.7566,0.63734,0.5197,0.84961,0.73529
20.76,0.74194,0.64223,0.53941,0.85547,0.72157
20.768,0.72727,0.64614,0.51478,0.85547,0.76078
20.776,0.71163,0.65005,0.4803,0.91992,0.81176
20.784,0.69892,0.65298,0.43966,1.0254,0.87059
20.792,0.68622,0.65494,0.4101,0.94531,0.99216
20.8,0.67449,0.65689,0.56034,0.6543,0.85098
20.808,0.66373,0.65787,0.63547,0.5293,0.81176
20.816,0.65298,0.65787,0.48522,0.60547,0.91176
20.824,0.64223,0.65689,0.64039,0.68555,0.6451
20.832,0.63245,0.65591,0.59483,0.78906,0.61569
20.84,0.62268,0.65298,0.53448,0.89453,0.69608
20.848,0.61486,0.64907,0.52463,0.92383,0.68627
20.856,0.60606,0.64418,0.55049,0.94531,0.69608
20.864,0.59922,0.63636,0.53941,0.94531,0.6902
20.872,0.59238,0.62659,0.53448,0.94531,0.7098
20.88,0.58651,0.61584,0.53448,0.93945,0.7098
20.888,0.58162,0.60215,0.55049,0.92969,0.7
20.896,0.57674,0.58944,0.54557,0.92383,0.70588
20.904,0.57283,0.57674,0.55049,0.92383,0.70588
20.912,0.56891,0.565,0.55049,0.92383,0.7
20.92,0.565,0.55718,0.55542,0.92969,0.7098
20.928,0.56207,0.55132,0.56527,0.92383,0.6902
20.936,0.56012,0.54839,0.56034,0.93555,0.70588
20.944,0.55718,0.54741,0.57512,0.96484,0.73137
20.952,0.55523,0.54839,0.58005,0.97461,0.74118
20.96,0.55327,0.55132,0.59483,0.94531,0.6451
20.968,0.55132,0.55425,0.58498,0.93945,0.62941
20.976,0.54936,0.55718,0.57512,0.96484,0.66471
20.984,0.54839,0.56012,0.59483,0.99414,0.67059
20.992,0.54643,0.56207,0.59975,0.99414,0.66471
21,0.54545,0.56305,0.60468,1.0098,0.67647
21.008,0.5435,0.56403,0.58005,1.0137,0.70588
21.016,0.54154,0.565,0.57512,1.0195,0.72549
21.024,0.53959,0.56794,0.57512,1.0195,0.71569
21.032,0.53763,0.57087,0.61453,1.0352,0.68627
21.04,0.5347,0.57478,0.63054,1.0449,0.67059
21.048,0.53177,0.58065,0.5899,1.0391,0.72549
21.056,0.52786,0.58553,0.61946,1.0449,0.7
21.064,0.52395,0.59042,0.63547,1.0703,0.74118
21.072,0.51808,0.59433,0.59975,1.0195,0.7
21.08,0.5132,0.59531,0.60468,1.0137,0.72157
21.088,0.50538,0.59531,0.5899,1.0293,0.7
21.096,0.49853,0.59335,0.55049,1.0039,0.72549
21.104,0.48974,0.59238,0.53448,1,0.7549
21.112,0.48192,0.5914,0.5702,1.0137,0.72549
21.12,0.47312,0.59042,0.57512,0.99414,0.7902
21.128,0.46432,0.59042,0.40517,0.98047,0.91176
21.136,0.45259,0.59042,0.40025,0.99414,0.90196
21.144,0.44184,0.58944,0.46059,1.0039,0.86078
21.152,0.42815,0.58944,0.4803,1.0137,0.83137
21.16,0.41544,0.58847,0.5,1.0195,0.79608
21.168,0.40078,0.58651,0.5197,1.0586,0.83137
21.176,0.3871,0.58456,0.55049,1.084,0.77059
21.184,0.37243,0.58065,0.56034,1.0391,0.68039
21.192,0.35777,0.57674,0.56527,1.0645,0.69608
21.2,0.34506,0.57283,0.55049,1.084,0.68627
21.208,0.33236,0.56794,0.53941,1.1094,0.71569
21.216,0.32063,0.56403,0.5197,1.1387,0.74118
21.224,0.30987,0.55816,0.50985,1.1738,0.75098
21.232,0.3001,0.55327,0.51478,1.1992,0.74118
21.24,0.29032,0.54839,0.50493,1.2051,0.73529
21.248,0.28152,0.54057,0.52463,1.2246,0.78039
21.256,0.27175,0.53079,0.44458,1.1895,0.87059
21.264,0.26393,0.52102,0.40517,1.1035,0.88627
21.272,0.25611,0.51222,0.47537,1.0898,0.81569
21.28,0.24927,0.50538,0.56034,1.1348,0.85098
21.288,0.24242,0.50147,0.63547,1.0352,0.66471
21.296,0.23656,0.50049,0.67488,0.99414,0.68039
21.304,0.23069,0.50244,0.68966,0.97461,0.72157
21.312,0.22581,0.50733,0.75,0.94922,0.70588
21.32,0.22092,0.51515,0.8202,0.90039,0.65098
21.328,0.21603,0.52297,0.91502,0.91016,0.57451
21.336,0.21114,0.53177,0.92488,0.86523,0.57059
21.344,0.20528,0.53861,0.79557,0.83008,0.67647
21.352,0.20039,0.54643,0.8399,0.82422,0.68627
21.36,0.1955,0.55425,0.90025,0.78516,0.6
21.368,0.19062,0.56109,0.88547,0.7207,0.5451
21.376,0.18573,0.56696,0.9101,0.69922,0.53922
21.384,0.18182,0.5738,0.89039,0.68555,0.59608
21.392,0.17498,0.57967,0.9298,0.57422,0.43529
21.4,0.16911,0.58553,1.0505,0.57031,0.33922
21.408,0.16129,0.5914,1.08,0.56055,0.41569
21.416,0.15347,0.59629,0.96552,0.5293,0.5
21.424,0.14663,0.60215,0.94458,0.5293,0.52941
21.432,0.14076,0.60606,0.96552,0.56055,0.5
21.44,0.1349,0.60899,0.93966,0.58008,0.52549
21.448,0.12903,0.6129,0.9298,0.5957,0.51961
21.456,0.12219,0.61681,0.93966,0.65039,0.5549
21.464,0.11632,0.61877,0.89532,0.81445,0.69608
21.472,0.10948,0.6217,0.86946,0.82031,0.57451
21.48,0.10264,0.62268,0.85961,0.49414,0.5549
21.488,0.095797,0.62366,1.1096,0.24023,0.4549
21.496,0.089932,0.62366,0.93473,0.19531,0.6098
21.504,0.084066,0.62366,0.8202,0.37109,0.6549
21.512,0.079179,0.62268,0.93473,0.52539,0.49412
21.52,0.075269,0.6217,0.80542,0.69531,0.57059
21.528,0.071359,0.62072,0.71552,0.81055,0.61569
21.536,0.069404,0.61877,0.66995,0.86523,0.62941
21.544,0.067449,0.61681,0.64532,0.9043,0.64118
21.552,0.068426,0.61486,0.66502,0.95898,0.59608
21.56,0.069404,0.61193,0.68473,0.99414,0.57059
21.568,0.072336,0.60899,0.52956,1,0.7
21.576,0.075269,0.60606,0.4803,1.0352,0.7451
21.584,0.079179,0.60313,0.39039,1.0742,0.90588
21.592,0.083089,0.6002,0.35961,1.0645,0.87059
21.6,0.087977,0.59726,0.33498,1.1035,0.90588
21.608,0.092864,0.59433,0.35961,1.0352,0.72157
21.616,0.099707,0.5914,0.33498,1.0449,0.75098
21.624,0.10655,0.58944,0.31527,1.0898,0.77059
21.632,0.11632,0.58749,0.19951,1.1094,0.86078
21.64,0.1261,0.58553,0.050493,1.1289,0.98235
21.648,0.13587,0.58358,-0.060345,1.1445,1.0608
21.656,0.14663,0.58065,-0.070197,1.1699,1.0667
21.664,0.15836,0.57869,-0.060345,1.1895,1.0314
21.672,0.17009,0.57674,-0.075123,1.2148,1.0471
21.68,0.17986,0.57478,-0.060345,1.2441,1.0157
21.688,0.18964,0.5738,-0.12931,1.2402,1.0922
21.696,0.19844,0.57185,-0.060345,1.2852,1.1216
21.704,0.20821,0.57185,0.050493,1.2637,0.91176
21.712,0.21603,0.57087,0.065271,1.2539,1.0157
21.72,0.22483,0.57087,-0.065271,1.2695,1.1725
21.728,0.23265,0.56989,0.045567,1.1641,0.97647
21.736,0.24047,0.56891,0.094828,1.1543,0.94118
21.744,0.24731,0.56891,0.089901,1.1387,1.0059
21.752,0.25318,0.56794,0.10961,1.1348,1.0157
21.76,0.25806,0.56696,0.1601,1.1289,0.98235
21.768,0.26295,0.56696,0.084975,1.084,1.0765
21.776,0.26491,0.56696,0.16502,1.084,0.99608
21.784,0.26784,0.56598,0.16995,1.0703,0.98627
21.792,0.26784,0.56598,0.10468,1.0586,1.0725
21.8,0.26882,0.565,0.12562,1.0488,1.0863
21.808,0.26784,0.56403,0.17488,1.0703,1.0725
21.816,0.26686,0.56207,0.21059,1.0195,0.99216
21.824,0.26393,0.56012,0.20443,0.97461,0.95098
21.832,0.26197,0.55816,0.23522,0.96875,0.95686
21.84,0.25806,0.55718,0.30049,0.93945,0.82549
21.848,0.25513,0.55523,0.32512,0.92969,0.81176
