Time [s], RESP, PLETH, II, V, AVR, CVP
0,0.20626,0.18866,0.46552,0.53033,0.43966,37.04
0.008,0.20821,0.20137,0.46552,0.52544,0.4298,37.04
0.016,0.21017,0.21994,0.47537,0.53523,0.41995,37.04
0.024,0.21114,0.2522,0.49015,0.54501,0.41502,37.04
0.032,0.2131,0.29717,0.50493,0.5499,0.40025,37.04
0.04,0.21408,0.35288,0.51478,0.55479,0.38547,37.04
0.048,0.21603,0.4174,0.54557,0.55969,0.35468,37.04
0.056,0.21701,0.48778,0.56527,0.57045,0.3399,37.04
0.064,0.21799,0.55523,0.58498,0.58023,0.31527,37.04
0.072,0.21896,0.6129,0.5899,0.58513,0.31527,37.04
0.08,0.21994,0.6608,0.55542,0.56458,0.34483,37.04
0.088,0.22092,0.70186,0.5197,0.54501,0.37562,37.04
0.096,0.2219,0.73412,0.49015,0.53033,0.40517,37.04
0.104,0.2219,0.75855,0.46552,0.51468,0.43966,37.04
0.112,0.22287,0.77322,0.43966,0.50489,0.47044,37.04
0.12,0.22287,0.78104,0.41502,0.49511,0.49015,37.04
0.128,0.22287,0.78397,0.39532,0.49022,0.51478,37.04
0.136,0.22287,0.78201,0.38547,0.49022,0.5197,37.04
0.144,0.22287,0.77419,0.39039,0.49511,0.5197,37.04
0.152,0.2219,0.76246,0.39039,0.49022,0.5197,37.04
0.16,0.2219,0.7478,0.39532,0.48532,0.5197,37.04
0.168,0.2219,0.72923,0.39039,0.49511,0.5197,37.04
0.176,0.2219,0.7087,0.39532,0.5,0.51478,37.04
0.184,0.22092,0.68622,0.39532,0.50489,0.51478,37.04
0.192,0.21994,0.66178,0.40517,0.50978,0.50493,37.04
0.2,0.21799,0.63832,0.39532,0.51957,0.49507,37.04
0.208,0.21603,0.61779,0.42488,0.57534,0.57512,37.04
0.216,0.21505,0.59824,0.46059,0.63992,0.6601,37.04
0.224,0.2131,0.57869,0.47044,0.64971,0.74507,37.04
0.232,0.21114,0.55816,0.45443,0.48043,0.76478,37.04
0.24,0.20919,0.53666,0.4803,0.27495,0.66995,37.04
0.248,0.20821,0.51613,0.44951,0.23483,0.71552,37.04
0.256,0.20626,0.49658,0.39039,0.33953,0.7303,37.04
0.264,0.2043,0.47703,0.37562,0.42955,0.61453,37.04
0.272,0.20332,0.45943,0.41502,0.49511,0.50985,37.04
0.28,0.20137,0.44282,0.41995,0.50978,0.47044,37.04
0.288,0.20039,0.4262,0.4101,0.51468,0.44951,37.04
0.296,0.19844,0.40958,0.41502,0.51468,0.44951,37.04
0.304,0.19746,0.39296,0.4101,0.51468,0.44458,37.04
0.312,0.19648,0.37732,0.41502,0.51468,0.44458,37.04
0.32,0.1955,0.36364,0.4101,0.51468,0.44458,37.04
0.328,0.19453,0.34409,0.41995,0.51468,0.43966,37.04
0.336,0.19453,0.32649,0.41502,0.51468,0.43966,37.04
0.344,0.19453,0.31476,0.41995,0.51468,0.43473,37.04
0.352,0.19453,0.3001,0.41995,0.51468,0.43966,37.04
0.36,0.19453,0.28641,0.41995,0.50978,0.43473,37.04
0.368,0.19453,0.27468,0.41995,0.50978,0.43473,37.04
0.376,0.1955,0.26491,0.41995,0.50978,0.4298,37.04
0.384,0.19648,0.25513,0.42488,0.50978,0.43473,37.04
0.392,0.19746,0.24536,0.41995,0.50489,0.43473,37.04
0.4,0.19844,0.23656,0.41995,0.50978,0.4298,37.04
0.408,0.20039,0.22776,0.41502,0.50489,0.4298,37.04
0.416,0.20235,0.22092,0.4101,0.5,0.4298,37.04
0.424,0.2043,0.2131,0.4101,0.5,0.42488,37.04
0.432,0.20626,0.20528,0.4101,0.5,0.42488,37.04
0.44,0.20821,0.19844,0.41502,0.49511,0.41995,37.04
0.448,0.20919,0.19257,0.4101,0.49511,0.41502,37.04
0.456,0.21114,0.18866,0.40517,0.49511,0.40517,37.04
0.464,0.21212,0.18475,0.4101,0.49511,0.40025,37.04
0.472,0.2131,0.1828,0.41502,0.48532,0.40025,37.04
0.48,0.21505,0.17986,0.41502,0.48532,0.39039,37.04
0.488,0.21603,0.17791,0.41502,0.48532,0.38054,37.04
0.496,0.21701,0.17498,0.42488,0.48532,0.38054,37.04
0.504,0.21701,0.17107,0.4298,0.48532,0.38054,37.04
0.512,0.21799,0.16911,0.4298,0.48532,0.38054,37.04
0.52,0.21896,0.16813,0.43473,0.49022,0.38054,37.04
0.528,0.21994,0.16618,0.44458,0.5,0.38054,37.04
0.536,0.21994,0.16422,0.44458,0.50489,0.38547,37.04
0.544,0.21994,0.16227,0.44951,0.51468,0.39532,37.04
0.552,0.21896,0.16031,0.46059,0.51957,0.40025,37.04
0.56,0.21896,0.16031,0.46552,0.51957,0.40517,37.04
0.568,0.21799,0.16129,0.47044,0.53523,0.41502,37.04
0.576,0.21799,0.16325,0.47044,0.53523,0.42488,37.04
0.584,0.21701,0.1652,0.47044,0.53033,0.4298,37.04
0.592,0.21603,0.16716,0.47044,0.53033,0.43473,37.04
0.6,0.21505,0.16813,0.47537,0.53033,0.43473,37.04
0.608,0.21505,0.17009,0.47044,0.52544,0.43966,37.04
0.616,0.21505,0.17204,0.47044,0.53033,0.44458,37.04
0.624,0.21408,0.17302,0.47044,0.52544,0.44458,37.04
0.632,0.21408,0.174,0.47537,0.51957,0.44951,37.04
0.64,0.21408,0.17595,0.47537,0.51957,0.44951,37.04
0.648,0.21408,0.17791,0.47044,0.51957,0.44951,37.04
0.656,0.21408,0.17986,0.47044,0.51957,0.44951,37.04
0.664,0.21505,0.18182,0.47044,0.52544,0.44951,37.04
0.672,0.21505,0.1828,0.47044,0.53033,0.44458,37.04
0.68,0.21505,0.18475,0.47044,0.53033,0.44458,37.04
0.688,0.21603,0.18671,0.47044,0.53033,0.43966,37.04
0.696,0.21603,0.18866,0.47044,0.52544,0.43966,37.04
0.704,0.21701,0.19062,0.47044,0.53033,0.43966,37.04
0.712,0.21896,0.19355,0.46552,0.53033,0.43966,37.04
0.72,0.21994,0.19648,0.46552,0.53033,0.43966,37.04
0.728,0.2219,0.19941,0.47044,0.52544,0.43473,37.04
0.736,0.22287,0.20137,0.47044,0.53033,0.43966,37.04
0.744,0.22483,0.20235,0.47044,0.53033,0.43966,37.04
0.752,0.22678,0.20137,0.47044,0.53033,0.43473,37.04
0.76,0.22776,0.20039,0.4803,0.53033,0.43966,37.04
0.768,0.22972,0.19941,0.47537,0.53033,0.43966,37.04
0.776,0.23069,0.20039,0.4803,0.52544,0.43473,37.04
0.784,0.23167,0.20821,0.47537,0.52544,0.43966,37.04
0.792,0.23363,0.22483,0.47044,0.51468,0.43473,37.04
0.8,0.2346,0.2522,0.4803,0.53033,0.42488,37.04
0.808,0.23656,0.28446,0.49015,0.53033,0.41502,37.04
0.816,0.23851,0.32454,0.50493,0.53523,0.4101,37.04
0.824,0.23949,0.37732,0.51478,0.54501,0.39532,37.04
0.832,0.24047,0.43988,0.52956,0.55479,0.38054,37.04
0.84,0.24145,0.50733,0.55542,0.55969,0.35468,37.04
0.848,0.24242,0.57576,0.57512,0.57534,0.33005,37.04
0.856,0.24438,0.64027,0.59483,0.58023,0.31527,37.04
0.864,0.24536,0.6999,0.60468,0.58023,0.31034,37.04
0.872,0.24731,0.75073,0.56527,0.56458,0.3399,37.04
0.88,0.24829,0.79081,0.52956,0.54501,0.36946,37.04
0.888,0.24927,0.82111,0.49507,0.53033,0.40517,37.04
0.896,0.25024,0.84066,0.46552,0.50978,0.43473,37.04
0.904,0.25122,0.84946,0.44458,0.5,0.46059,37.04
0.912,0.2522,0.84946,0.41995,0.49511,0.49015,37.04
0.92,0.25415,0.84457,0.40025,0.49511,0.50493,37.04
0.928,0.25513,0.83382,0.39532,0.49511,0.51478,37.04
0.936,0.25611,0.81916,0.39532,0.49511,0.5197,37.04
0.944,0.25806,0.80254,0.39532,0.49511,0.5197,37.04
0.952,0.25904,0.78201,0.39532,0.49511,0.50985,37.04
0.96,0.26002,0.76051,0.40025,0.49511,0.51478,37.04
0.968,0.261,0.73607,0.39532,0.49511,0.51478,37.04
0.976,0.26197,0.70968,0.40025,0.49511,0.50985,37.04
0.984,0.26197,0.68231,0.40517,0.50978,0.50985,37.04
0.992,0.26197,0.65396,0.4101,0.51468,0.49507,37.04
1,0.261,0.62659,0.42488,0.57534,0.57512,37.04
1.008,0.261,0.60215,0.46552,0.63992,0.65025,37.04
1.016,0.26002,0.58065,0.4803,0.65558,0.74015,37.04
1.024,0.25904,0.55816,0.47537,0.5,0.75493,37.04
1.032,0.25806,0.53568,0.5,0.29941,0.67488,37.04
1.04,0.25709,0.51417,0.46059,0.24951,0.70936,37.04
1.048,0.25611,0.49365,0.40025,0.33953,0.72537,37.04
1.056,0.25513,0.47312,0.37562,0.42466,0.61946,37.04
1.064,0.25415,0.45161,0.41995,0.49511,0.50493,37.04
1.072,0.25318,0.43109,0.41995,0.50978,0.46059,37.04
1.08,0.2522,0.41251,0.4101,0.51468,0.44951,37.04
1.088,0.2522,0.39492,0.40517,0.51468,0.44951,37.04
1.096,0.25122,0.3783,0.4101,0.51468,0.44458,37.04
1.104,0.25122,0.36559,0.41502,0.51468,0.44458,37.04
1.112,0.25122,0.35679,0.41995,0.50978,0.43966,37.04
1.12,0.25024,0.348,0.41502,0.50978,0.43473,37.04
1.128,0.25024,0.34018,0.41995,0.50978,0.43473,37.04
1.136,0.25024,0.33138,0.41502,0.50978,0.43966,37.04
1.144,0.25024,0.3216,0.41995,0.50978,0.43966,37.04
1.152,0.25122,0.31281,0.41995,0.50978,0.43966,37.04
1.16,0.2522,0.30303,0.42488,0.50978,0.4298,37.04
1.168,0.25318,0.29326,0.42488,0.50978,0.4298,37.04
1.176,0.25415,0.28348,0.41995,0.5,0.4298,37.04
1.184,0.25611,0.27468,0.41502,0.5,0.43473,37.04
1.192,0.25904,0.26588,0.41995,0.5,0.42488,37.04
1.2,0.261,0.25904,0.41995,0.5,0.42488,37.04
1.208,0.26393,0.25415,0.41502,0.5,0.42488,37.04
1.216,0.26588,0.25122,0.4101,0.5,0.4298,37.04
1.224,0.26882,0.24731,0.4101,0.5,0.42488,37.04
1.232,0.27077,0.24242,0.4101,0.5,0.41995,37.04
1.24,0.2737,0.23949,0.40517,0.49022,0.4101,37.04
1.248,0.27664,0.23656,0.40517,0.48532,0.40517,37.04
1.256,0.28055,0.2346,0.4101,0.48532,0.40025,37.04
1.264,0.28348,0.23265,0.41502,0.48532,0.39532,37.04
1.272,0.28739,0.23069,0.41502,0.48532,0.39039,37.04
1.28,0.29032,0.22678,0.41502,0.48532,0.39039,37.04
1.288,0.29326,0.22287,0.41995,0.48532,0.38547,37.04
1.296,0.29619,0.21896,0.41995,0.48532,0.38054,37.04
1.304,0.29912,0.21505,0.41995,0.49022,0.38547,37.04
1.312,0.30303,0.2131,0.4298,0.49022,0.38054,37.04
1.32,0.30596,0.20919,0.42488,0.49511,0.39039,37.04
1.328,0.30987,0.20528,0.43966,0.50489,0.39039,37.04
1.336,0.31281,0.20235,0.44458,0.50978,0.39532,37.04
1.344,0.31672,0.19941,0.44458,0.50978,0.40025,37.04
1.352,0.31965,0.19746,0.44951,0.51957,0.4101,37.04
1.36,0.32258,0.19648,0.44458,0.51957,0.41995,37.04
1.368,0.32551,0.1955,0.44951,0.52544,0.4298,37.04
1.376,0.32845,0.1955,0.46059,0.53033,0.4298,37.04
1.384,0.33138,0.19648,0.46059,0.53033,0.43966,37.04
1.392,0.33431,0.19844,0.45443,0.53033,0.44458,37.04
1.4,0.33627,0.20235,0.46059,0.53523,0.44458,37.04
1.408,0.3392,0.20626,0.46059,0.53033,0.44951,37.04
1.416,0.34115,0.20919,0.45443,0.53033,0.44951,37.04
1.424,0.34409,0.21212,0.45443,0.53033,0.44951,37.04
1.432,0.34604,0.2131,0.46059,0.53033,0.44951,37.04
1.44,0.34897,0.21408,0.44951,0.53033,0.45443,37.04
1.448,0.35093,0.2131,0.46059,0.53033,0.44951,37.04
1.456,0.35386,0.21212,0.45443,0.53033,0.44951,37.04
1.464,0.35777,0.21017,0.46059,0.52544,0.44951,37.04
1.472,0.3607,0.20919,0.45443,0.53033,0.44951,37.04
1.48,0.36461,0.20821,0.46059,0.52544,0.44458,37.04
1.488,0.3695,0.20821,0.45443,0.52544,0.44951,37.04
1.496,0.37341,0.20821,0.45443,0.52544,0.44458,37.04
1.504,0.3783,0.20821,0.44951,0.52544,0.44951,37.04
1.512,0.38221,0.20919,0.45443,0.52544,0.44951,37.04
1.52,0.3871,0.20919,0.44951,0.53033,0.44951,37.04
1.528,0.39101,0.21017,0.45443,0.53033,0.44458,37.04
1.536,0.39589,0.21017,0.44951,0.53523,0.44951,37.04
1.544,0.40078,0.21017,0.46059,0.53033,0.44458,37.04
1.552,0.40469,0.21017,0.44951,0.52544,0.44951,37.04
1.56,0.40958,0.21114,0.44951,0.52544,0.44951,37.04
1.568,0.41544,0.21408,0.44951,0.53033,0.44951,37.04
1.576,0.42033,0.21994,0.45443,0.52544,0.44951,37.04
1.584,0.4262,0.23167,0.46059,0.52544,0.44458,37.04
1.592,0.43109,0.25024,0.46552,0.52544,0.43966,37.04
1.6,0.43597,0.27859,0.47044,0.53523,0.4298,37.04
1.608,0.43988,0.3089,0.49015,0.54012,0.41995,37.04
1.616,0.44379,0.34409,0.49015,0.5499,0.40517,37.04
1.624,0.44868,0.39296,0.50985,0.55479,0.39039,37.04
1.632,0.45357,0.44966,0.52463,0.56458,0.38054,37.04
1.64,0.45846,0.51222,0.54557,0.57534,0.35468,37.04
1.648,0.46334,0.57576,0.56527,0.58023,0.33498,37.04
1.656,0.46921,0.63636,0.5702,0.58513,0.33005,37.04
1.664,0.4741,0.6911,0.54557,0.57534,0.35468,37.04
1.672,0.47898,0.73803,0.50493,0.5499,0.38547,37.04
1.68,0.48387,0.77517,0.47537,0.53033,0.41995,37.04
1.688,0.48778,0.80254,0.44951,0.50978,0.43966,37.04
1.696,0.49169,0.81916,0.42488,0.50489,0.46552,37.04
1.704,0.4956,0.826,0.4101,0.5,0.49015,37.04
1.712,0.49951,0.82405,0.39039,0.49511,0.51478,37.04
1.72,0.50244,0.8172,0.38054,0.5,0.52463,37.04
1.728,0.50538,0.80547,0.38054,0.49511,0.5197,37.04
1.736,0.50831,0.78886,0.38054,0.49511,0.52463,37.04
1.744,0.51124,0.76931,0.38547,0.49511,0.5197,37.04
1.752,0.51417,0.7478,0.38547,0.5,0.51478,37.04
1.76,0.51711,0.72434,0.39532,0.5,0.51478,37.04
1.768,0.51906,0.69795,0.39532,0.49511,0.51478,37.04
1.776,0.52199,0.67253,0.39532,0.5,0.50493,37.04
1.784,0.52297,0.64614,0.40025,0.51468,0.49507,37.04
1.792,0.52493,0.62072,0.42488,0.57045,0.5702,37.04
1.8,0.52688,0.59433,0.46059,0.63014,0.65025,37.04
1.808,0.52786,0.56989,0.47044,0.64971,0.7303,37.04
1.816,0.52884,0.54839,0.49015,0.50489,0.75,37.04
1.824,0.53079,0.52493,0.5,0.29452,0.6601,37.04
1.832,0.53177,0.50342,0.46552,0.24462,0.70443,37.04
1.84,0.53275,0.48192,0.39532,0.32975,0.72044,37.04
1.848,0.53372,0.46237,0.36946,0.41977,0.61453,37.04
1.856,0.53568,0.44379,0.40025,0.49022,0.50985,37.04
1.864,0.53568,0.4262,0.40517,0.51468,0.47537,37.04
1.872,0.53666,0.4086,0.39532,0.51957,0.46552,37.04
1.88,0.53763,0.38905,0.39532,0.51468,0.45443,37.04
1.888,0.53861,0.36755,0.39532,0.51957,0.44951,37.04
1.896,0.53959,0.34702,0.39532,0.52544,0.44951,37.04
1.904,0.54057,0.32942,0.39532,0.52544,0.44951,37.04
1.912,0.54252,0.31378,0.40025,0.52544,0.44951,37.04
1.92,0.54448,0.29619,0.40517,0.51957,0.44458,37.04
1.928,0.54643,0.28055,0.4101,0.51957,0.43966,37.04
1.936,0.54936,0.26784,0.4101,0.51957,0.43966,37.04
1.944,0.55132,0.25611,0.4101,0.50978,0.43966,37.04
1.952,0.55425,0.24145,0.4101,0.50978,0.43473,37.04
1.96,0.55816,0.22776,0.41995,0.50978,0.4298,37.04
1.968,0.56109,0.21799,0.41502,0.51468,0.4298,37.04
1.976,0.56403,0.20723,0.41502,0.50978,0.4298,37.04
1.984,0.56794,0.19844,0.4101,0.50978,0.4298,37.04
1.992,0.57087,0.18866,0.41502,0.50978,0.42488,37.04
2,0.57478,0.17986,0.40517,0.50978,0.4298,37.04
2.008,0.57771,0.17302,0.40517,0.50489,0.42488,37.04
2.016,0.58162,0.16716,0.4101,0.50978,0.42488,37.04
2.024,0.58456,0.16129,0.40517,0.5,0.41995,37.04
2.032,0.58749,0.15543,0.40517,0.49511,0.41502,37.04
2.04,0.59042,0.14956,0.40025,0.49022,0.40517,37.04
2.048,0.59335,0.14467,0.40517,0.49022,0.40517,37.04
2.056,0.59629,0.14174,0.4101,0.49022,0.40025,37.04
2.064,0.6002,0.13978,0.4101,0.49022,0.39532,37.04
2.072,0.60313,0.13978,0.4101,0.49511,0.39039,37.04
2.08,0.60606,0.14076,0.4101,0.49022,0.39039,37.04
2.088,0.60899,0.14174,0.4101,0.49511,0.39039,37.04
2.096,0.61095,0.14272,0.41995,0.5,0.38054,37.04
2.104,0.61388,0.17595,0.41995,0.50489,0.38054,37.04
2.112,0.61584,0.22385,0.4298,0.50489,0.38547,37.04
2.12,0.61877,0.24829,0.43473,0.50978,0.39039,37.04
2.128,0.62072,0.25904,0.44458,0.50978,0.40025,37.04
2.136,0.62268,0.26491,0.44458,0.51957,0.4101,37.04
2.144,0.62463,0.26686,0.44951,0.52544,0.41502,37.04
2.152,0.62659,0.26588,0.44951,0.53523,0.42488,37.04
2.16,0.62854,0.26588,0.45443,0.53523,0.42488,37.04
2.168,0.62952,0.26588,0.44951,0.54012,0.43966,37.04
2.176,0.63148,0.26588,0.45443,0.53523,0.43966,37.04
2.184,0.63245,0.26686,0.46059,0.54012,0.43966,37.04
2.192,0.63343,0.26686,0.45443,0.53523,0.44458,37.04
2.2,0.63343,0.26882,0.44951,0.54012,0.44951,37.04
2.208,0.63441,0.26979,0.45443,0.53523,0.44951,37.04
2.216,0.63441,0.26979,0.45443,0.54012,0.44951,37.04
2.224,0.63441,0.26979,0.44951,0.54012,0.44951,37.04
2.232,0.63539,0.26979,0.45443,0.54012,0.44951,37.04
2.24,0.63539,0.26882,0.45443,0.53523,0.44951,37.04
2.248,0.63636,0.26882,0.44951,0.53523,0.44951,37.04
2.256,0.63734,0.26882,0.44951,0.53523,0.44951,37.04
2.264,0.63734,0.26882,0.44951,0.53523,0.44951,37.04
2.272,0.63734,0.26979,0.44458,0.53523,0.44951,37.04
2.28,0.63832,0.27077,0.44458,0.54012,0.44951,37.04
2.288,0.63832,0.27077,0.44458,0.53523,0.44951,37.04
2.296,0.6393,0.27273,0.44951,0.53523,0.44951,37.04
2.304,0.64027,0.2737,0.44458,0.53523,0.44951,37.04
2.312,0.64223,0.27468,0.45443,0.53523,0.44458,37.04
2.32,0.64418,0.2737,0.45443,0.53523,0.44458,37.04
2.328,0.64516,0.27273,0.44951,0.53523,0.44458,37.04
2.336,0.64614,0.27175,0.45443,0.53523,0.44951,37.04
2.344,0.64712,0.27077,0.45443,0.53523,0.44458,37.04
2.352,0.64712,0.27175,0.45443,0.53523,0.44458,37.04
2.36,0.64809,0.2737,0.46059,0.53523,0.44458,37.04
2.368,0.64907,0.2825,0.44951,0.53523,0.44951,37.04
2.376,0.65005,0.30205,0.45443,0.53033,0.44458,37.04
2.384,0.65103,0.3304,0.45443,0.53523,0.44458,37.04
2.392,0.652,0.36657,0.47044,0.53523,0.4298,37.04
2.4,0.65298,0.40274,0.4803,0.5499,0.42488,37.04
2.408,0.65298,0.43988,0.49015,0.55479,0.4101,37.04
2.416,0.65298,0.48387,0.50493,0.55969,0.39532,37.04
2.424,0.65298,0.52981,0.52463,0.56458,0.37562,37.04
2.432,0.65298,0.57576,0.53941,0.58023,0.35468,37.04
2.44,0.65298,0.61681,0.56034,0.59002,0.33005,37.04
2.448,0.65298,0.65298,0.5702,0.58513,0.33005,37.04
2.456,0.65298,0.68231,0.53941,0.57534,0.35468,37.04
2.464,0.65396,0.70479,0.50985,0.55479,0.38054,37.04
2.472,0.65396,0.72043,0.4803,0.53523,0.41502,37.04
2.48,0.65494,0.72923,0.46059,0.52544,0.43966,37.04
2.488,0.65494,0.73216,0.43473,0.51468,0.46059,37.04
2.496,0.65494,0.73021,0.4101,0.50978,0.49015,37.04
2.504,0.65494,0.72336,0.39532,0.50489,0.51478,37.04
2.512,0.65494,0.71457,0.39039,0.50489,0.5197,37.04
2.52,0.65396,0.70283,0.39532,0.50489,0.51478,37.04
2.528,0.65298,0.68817,0.39532,0.5,0.51478,37.04
2.536,0.652,0.67253,0.40025,0.50489,0.51478,37.04
2.544,0.65103,0.65494,0.40025,0.50489,0.50985,37.04
2.552,0.65005,0.63734,0.40025,0.50978,0.50985,37.04
2.56,0.64809,0.61975,0.40517,0.50978,0.50493,37.04
2.568,0.64712,0.60215,0.41502,0.51468,0.5,37.04
2.576,0.64614,0.58456,0.41995,0.53033,0.49015,37.04
2.584,0.64321,0.56696,0.43966,0.58513,0.57512,37.04
2.592,0.64125,0.55034,0.47537,0.63992,0.64532,37.04
2.6,0.63832,0.53666,0.48522,0.64971,0.72537,37.04
2.608,0.63539,0.52395,0.4803,0.46477,0.73522,37.04
2.616,0.6305,0.51026,0.5,0.26517,0.65517,37.04
2.624,0.62659,0.49658,0.46552,0.23483,0.69951,37.04
2.632,0.6217,0.48387,0.40025,0.34442,0.70936,37.04
2.64,0.61681,0.47214,0.38054,0.43542,0.60468,37.04
2.648,0.61193,0.46041,0.41995,0.50489,0.5,37.04
2.656,0.60802,0.44966,0.42488,0.52544,0.46552,37.04
2.664,0.60313,0.43988,0.41995,0.53033,0.44951,37.04
2.672,0.59922,0.43011,0.41502,0.53033,0.44458,37.04
2.68,0.59433,0.42131,0.41995,0.52544,0.44458,37.04
2.688,0.58944,0.41251,0.41502,0.53033,0.44458,37.04
2.696,0.58456,0.40469,0.41995,0.52544,0.43966,37.04
2.704,0.58065,0.39883,0.41502,0.52544,0.43966,37.04
2.712,0.57576,0.39296,0.41995,0.52544,0.43473,37.04
2.72,0.57185,0.38807,0.41995,0.52544,0.43966,37.04
2.728,0.56696,0.38319,0.41995,0.53033,0.43473,37.04
2.736,0.56305,0.37928,0.41995,0.51957,0.43473,37.04
2.744,0.55914,0.37439,0.41995,0.51468,0.43966,37.04
2.752,0.55425,0.36852,0.41995,0.51957,0.43473,37.04
2.76,0.54936,0.36266,0.42488,0.51468,0.4298,37.04
2.768,0.54448,0.35777,0.41995,0.51957,0.42488,37.04
2.776,0.53959,0.35288,0.42488,0.51468,0.42488,37.04
2.784,0.53372,0.34897,0.41995,0.51468,0.42488,37.04
2.792,0.52786,0.34702,0.41995,0.50978,0.42488,37.04
2.8,0.52199,0.34506,0.41995,0.50978,0.42488,37.04
2.808,0.51711,0.34213,0.41502,0.50978,0.42488,37.04
2.816,0.51222,0.3392,0.41995,0.50978,0.41995,37.04
2.824,0.50733,0.33724,0.41502,0.50978,0.41502,37.04
2.832,0.50244,0.33431,0.41502,0.50489,0.4101,37.04
2.84,0.49756,0.33138,0.41995,0.5,0.40025,37.04
2.848,0.49267,0.32845,0.41995,0.5,0.40025,37.04
2.856,0.48778,0.32649,0.42488,0.5,0.39039,37.04
2.864,0.48289,0.32454,0.4298,0.5,0.38547,37.04
2.872,0.47801,0.32258,0.43473,0.5,0.38054,37.04
2.88,0.47312,0.32063,0.43966,0.5,0.38054,37.04
2.888,0.46921,0.31769,0.43966,0.5,0.38054,37.04
2.896,0.4653,0.31574,0.44458,0.50978,0.38054,37.04
2.904,0.45943,0.31378,0.44458,0.50978,0.38054,37.04
2.912,0.45455,0.31183,0.45443,0.50978,0.38054,37.04
2.92,0.44868,0.3089,0.46059,0.51957,0.39532,37.04
2.928,0.44379,0.30694,0.46552,0.52544,0.40025,37.04
2.936,0.43695,0.30499,0.47044,0.53033,0.40517,37.04
2.944,0.43011,0.30303,0.47537,0.53523,0.4101,37.04
2.952,0.42326,0.30205,0.4803,0.53523,0.42488,37.04
2.96,0.41544,0.3001,0.47044,0.53523,0.4298,37.04
2.968,0.4086,0.29912,0.47537,0.54012,0.43473,37.04
2.976,0.40176,0.29814,0.4803,0.53523,0.43473,37.04
2.984,0.39492,0.29814,0.47537,0.53033,0.44458,37.04
2.992,0.38807,0.3001,0.47537,0.52544,0.44458,37.04
3,0.38123,0.30108,0.47044,0.53033,0.44458,37.04
3.008,0.37439,0.30303,0.47044,0.52544,0.44951,37.04
3.016,0.36755,0.30401,0.47044,0.52544,0.44951,37.04
3.024,0.3607,0.30499,0.47044,0.53033,0.44458,37.04
3.032,0.35484,0.30499,0.47044,0.53033,0.44951,37.04
3.04,0.34897,0.30401,0.47044,0.53033,0.44458,37.04
3.048,0.34311,0.30303,0.47044,0.53033,0.44458,37.04
3.056,0.33822,0.30205,0.47044,0.53033,0.44951,37.04
3.064,0.33333,0.30108,0.47044,0.52544,0.44458,37.04
3.072,0.32747,0.3001,0.47044,0.53523,0.44458,37.04
3.08,0.32258,0.30108,0.47044,0.53523,0.44458,37.04
3.088,0.31769,0.30205,0.47044,0.53033,0.43966,37.04
3.096,0.31281,0.30303,0.47044,0.53523,0.43966,37.04
3.104,0.3089,0.30401,0.47044,0.53523,0.43966,37.04
3.112,0.30499,0.30499,0.47044,0.53523,0.43473,37.04
3.12,0.30108,0.30499,0.47044,0.53523,0.4298,37.04
3.128,0.29717,0.30499,0.47537,0.53523,0.43473,37.04
3.136,0.29423,0.30596,0.47537,0.53523,0.43473,37.04
3.144,0.29228,0.30792,0.47537,0.53033,0.43473,37.04
3.152,0.28935,0.31476,0.47044,0.53033,0.43966,37.04
3.16,0.28739,0.32747,0.47044,0.52544,0.43966,37.04
3.168,0.28446,0.34897,0.47044,0.53523,0.43966,37.04
3.176,0.2825,0.37928,0.47044,0.53523,0.4298,37.04
3.184,0.27957,0.41838,0.48522,0.53523,0.42488,37.04
3.192,0.27761,0.4565,0.5,0.54501,0.4101,37.04
3.2,0.27664,0.49658,0.50985,0.55479,0.40025,37.04
3.208,0.27468,0.5435,0.53448,0.55969,0.38054,37.04
3.216,0.27273,0.5914,0.55049,0.57045,0.35468,37.04
3.224,0.27077,0.63734,0.57512,0.57534,0.33005,37.04
3.232,0.26882,0.67937,0.5899,0.58513,0.31527,37.04
3.24,0.26588,0.71457,0.58005,0.58023,0.32512,37.04
3.248,0.26295,0.74291,0.55542,0.56458,0.35468,37.04
3.256,0.25904,0.76442,0.51478,0.54012,0.38054,37.04
3.264,0.25611,0.7781,0.48522,0.53033,0.41995,37.04
3.272,0.25318,0.78495,0.46059,0.51468,0.44458,37.04
3.28,0.24927,0.7869,0.43473,0.50489,0.47044,37.04
3.288,0.24633,0.78299,0.41502,0.49511,0.5,37.04
3.296,0.2434,0.77615,0.39532,0.49022,0.5197,37.04
3.304,0.24047,0.7654,0.39532,0.49022,0.5197,37.04
3.312,0.23754,0.75367,0.39532,0.49022,0.5197,37.04
3.32,0.23363,0.73803,0.39039,0.49022,0.5197,37.04
3.328,0.23069,0.72043,0.39532,0.49022,0.5197,37.04
3.336,0.22776,0.70088,0.39532,0.5,0.50985,37.04
3.344,0.22385,0.67937,0.40025,0.50489,0.50985,37.04
3.352,0.22092,0.65787,0.4101,0.50489,0.50985,37.04
3.36,0.21799,0.63636,0.41995,0.51468,0.5,37.04
3.368,0.21505,0.61486,0.4101,0.53523,0.49507,37.04
3.376,0.2131,0.59531,0.43473,0.59491,0.59483,37.04
3.384,0.21017,0.57576,0.46552,0.64481,0.66995,37.04
3.392,0.20723,0.55914,0.47044,0.59002,0.75,37.04
3.4,0.20332,0.54545,0.49015,0.42955,0.71552,37.04
3.408,0.20039,0.53079,0.4803,0.23973,0.66502,37.04
3.416,0.19746,0.51515,0.44951,0.23483,0.72044,37.04
3.424,0.19453,0.50049,0.39039,0.35519,0.72537,37.04
3.432,0.19062,0.4868,0.38547,0.4501,0.58498,37.04
3.44,0.18768,0.4741,0.4298,0.50978,0.49507,37.04
3.448,0.18475,0.46237,0.41995,0.51957,0.47044,37.04
3.456,0.18182,0.45064,0.41502,0.51468,0.45443,37.04
3.464,0.17986,0.43988,0.41995,0.51468,0.44951,37.04
3.472,0.17791,0.42815,0.41502,0.51957,0.44951,37.04
3.48,0.17595,0.41642,0.41502,0.51957,0.44951,37.04
3.488,0.174,0.40567,0.41995,0.51957,0.44458,37.04
3.496,0.17204,0.39589,0.41995,0.51468,0.43966,37.04
3.504,0.17009,0.3871,0.41995,0.51468,0.43966,37.04
3.512,0.16911,0.3783,0.41995,0.51468,0.43473,37.04
3.52,0.16716,0.3695,0.41502,0.51468,0.43966,37.04
3.528,0.16618,0.36168,0.42488,0.50978,0.43473,37.04
3.536,0.16422,0.35582,0.42488,0.50978,0.4298,37.04
3.544,0.16422,0.35093,0.4298,0.50978,0.4298,37.04
3.552,0.16325,0.348,0.42488,0.50489,0.4298,37.04
3.56,0.16325,0.34506,0.42488,0.50489,0.42488,37.04
3.568,0.16227,0.34213,0.41995,0.50489,0.4298,37.04
3.576,0.16227,0.3392,0.41995,0.50489,0.42488,37.04
3.584,0.16325,0.33724,0.41502,0.5,0.42488,37.04
3.592,0.16325,0.33431,0.41995,0.5,0.42488,37.04
3.6,0.16422,0.33333,0.41502,0.5,0.41995,37.04
3.608,0.16422,0.3304,0.41995,0.49511,0.41502,37.04
3.616,0.1652,0.32747,0.41502,0.49022,0.4101,37.04
3.624,0.16618,0.32551,0.41995,0.49511,0.40025,37.04
3.632,0.16618,0.32356,0.41995,0.49022,0.39532,37.04
3.64,0.16716,0.3216,0.42488,0.48532,0.38547,37.04
3.648,0.16813,0.31867,0.4298,0.48532,0.38547,37.04
3.656,0.16911,0.31672,0.4298,0.48532,0.38547,37.04
3.664,0.17107,0.31378,0.43966,0.48532,0.38054,37.04
3.672,0.17204,0.31085,0.43966,0.48532,0.38054,37.04
3.68,0.174,0.30694,0.44458,0.49022,0.37562,37.04
3.688,0.17595,0.30401,0.44951,0.49511,0.38054,37.04
3.696,0.17791,0.30205,0.46059,0.5,0.38054,37.04
3.704,0.17986,0.30108,0.46552,0.50978,0.38054,37.04
3.712,0.18084,0.3001,0.47044,0.50978,0.38547,37.04
3.72,0.1828,0.29912,0.47044,0.51468,0.40025,37.04
3.728,0.18377,0.29717,0.47537,0.52544,0.40025,37.04
3.736,0.18573,0.29619,0.4803,0.52544,0.4101,37.04
3.744,0.18671,0.29423,0.4803,0.53033,0.41995,37.04
3.752,0.18768,0.29326,0.4803,0.52544,0.42488,37.04
3.76,0.18964,0.29032,0.4803,0.52544,0.4298,37.04
3.768,0.19062,0.28739,0.4803,0.53033,0.4298,37.04
3.776,0.19159,0.28348,0.48522,0.52544,0.4298,37.04
3.784,0.19257,0.28055,0.4803,0.53033,0.43473,37.04
3.792,0.19355,0.27859,0.4803,0.52544,0.43473,37.04
3.8,0.19453,0.27859,0.48522,0.52544,0.43966,37.04
3.808,0.19453,0.27761,0.48522,0.52544,0.44458,37.04
3.816,0.19453,0.27664,0.49015,0.52544,0.43966,37.04
3.824,0.1955,0.27566,0.48522,0.52544,0.43966,37.04
3.832,0.1955,0.27566,0.49015,0.52544,0.43966,37.04
3.84,0.19648,0.27468,0.4803,0.52544,0.43966,37.04
3.848,0.19746,0.2737,0.4803,0.52544,0.43966,37.04
3.856,0.19941,0.27273,0.4803,0.52544,0.43966,37.04
3.864,0.20039,0.26979,0.47537,0.52544,0.43966,37.04
3.872,0.20137,0.26686,0.47537,0.52544,0.43966,37.04
3.88,0.20235,0.26295,0.47044,0.52544,0.43473,37.04
3.888,0.20332,0.26002,0.47044,0.52544,0.43966,37.04
3.896,0.20528,0.25904,0.47044,0.53033,0.43473,37.04
3.904,0.20626,0.26002,0.47044,0.53033,0.43966,37.04
3.912,0.20821,0.26197,0.47044,0.52544,0.43473,37.04
3.92,0.21017,0.26784,0.47044,0.53523,0.44458,37.04
3.928,0.21114,0.28055,0.47537,0.52544,0.43966,37.04
3.936,0.2131,0.30205,0.47044,0.53033,0.44458,37.04
3.944,0.21408,0.33138,0.47044,0.52544,0.44458,37.04
3.952,0.21603,0.36852,0.47044,0.52544,0.44951,37.04
3.96,0.21701,0.41447,0.47537,0.52544,0.43966,37.04
3.968,0.21896,0.46432,0.47537,0.53033,0.43966,37.04
3.976,0.22092,0.51711,0.49015,0.53523,0.41995,37.04
3.984,0.2219,0.57087,0.5,0.54012,0.40517,37.04
3.992,0.22385,0.61486,0.51478,0.54501,0.40025,37.04
4,0.22483,0.652,0.53941,0.55479,0.38054,37.04
4.008,0.22678,0.68817,0.56034,0.57045,0.34975,37.04
4.016,0.22776,0.71945,0.58005,0.58023,0.33005,37.04
4.024,0.22874,0.74389,0.59975,0.58513,0.31034,37.04
4.032,0.22972,0.76051,0.58005,0.58023,0.33005,37.04
4.04,0.23069,0.77126,0.55049,0.55969,0.35468,37.04
4.048,0.23069,0.77615,0.50985,0.54012,0.39039,37.04
4.056,0.23167,0.77517,0.48522,0.51468,0.41995,37.04
4.064,0.23265,0.77126,0.46552,0.50489,0.44458,37.04
4.072,0.23265,0.76344,0.43966,0.49511,0.47537,37.04
4.08,0.23363,0.75269,0.41995,0.49511,0.49507,37.04
4.088,0.23363,0.73998,0.40025,0.49511,0.5197,37.04
4.096,0.2346,0.7263,0.39532,0.49022,0.5197,37.04
4.104,0.2346,0.71163,0.39532,0.49022,0.5197,37.04
4.112,0.23558,0.69404,0.40025,0.49511,0.5197,37.04
4.12,0.2346,0.67546,0.40025,0.49511,0.51478,37.04
4.128,0.2346,0.65494,0.40517,0.49511,0.51478,37.04
4.136,0.2346,0.63441,0.40517,0.49511,0.51478,37.04
4.144,0.23363,0.60508,0.41502,0.5,0.50985,37.04
4.152,0.23265,0.57283,0.41995,0.50978,0.49507,37.04
4.16,0.23167,0.54936,0.41502,0.53523,0.5197,37.04
4.168,0.23069,0.53177,0.43966,0.6047,0.60961,37.04
4.176,0.22972,0.51613,0.47537,0.64481,0.69458,37.04
4.184,0.22776,0.50342,0.46552,0.57045,0.75985,37.04
4.192,0.22581,0.49169,0.49507,0.38943,0.70443,37.04
4.2,0.22287,0.48289,0.47537,0.23973,0.67488,37.04
4.208,0.22092,0.4741,0.44458,0.28474,0.72044,37.04
4.216,0.21799,0.46725,0.38547,0.37965,0.68966,37.04
4.224,0.21505,0.46041,0.41502,0.46967,0.56527,37.04
4.232,0.21212,0.45455,0.4298,0.50978,0.48522,37.04
4.24,0.21017,0.44868,0.41995,0.51957,0.46059,37.04
4.248,0.20723,0.44184,0.41502,0.51957,0.44951,37.04
4.256,0.20528,0.435,0.41502,0.51468,0.44951,37.04
4.264,0.2043,0.42913,0.41502,0.51468,0.44458,37.04
4.272,0.20235,0.42229,0.4101,0.51468,0.44458,37.04
4.28,0.20137,0.41642,0.41995,0.51468,0.43966,37.04
4.288,0.19941,0.41153,0.41995,0.50978,0.43473,37.04
4.296,0.19844,0.40665,0.4298,0.50978,0.43473,37.04
4.304,0.19648,0.40176,0.4298,0.50978,0.4298,37.04
4.312,0.1955,0.39589,0.43473,0.50978,0.4298,37.04
4.32,0.1955,0.39101,0.42488,0.50978,0.43473,37.04
4.328,0.19453,0.38612,0.4298,0.50978,0.4298,37.04
4.336,0.19453,0.38123,0.4298,0.50978,0.42488,37.04
4.344,0.19453,0.37537,0.43473,0.50489,0.42488,37.04
4.352,0.19453,0.37048,0.43473,0.50489,0.41995,37.04
4.36,0.19453,0.36461,0.4298,0.50489,0.42488,37.04
4.368,0.19453,0.35973,0.42488,0.50978,0.42488,37.04
4.376,0.19453,0.35484,0.42488,0.5,0.42488,37.04
4.384,0.19453,0.34995,0.42488,0.50489,0.41995,37.04
4.392,0.1955,0.34604,0.42488,0.49511,0.41502,37.04
4.4,0.1955,0.34213,0.41995,0.49511,0.4101,37.04
4.408,0.19648,0.33822,0.41995,0.49022,0.40517,37.04
4.416,0.19648,0.33431,0.41995,0.49022,0.40025,37.04
4.424,0.19746,0.3304,0.42488,0.49022,0.39532,37.04
4.432,0.19844,0.32649,0.4298,0.49022,0.38547,37.04
4.44,0.19844,0.32356,0.43473,0.49022,0.38054,37.04
4.448,0.19941,0.3216,0.43966,0.49022,0.38054,37.04
4.456,0.20039,0.32063,0.43473,0.48532,0.38054,37.04
4.464,0.20137,0.31867,0.44458,0.49022,0.37562,37.04
4.472,0.20137,0.31769,0.44458,0.49511,0.37562,37.04
4.48,0.20235,0.31672,0.45443,0.5,0.36946,37.04
4.488,0.20332,0.31476,0.45443,0.50489,0.38054,37.04
4.496,0.2043,0.31281,0.46059,0.50978,0.38054,37.04
4.504,0.2043,0.31183,0.46552,0.51957,0.39039,37.04
4.512,0.20528,0.30987,0.47537,0.52544,0.39532,37.04
4.52,0.20528,0.30792,0.48522,0.51957,0.40025,37.04
4.528,0.20626,0.30596,0.4803,0.52544,0.40025,37.04
4.536,0.20626,0.30401,0.47537,0.53033,0.41995,37.04
4.544,0.20626,0.30303,0.4803,0.53033,0.41995,37.04
4.552,0.20626,0.30108,0.48522,0.53523,0.42488,37.04
4.56,0.20626,0.3001,0.48522,0.53523,0.42488,37.04
4.568,0.20626,0.29912,0.4803,0.53523,0.43473,37.04
4.576,0.20626,0.29814,0.48522,0.53523,0.43473,37.04
4.584,0.20626,0.29717,0.47537,0.53523,0.43966,37.04
4.592,0.20626,0.29717,0.4803,0.53523,0.43966,37.04
4.6,0.20723,0.29717,0.47537,0.53033,0.43966,37.04
4.608,0.20919,0.29619,0.47537,0.52544,0.44458,37.04
4.616,0.21114,0.29521,0.47044,0.52544,0.44458,37.04
4.624,0.2131,0.29326,0.47537,0.53033,0.43966,37.04
4.632,0.21505,0.2913,0.47044,0.53033,0.43966,37.04
4.64,0.21701,0.28935,0.47044,0.52544,0.43966,37.04
4.648,0.21799,0.28739,0.47044,0.53033,0.43966,37.04
4.656,0.21994,0.28641,0.47044,0.52544,0.44458,37.04
4.664,0.2219,0.28543,0.46552,0.52544,0.44458,37.04
4.672,0.22483,0.28446,0.46059,0.53033,0.43966,37.04
4.68,0.22776,0.2825,0.46552,0.53033,0.44458,37.04
4.688,0.23069,0.28152,0.46552,0.51957,0.43966,37.04
4.696,0.2346,0.28152,0.46059,0.52544,0.43966,37.04
4.704,0.23851,0.28152,0.46552,0.52544,0.43966,37.04
4.712,0.24242,0.28543,0.46552,0.52544,0.43966,37.04
4.72,0.24731,0.29521,0.46059,0.53033,0.43966,37.04
4.728,0.25122,0.31085,0.46552,0.52544,0.43966,37.04
4.736,0.25513,0.33431,0.46552,0.52544,0.44458,37.04
4.744,0.25806,0.36559,0.47044,0.51957,0.43966,37.04
4.752,0.261,0.40274,0.46552,0.51468,0.43966,37.04
4.76,0.26491,0.44477,0.47537,0.52544,0.42488,37.04
4.768,0.26882,0.48778,0.4803,0.53033,0.42488,37.04
4.776,0.27273,0.52981,0.49015,0.54012,0.4101,37.04
4.784,0.27761,0.56989,0.5,0.5499,0.40025,37.04
4.792,0.28152,0.60215,0.52463,0.55479,0.37562,37.04
4.8,0.28543,0.62659,0.53941,0.56458,0.35468,37.04
4.808,0.28935,0.65103,0.5702,0.58023,0.33005,37.04
4.816,0.29326,0.67058,0.58498,0.58513,0.3202,37.04
4.824,0.29717,0.68524,0.57512,0.58023,0.33005,37.04
4.832,0.30108,0.69599,0.53448,0.55969,0.35961,37.04
4.84,0.30499,0.70088,0.50493,0.54501,0.39039,37.04
4.848,0.3089,0.70088,0.47537,0.53033,0.41995,37.04
4.856,0.31281,0.69697,0.44458,0.51468,0.44458,37.04
4.864,0.31672,0.68817,0.42488,0.50978,0.47537,37.04
4.872,0.31965,0.67742,0.39532,0.5,0.5,37.04
4.88,0.32258,0.66569,0.39039,0.5,0.5197,37.04
4.888,0.32551,0.65298,0.38547,0.49511,0.5197,37.04
4.896,0.32942,0.64027,0.38547,0.5,0.5197,37.04
4.904,0.33236,0.62561,0.39039,0.50489,0.5197,37.04
4.912,0.33529,0.61095,0.39532,0.49511,0.5197,37.04
4.92,0.33724,0.59629,0.39039,0.49511,0.51478,37.04
4.928,0.34018,0.57967,0.40025,0.50489,0.50985,37.04
4.936,0.34311,0.56403,0.40517,0.50489,0.50985,37.04
4.944,0.34506,0.54839,0.40517,0.50978,0.5,37.04
4.952,0.34702,0.53275,0.40025,0.53523,0.52463,37.04
4.96,0.34897,0.51808,0.43966,0.61057,0.60468,37.04
4.968,0.34995,0.5044,0.47044,0.65558,0.6798,37.04
4.976,0.35191,0.49169,0.47044,0.59491,0.75,37.04
4.984,0.35288,0.48094,0.50493,0.42466,0.69458,37.04
4.992,0.35386,0.47214,0.48522,0.2544,0.66995,37.04
5,0.35484,0.46432,0.43966,0.28963,0.72044,37.04
5.008,0.35582,0.4565,0.37562,0.36986,0.68966,37.04
5.016,0.35777,0.4477,0.38547,0.45499,0.5702,37.04
5.024,0.35875,0.43988,0.4101,0.50489,0.48522,37.04
5.032,0.36168,0.43109,0.4101,0.51468,0.46059,37.04
5.04,0.36364,0.42326,0.4101,0.51468,0.44951,37.04
5.048,0.36559,0.41544,0.4101,0.51957,0.44458,37.04
5.056,0.36852,0.40665,0.41502,0.52544,0.43966,37.04
5.064,0.37048,0.39883,0.4101,0.52544,0.43473,37.04
5.072,0.37243,0.39198,0.40517,0.51957,0.43966,37.04
5.08,0.37537,0.38416,0.41502,0.52544,0.43473,37.04
5.088,0.3783,0.3783,0.41502,0.51468,0.43473,37.04
5.096,0.38123,0.37341,0.41502,0.51957,0.43473,37.04
5.104,0.38514,0.36755,0.41502,0.51468,0.43966,37.04
5.112,0.38807,0.36168,0.41502,0.51468,0.43473,37.04
5.12,0.39198,0.35582,0.41502,0.51468,0.4298,37.04
5.128,0.39589,0.35093,0.41502,0.50978,0.4298,37.04
5.136,0.3998,0.34604,0.41502,0.50978,0.4298,37.04
5.144,0.40371,0.34213,0.41502,0.50978,0.42488,37.04
5.152,0.40762,0.33822,0.4101,0.50978,0.42488,37.04
5.16,0.41153,0.33529,0.40517,0.50489,0.42488,37.04
5.168,0.41544,0.33236,0.40025,0.50489,0.42488,37.04
5.176,0.42033,0.3304,0.40517,0.5,0.41995,37.04
5.184,0.42424,0.32747,0.40517,0.49511,0.41995,37.04
5.192,0.42815,0.32649,0.41995,0.50489,0.40517,37.04
5.2,0.43304,0.32454,0.41502,0.5,0.40025,37.04
5.208,0.43695,0.32258,0.41502,0.49022,0.40025,37.04
5.216,0.44184,0.31965,0.40517,0.49022,0.40025,37.04
5.224,0.44575,0.31769,0.41502,0.49022,0.38547,37.04
5.232,0.45064,0.31476,0.41502,0.49022,0.38547,37.04
5.24,0.45455,0.31281,0.41995,0.48532,0.38547,37.04
5.248,0.45943,0.30987,0.41995,0.48532,0.38054,37.04
5.256,0.46334,0.30694,0.41995,0.48532,0.38054,37.04
5.264,0.46725,0.30499,0.4298,0.49022,0.38054,37.04
5.272,0.47116,0.30205,0.43473,0.5,0.38054,37.04
5.28,0.47507,0.30108,0.43966,0.50978,0.39039,37.04
5.288,0.47898,0.3001,0.44458,0.50978,0.39532,37.04
5.296,0.48192,0.29912,0.44458,0.51468,0.39039,37.04
5.304,0.48583,0.29912,0.44951,0.53523,0.40517,37.04
5.312,0.48876,0.29814,0.46059,0.53523,0.4101,37.04
5.32,0.49267,0.29717,0.45443,0.53523,0.42488,37.04
5.328,0.49658,0.29619,0.46552,0.53523,0.42488,37.04
5.336,0.50049,0.29521,0.46059,0.53523,0.4298,37.04
5.344,0.5044,0.29326,0.46552,0.53523,0.43473,37.04
5.352,0.50831,0.29032,0.46059,0.53523,0.43966,37.04
5.36,0.51222,0.28837,0.46552,0.53523,0.44458,37.04
5.368,0.51613,0.28543,0.46552,0.53523,0.44458,37.04
5.376,0.51906,0.28348,0.46552,0.53523,0.44458,37.04
5.384,0.52297,0.28055,0.47044,0.53033,0.44458,37.04
5.392,0.5259,0.27957,0.46552,0.53033,0.44458,37.04
5.4,0.52884,0.27859,0.46059,0.53033,0.44951,37.04
5.408,0.53275,0.27566,0.46059,0.53033,0.44458,37.04
5.416,0.53568,0.2737,0.46059,0.53033,0.44458,37.04
5.424,0.53959,0.27273,0.46059,0.52544,0.43966,37.04
5.432,0.5435,0.27273,0.46059,0.53033,0.43966,37.04
5.44,0.54741,0.27273,0.45443,0.53033,0.44458,37.04
5.448,0.55132,0.27273,0.44951,0.53523,0.44458,37.04
5.456,0.55523,0.27273,0.44458,0.53523,0.44951,37.04
5.464,0.55914,0.27175,0.44951,0.53033,0.44458,37.04
5.472,0.56305,0.27077,0.45443,0.53033,0.44458,37.04
5.48,0.56696,0.26979,0.45443,0.52544,0.43966,37.04
5.488,0.57087,0.27077,0.45443,0.52544,0.43966,37.04
5.496,0.57576,0.27273,0.45443,0.52544,0.44458,37.04
5.504,0.57967,0.27859,0.45443,0.52544,0.44458,37.04
5.512,0.58553,0.28935,0.45443,0.52544,0.44458,37.04
5.52,0.59042,0.30694,0.46059,0.52544,0.44951,37.04
5.528,0.59531,0.33138,0.45443,0.52544,0.44458,37.04
5.536,0.6002,0.36266,0.45443,0.53033,0.44458,37.04
5.544,0.60508,0.39883,0.46059,0.52544,0.43966,37.04
5.552,0.60997,0.43988,0.46552,0.53523,0.43473,37.04
5.56,0.61486,0.48094,0.47537,0.54012,0.41995,37.04
5.568,0.61975,0.52199,0.49015,0.5499,0.4101,37.04
5.576,0.62561,0.55914,0.49507,0.55479,0.4101,37.04
5.584,0.6305,0.59238,0.51478,0.55969,0.39039,37.04
5.592,0.63539,0.61779,0.53448,0.57045,0.36453,37.04
5.6,0.64125,0.63636,0.55542,0.58023,0.34483,37.04
5.608,0.64614,0.65396,0.5702,0.59491,0.33005,37.04
5.616,0.65103,0.66764,0.56034,0.59002,0.3399,37.04
5.624,0.65591,0.67644,0.53448,0.57534,0.36453,37.04
5.632,0.65982,0.68035,0.5,0.55479,0.39532,37.04
5.64,0.66471,0.68133,0.47044,0.53033,0.42488,37.04
5.648,0.6696,0.67742,0.44458,0.51957,0.45443,37.04
5.656,0.67351,0.6696,0.41995,0.50978,0.47537,37.04
5.664,0.6784,0.65885,0.40517,0.50489,0.50493,37.04
5.672,0.68231,0.64614,0.39039,0.49511,0.5197,37.04
5.68,0.68719,0.63245,0.38547,0.49511,0.52463,37.04
5.688,0.69013,0.61877,0.38054,0.5,0.5197,37.04
5.696,0.69404,0.60508,0.38547,0.5,0.5197,37.04
5.704,0.69697,0.59042,0.39039,0.5,0.5197,37.04
5.712,0.6999,0.57576,0.39532,0.50489,0.51478,37.04
5.72,0.70283,0.56109,0.39532,0.5,0.50985,37.04
5.728,0.70479,0.54643,0.40025,0.50489,0.50493,37.04
5.736,0.70577,0.53275,0.40025,0.50978,0.49507,37.04
5.744,0.70772,0.52004,0.40517,0.53523,0.52956,37.04
5.752,0.7087,0.50831,0.43966,0.5998,0.60468,37.04
5.76,0.70968,0.49658,0.47537,0.63992,0.6798,37.04
5.768,0.70968,0.4868,0.47044,0.58023,0.74507,37.04
5.776,0.71065,0.47703,0.51478,0.4002,0.6798,37.04
5.784,0.71065,0.46725,0.4803,0.24462,0.6601,37.04
5.792,0.71065,0.46041,0.4298,0.28474,0.72537,37.04
5.8,0.71065,0.45259,0.36453,0.36986,0.68966,37.04
5.808,0.71065,0.44575,0.38547,0.45499,0.56034,37.04
5.816,0.71065,0.43988,0.39532,0.5,0.49015,37.04
5.824,0.71065,0.43304,0.40025,0.50978,0.46059,37.04
5.832,0.71163,0.42717,0.39532,0.50978,0.45443,37.04
5.84,0.71163,0.42131,0.39532,0.50978,0.44951,37.04
5.848,0.71261,0.41544,0.39532,0.51468,0.44951,37.04
5.856,0.71261,0.41056,0.40025,0.51468,0.44458,37.04
5.864,0.71261,0.40469,0.40517,0.51468,0.44458,37.04
5.872,0.71261,0.3998,0.40025,0.50978,0.44458,37.04
5.88,0.71261,0.39589,0.40517,0.50978,0.44458,37.04
5.888,0.71261,0.39198,0.40517,0.50489,0.44458,37.04
5.896,0.71359,0.38807,0.40517,0.50978,0.44458,37.04
5.904,0.71457,0.38319,0.40517,0.50489,0.43966,37.04
5.912,0.71457,0.3783,0.4101,0.50489,0.43473,37.04
5.92,0.71554,0.37243,0.40517,0.5,0.43966,37.04
5.928,0.71652,0.36559,0.41502,0.5,0.43473,37.04
5.936,0.7175,0.35973,0.40517,0.50978,0.43966,37.04
5.944,0.7175,0.35484,0.4101,0.50489,0.43473,37.04
5.952,0.71848,0.34995,0.40025,0.50489,0.43966,37.04
5.96,0.71848,0.34604,0.40517,0.5,0.43473,37.04
5.968,0.71848,0.34115,0.4101,0.5,0.4298,37.04
5.976,0.71848,0.33724,0.40517,0.49511,0.42488,37.04
5.984,0.71848,0.33333,0.40517,0.49022,0.41995,37.04
5.992,0.71848,0.3304,0.40517,0.49022,0.41502,37.04
6,0.7175,0.32747,0.4101,0.49022,0.41502,37.04
6.008,0.7175,0.32551,0.4101,0.48532,0.40025,37.04
6.016,0.71848,0.32356,0.41502,0.48532,0.40025,37.04
6.024,0.71848,0.3216,0.41995,0.48532,0.39039,37.04
6.032,0.71848,0.32063,0.41995,0.48532,0.39039,37.04
6.04,0.71848,0.31867,0.41995,0.48532,0.39039,37.04
6.048,0.71848,0.31769,0.41502,0.48532,0.39039,37.04
6.056,0.71848,0.31574,0.42488,0.49022,0.39039,37.04
6.064,0.71848,0.31378,0.4298,0.49022,0.39532,37.04
6.072,0.71848,0.31183,0.43473,0.5,0.39532,37.04
6.08,0.71848,0.31085,0.44458,0.50489,0.40025,37.04
6.088,0.7175,0.3089,0.44951,0.50978,0.40025,37.04
6.096,0.7175,0.30792,0.46059,0.51468,0.4101,37.04
6.104,0.71652,0.30596,0.46059,0.51468,0.41995,37.04
6.112,0.71652,0.30401,0.47044,0.51957,0.42488,37.04
6.12,0.71554,0.30108,0.47044,0.51468,0.42488,37.04
6.128,0.71457,0.29912,0.47044,0.52544,0.42488,37.04
6.136,0.71359,0.29814,0.47044,0.52544,0.43473,37.04
6.144,0.71163,0.29717,0.47044,0.51957,0.43966,37.04
6.152,0.71065,0.29521,0.47044,0.52544,0.43966,37.04
6.16,0.7087,0.29423,0.47044,0.51957,0.44458,37.04
6.168,0.70674,0.29326,0.47044,0.51957,0.44951,37.04
6.176,0.70577,0.29228,0.47044,0.51957,0.44458,37.04
6.184,0.70381,0.29032,0.47044,0.52544,0.44951,37.04
6.192,0.70186,0.3001,0.46552,0.51957,0.44458,37.04
6.2,0.6999,0.31378,0.46059,0.52544,0.44951,37.04
6.208,0.69697,0.31965,0.46059,0.52544,0.44951,37.04
6.216,0.69404,0.3216,0.46059,0.53033,0.44951,37.04
6.224,0.6911,0.3216,0.46059,0.53033,0.44951,37.04
6.232,0.68817,0.32063,0.46552,0.53033,0.44458,37.04
6.24,0.68622,0.31965,0.46552,0.53033,0.44458,37.04
6.248,0.68328,0.31965,0.46552,0.53033,0.44458,37.04
6.256,0.68133,0.31965,0.47044,0.52544,0.43966,37.04
6.264,0.67742,0.31965,0.47044,0.53033,0.43966,37.04
6.272,0.67449,0.31965,0.47044,0.53033,0.43966,37.04
6.28,0.67058,0.32063,0.47044,0.53033,0.43966,37.04
6.288,0.66764,0.32356,0.47044,0.53033,0.43966,37.04
6.296,0.66276,0.32845,0.47044,0.53033,0.43966,37.04
6.304,0.65885,0.33724,0.47044,0.53033,0.43966,37.04
6.312,0.65494,0.35288,0.47044,0.52544,0.43966,37.04
6.32,0.65005,0.37341,0.46059,0.52544,0.44458,37.04
6.328,0.64516,0.40078,0.46552,0.52544,0.43966,37.04
6.336,0.64027,0.43304,0.47044,0.52544,0.43966,37.04
6.344,0.63539,0.46823,0.47537,0.53033,0.4298,37.04
6.352,0.6305,0.5044,0.49015,0.53523,0.41995,37.04
6.36,0.62463,0.54057,0.5,0.5499,0.40517,37.04
6.368,0.61877,0.57478,0.50985,0.55479,0.39532,37.04
6.376,0.6129,0.60508,0.53448,0.56458,0.37562,37.04
6.384,0.60704,0.62757,0.55542,0.57534,0.35468,37.04
6.392,0.6002,0.64418,0.57512,0.58513,0.33005,37.04
6.4,0.59433,0.65885,0.58498,0.59491,0.3202,37.04
6.408,0.58847,0.6696,0.55542,0.58023,0.34483,37.04
6.416,0.58162,0.67742,0.52463,0.55969,0.37562,37.04
6.424,0.57478,0.68133,0.49507,0.53523,0.40517,37.04
6.432,0.56794,0.68231,0.46552,0.52544,0.43966,37.04
6.44,0.56012,0.67937,0.44458,0.50978,0.46059,37.04
6.448,0.5523,0.67449,0.41995,0.50978,0.49015,37.04
6.456,0.5435,0.66667,0.39532,0.5,0.50985,37.04
6.464,0.53568,0.65591,0.39039,0.5,0.5197,37.04
6.472,0.52688,0.64418,0.39039,0.5,0.52463,37.04
6.48,0.51808,0.63148,0.39532,0.5,0.51478,37.04
6.488,0.51026,0.61877,0.39039,0.5,0.51478,37.04
6.496,0.50147,0.60704,0.39532,0.5,0.5197,37.04
6.504,0.49365,0.59433,0.39039,0.5,0.51478,37.04
6.512,0.4868,0.58065,0.40025,0.50489,0.50985,37.04
6.52,0.47801,0.56696,0.40025,0.50978,0.50985,37.04
6.528,0.46921,0.55327,0.40517,0.51468,0.49507,37.04
6.536,0.45943,0.54057,0.40025,0.55969,0.55049,37.04
6.544,0.44966,0.52884,0.45443,0.62035,0.63054,37.04
6.552,0.44086,0.51711,0.47044,0.64481,0.70936,37.04
6.56,0.43206,0.50635,0.47537,0.51957,0.74015,37.04
6.568,0.42229,0.49658,0.49015,0.31507,0.66502,37.04
6.576,0.41349,0.48876,0.47044,0.22994,0.65517,37.04
6.584,0.40469,0.48094,0.41502,0.31018,0.72044,37.04
6.592,0.39589,0.47507,0.37562,0.4002,0.65517,37.04
6.6,0.38612,0.47019,0.41502,0.49022,0.52956,37.04
6.608,0.37634,0.4653,0.42488,0.51957,0.47537,37.04
6.616,0.36755,0.45943,0.41502,0.53033,0.45443,37.04
6.624,0.35777,0.45455,0.4101,0.53033,0.44951,37.04
6.632,0.348,0.44966,0.41502,0.53033,0.44458,37.04
6.64,0.3392,0.44379,0.4101,0.53033,0.43966,37.04
6.648,0.3304,0.43891,0.41995,0.52544,0.43966,37.04
6.656,0.3216,0.435,0.41995,0.51957,0.43473,37.04
6.664,0.31378,0.43011,0.41995,0.52544,0.43966,37.04
6.672,0.30596,0.42522,0.42488,0.51957,0.43473,37.04
6.68,0.29912,0.42033,0.42488,0.52544,0.43473,37.04
6.688,0.29228,0.41642,0.42488,0.51957,0.4298,37.04
6.696,0.28543,0.41349,0.42488,0.51468,0.4298,37.04
6.704,0.27957,0.40958,0.42488,0.51468,0.4298,37.04
6.712,0.2737,0.40567,0.4298,0.51468,0.42488,37.04
6.72,0.26784,0.40078,0.41995,0.50978,0.42488,37.04
6.728,0.26295,0.39687,0.41995,0.50978,0.4298,37.04
6.736,0.25904,0.39198,0.41995,0.50978,0.4298,37.04
6.744,0.25415,0.38807,0.41995,0.50978,0.42488,37.04
6.752,0.25024,0.38319,0.41995,0.50978,0.42488,37.04
6.76,0.24731,0.37928,0.41995,0.50978,0.41995,37.04
6.768,0.2434,0.37537,0.41995,0.50978,0.41995,37.04
6.776,0.24047,0.37243,0.41502,0.50978,0.4101,37.04
6.784,0.23754,0.3695,0.41995,0.50978,0.40517,37.04
6.792,0.2346,0.36852,0.42488,0.50489,0.40025,37.04
6.8,0.23167,0.36657,0.41995,0.5,0.39532,37.04
6.808,0.22874,0.36364,0.41995,0.50489,0.39039,37.04
6.816,0.22678,0.36168,0.41995,0.5,0.39039,37.04
6.824,0.22385,0.35875,0.41995,0.5,0.38547,37.04
6.832,0.2219,0.35582,0.42488,0.5,0.38054,37.04
6.84,0.21896,0.35288,0.43473,0.5,0.38054,37.04
6.848,0.21701,0.35191,0.44458,0.50489,0.38054,37.04
6.856,0.21505,0.34995,0.44951,0.50489,0.38054,37.04
6.864,0.2131,0.348,0.44951,0.50978,0.38547,37.04
6.872,0.21017,0.34604,0.46059,0.50978,0.39039,37.04
6.88,0.20821,0.34506,0.46552,0.51957,0.39532,37.04
6.888,0.20528,0.34311,0.47044,0.53033,0.40025,37.04
6.896,0.20235,0.34213,0.4803,0.53523,0.40517,37.04
6.904,0.20039,0.34213,0.4803,0.53523,0.41502,37.04
6.912,0.19746,0.34115,0.47537,0.53523,0.42488,37.04
6.92,0.1955,0.34018,0.47537,0.53523,0.42488,37.04
6.928,0.19355,0.3392,0.4803,0.53523,0.42488,37.04
6.936,0.19159,0.33822,0.47537,0.53523,0.4298,37.04
6.944,0.18964,0.33724,0.4803,0.53523,0.43966,37.04
6.952,0.18768,0.33529,0.47537,0.53523,0.44458,37.04
6.96,0.18573,0.33333,0.48522,0.53523,0.43966,37.04
6.968,0.18475,0.33138,0.4803,0.53523,0.44458,37.04
6.976,0.18377,0.32942,0.48522,0.53523,0.44458,37.04
6.984,0.1828,0.32747,0.4803,0.53523,0.44458,37.04
6.992,0.1828,0.32649,0.4803,0.53523,0.44458,37.04
7,0.1828,0.32649,0.47537,0.53033,0.44458,37.04
7.008,0.1828,0.32551,0.47537,0.52544,0.44458,37.04
7.016,0.1828,0.32551,0.47044,0.53523,0.43966,37.04
7.024,0.1828,0.32551,0.47537,0.53033,0.43966,37.04
7.032,0.1828,0.32551,0.47044,0.52544,0.44458,37.04
7.04,0.18377,0.32551,0.47044,0.52544,0.43966,37.04
7.048,0.18377,0.32551,0.47044,0.52544,0.43473,37.04
7.056,0.18475,0.32649,0.47044,0.53523,0.43473,37.04
7.064,0.18475,0.3304,0.47044,0.53523,0.43473,37.04
7.072,0.18573,0.33724,0.47044,0.53523,0.43473,37.04
7.08,0.18671,0.34897,0.47044,0.53523,0.43966,37.04
7.088,0.18671,0.36364,0.47044,0.53523,0.43966,37.04
7.096,0.18866,0.38221,0.47044,0.53033,0.43966,37.04
7.104,0.18964,0.40665,0.47044,0.52544,0.43966,37.04
7.112,0.19159,0.435,0.47044,0.52544,0.43966,37.04
7.12,0.19355,0.46725,0.47044,0.52544,0.43966,37.04
7.128,0.19453,0.49951,0.47537,0.52544,0.43473,37.04
7.136,0.19648,0.53177,0.47537,0.52544,0.42488,37.04
7.144,0.19746,0.56109,0.49015,0.53033,0.41995,37.04
7.152,0.19844,0.58847,0.50985,0.54012,0.40517,37.04
7.16,0.20039,0.61095,0.5197,0.54501,0.39039,37.04
7.168,0.20137,0.6305,0.53941,0.55969,0.36946,37.04
7.176,0.20235,0.64516,0.56034,0.56458,0.34975,37.04
7.184,0.20332,0.65494,0.58498,0.57534,0.32512,37.04
7.192,0.2043,0.6608,0.59975,0.58023,0.31527,37.04
7.2,0.20528,0.66373,0.57512,0.57534,0.33498,37.04
7.208,0.20626,0.66471,0.54557,0.55479,0.35961,37.04
7.216,0.20723,0.66373,0.51478,0.53523,0.39039,37.04
7.224,0.20723,0.65982,0.4803,0.51468,0.42488,37.04
7.232,0.20723,0.65396,0.45443,0.50978,0.44951,37.04
7.24,0.20723,0.64712,0.4298,0.5,0.47537,37.04
7.248,0.20723,0.63832,0.4101,0.49511,0.49507,37.04
7.256,0.20723,0.62854,0.40025,0.49511,0.51478,37.04
7.264,0.20723,0.61779,0.39532,0.49511,0.5197,37.04
7.272,0.20723,0.60606,0.39532,0.49511,0.5197,37.04
7.28,0.20723,0.59335,0.39532,0.49511,0.5197,37.04
7.288,0.20723,0.58065,0.40025,0.49511,0.5197,37.04
7.296,0.20723,0.56891,0.40025,0.49511,0.51478,37.04
7.304,0.20626,0.55718,0.40025,0.49511,0.50985,37.04
7.312,0.20528,0.54545,0.4101,0.5,0.50493,37.04
7.32,0.20332,0.5347,0.41502,0.50978,0.49507,37.04
7.328,0.20137,0.52493,0.4101,0.54501,0.54557,37.04
7.336,0.19844,0.51613,0.44458,0.61546,0.62438,37.04
7.344,0.19648,0.50831,0.47044,0.63992,0.70443,37.04
7.352,0.19355,0.50049,0.46552,0.53523,0.75,37.04
7.36,0.19062,0.49267,0.49015,0.33953,0.68473,37.04
7.368,0.18866,0.48583,0.47044,0.22994,0.6601,37.04
7.376,0.18671,0.47996,0.42488,0.30528,0.7303,37.04
7.384,0.18377,0.4741,0.38547,0.38943,0.66995,37.04
7.392,0.18182,0.46823,0.41995,0.47456,0.53448,37.04
7.4,0.17889,0.46237,0.42488,0.51468,0.47537,37.04
7.408,0.17595,0.45552,0.41995,0.51957,0.44951,37.04
7.416,0.174,0.44966,0.4101,0.51468,0.44951,37.04
7.424,0.17204,0.44282,0.41502,0.51468,0.44458,37.04
7.432,0.17009,0.43597,0.4101,0.51468,0.44458,37.04
7.44,0.16813,0.42913,0.41502,0.51468,0.44458,37.04
7.448,0.16716,0.42229,0.41995,0.51468,0.43966,37.04
7.456,0.16618,0.41544,0.41995,0.51468,0.43473,37.04
7.464,0.1652,0.4086,0.41995,0.51468,0.43473,37.04
7.472,0.16422,0.40176,0.41995,0.50978,0.43473,37.04
7.48,0.16422,0.39492,0.41995,0.50978,0.43966,37.04
7.488,0.16422,0.39003,0.41502,0.50978,0.43966,37.04
7.496,0.16422,0.38514,0.41995,0.50978,0.43966,37.04
7.504,0.1652,0.38025,0.42488,0.50489,0.43473,37.04
7.512,0.16618,0.37537,0.41995,0.50489,0.4298,37.04
7.52,0.16716,0.3695,0.41995,0.5,0.42488,37.04
7.528,0.16813,0.36461,0.41995,0.5,0.42488,37.04
7.536,0.17009,0.35875,0.41502,0.5,0.42488,37.04
7.544,0.17204,0.35386,0.4101,0.5,0.42488,37.04
7.552,0.17302,0.34897,0.4101,0.49511,0.42488,37.04
7.56,0.17498,0.34409,0.4101,0.49511,0.41995,37.04
7.568,0.17595,0.3392,0.4101,0.49511,0.41502,37.04
7.576,0.17791,0.33529,0.41502,0.49511,0.4101,37.04
7.584,0.17986,0.33236,0.4101,0.49511,0.40025,37.04
7.592,0.18182,0.3304,0.41995,0.49022,0.39532,37.04
7.6,0.18377,0.32845,0.41995,0.49022,0.38547,37.04
7.608,0.18573,0.32649,0.42488,0.49022,0.38054,37.04
7.616,0.18768,0.32454,0.42488,0.48532,0.38054,37.04
7.624,0.18964,0.32258,0.43473,0.48532,0.38054,37.04
7.632,0.19062,0.3216,0.44458,0.49022,0.37562,37.04
7.64,0.19159,0.31965,0.44458,0.49511,0.38054,37.04
7.648,0.19257,0.31769,0.44951,0.49511,0.38054,37.04
7.656,0.19257,0.31476,0.45443,0.50489,0.38547,37.04
7.664,0.19355,0.31281,0.46059,0.50978,0.39039,37.04
7.672,0.19355,0.30987,0.47044,0.50978,0.39532,37.04
7.68,0.19453,0.30694,0.47044,0.51957,0.39532,37.04
7.688,0.19453,0.30499,0.47044,0.52544,0.4101,37.04
7.696,0.1955,0.30401,0.47044,0.52544,0.42488,37.04
7.704,0.1955,0.30205,0.47044,0.53033,0.42488,37.04
7.712,0.1955,0.3001,0.4803,0.53523,0.42488,37.04
7.72,0.1955,0.29814,0.48522,0.53523,0.4298,37.04
7.728,0.1955,0.29619,0.48522,0.53523,0.43473,37.04
7.736,0.1955,0.29423,0.47537,0.53033,0.43473,37.04
7.744,0.1955,0.29228,0.47044,0.52544,0.43966,37.04
7.752,0.1955,0.2913,0.47044,0.53033,0.44458,37.04
7.76,0.1955,0.29032,0.47044,0.53033,0.44458,37.04
7.768,0.19648,0.28935,0.47044,0.53033,0.44458,37.04
7.776,0.19746,0.28837,0.47044,0.53033,0.44458,37.04
7.784,0.19844,0.28837,0.46552,0.52544,0.44951,37.04
7.792,0.20039,0.28837,0.47044,0.52544,0.44458,37.04
7.8,0.20235,0.28837,0.47044,0.53033,0.44951,37.04
7.808,0.2043,0.28739,0.47044,0.52544,0.44458,37.04
7.816,0.20626,0.28446,0.46552,0.53033,0.43966,37.04
7.824,0.20821,0.28152,0.47044,0.53033,0.43966,37.04
7.832,0.20919,0.27859,0.47044,0.52544,0.43966,37.04
7.84,0.21114,0.27566,0.47044,0.52544,0.43966,37.04
7.848,0.2131,0.27566,0.46552,0.52544,0.43966,37.04
7.856,0.21408,0.27859,0.47044,0.51957,0.43473,37.04
7.864,0.21603,0.28739,0.47044,0.53033,0.43966,37.04
7.872,0.21799,0.30108,0.47044,0.53033,0.43966,37.04
7.88,0.21994,0.31965,0.47044,0.53033,0.43966,37.04
7.888,0.2219,0.34115,0.47044,0.53033,0.43966,37.04
7.896,0.22385,0.36364,0.47044,0.53033,0.43966,37.04
7.904,0.22581,0.39198,0.47044,0.52544,0.44458,37.04
7.912,0.22776,0.42424,0.47044,0.53033,0.44458,37.04
7.92,0.22972,0.4565,0.47044,0.52544,0.43473,37.04
7.928,0.23167,0.48876,0.4803,0.53033,0.42488,37.04
7.936,0.23363,0.51808,0.49015,0.53033,0.41502,37.04
7.944,0.2346,0.54448,0.50493,0.54012,0.40517,37.04
7.952,0.23558,0.56598,0.51478,0.5499,0.39532,37.04
7.96,0.23656,0.58456,0.53941,0.55969,0.37562,37.04
7.968,0.23851,0.59726,0.56034,0.56458,0.34975,37.04
7.976,0.23851,0.60704,0.58498,0.58023,0.32512,37.04
7.984,0.23949,0.61193,0.59483,0.58513,0.31527,37.04
7.992,0.24047,0.6129,0.58005,0.58023,0.32512,37.04
8,0.24145,0.6129,0.54557,0.55969,0.35468,37.04
8.008,0.24145,0.60997,0.51478,0.53523,0.38547,37.04
8.016,0.24242,0.60606,0.4803,0.51957,0.41995,37.04
8.024,0.24242,0.6002,0.46059,0.50978,0.44458,37.04
8.032,0.24242,0.59238,0.43473,0.5,0.47044,37.04
8.04,0.24242,0.58358,0.41502,0.49022,0.49507,37.04
8.048,0.2434,0.5738,0.40025,0.49022,0.51478,37.04
8.056,0.24242,0.56207,0.40517,0.49022,0.5197,37.04
8.064,0.24145,0.55034,0.40025,0.49022,0.5197,37.04
8.072,0.23949,0.53763,0.40517,0.49022,0.50985,37.04
8.08,0.23851,0.52493,0.40517,0.49022,0.51478,37.04
8.088,0.23656,0.51417,0.4101,0.49022,0.50493,37.04
8.096,0.2346,0.50342,0.4101,0.49022,0.50493,37.04
8.104,0.23265,0.49267,0.41502,0.5,0.5,37.04
8.112,0.23167,0.48192,0.41995,0.50978,0.49015,37.04
8.12,0.22874,0.47116,0.41502,0.54012,0.52956,37.04
8.128,0.22678,0.46139,0.44951,0.61546,0.61453,37.04
8.136,0.22385,0.45259,0.48522,0.65558,0.69458,37.04
8.144,0.22092,0.44575,0.4803,0.56458,0.75,37.04
8.152,0.21896,0.43891,0.51478,0.36986,0.6798,37.04
8.16,0.21701,0.43304,0.48522,0.24462,0.65517,37.04
8.168,0.21603,0.42815,0.43966,0.29941,0.72044,37.04
8.176,0.21408,0.42229,0.39532,0.38454,0.66995,37.04
8.184,0.21212,0.41838,0.41995,0.46967,0.54557,37.04
8.192,0.21017,0.41349,0.43473,0.50489,0.47537,37.04
8.2,0.20821,0.40762,0.42488,0.51468,0.44951,37.04
8.208,0.20626,0.40176,0.42488,0.51957,0.43966,37.04
8.216,0.2043,0.39492,0.41995,0.51957,0.44458,37.04
8.224,0.20235,0.38905,0.42488,0.51468,0.43473,37.04
8.232,0.20137,0.38221,0.4298,0.51957,0.4298,37.04
8.24,0.20039,0.38807,0.42488,0.51468,0.4298,37.04
8.248,0.19941,0.40078,0.42488,0.51468,0.43473,37.04
8.256,0.19941,0.40371,0.42488,0.51468,0.4298,37.04
8.264,0.19941,0.40274,0.4298,0.51957,0.4298,37.04
8.272,0.19941,0.3998,0.42488,0.50978,0.4298,37.04
8.28,0.20039,0.39687,0.4298,0.50978,0.4298,37.04
8.288,0.20137,0.39394,0.4298,0.50978,0.4298,37.04
8.296,0.20332,0.39003,0.43473,0.50978,0.42488,37.04
8.304,0.20528,0.3871,0.43473,0.50978,0.42488,37.04
8.312,0.20821,0.38416,0.43473,0.50978,0.42488,37.04
8.32,0.21017,0.38123,0.4298,0.50489,0.41995,37.04
8.328,0.21212,0.3783,0.43473,0.50489,0.41995,37.04
8.336,0.21505,0.37537,0.4298,0.50489,0.42488,37.04
8.344,0.21701,0.37243,0.42488,0.50489,0.41502,37.04
8.352,0.21994,0.36852,0.41995,0.49511,0.4101,37.04
8.36,0.2219,0.36559,0.41995,0.49022,0.40517,37.04
8.368,0.22483,0.36168,0.41995,0.49022,0.40025,37.04
8.376,0.22776,0.35875,0.4298,0.48532,0.40025,37.04
8.384,0.23069,0.35777,0.42488,0.48532,0.39532,37.04
8.392,0.2346,0.35679,0.4298,0.48532,0.38547,37.04
8.4,0.23754,0.35582,0.42488,0.48043,0.38547,37.04
8.408,0.24047,0.35582,0.4298,0.49022,0.38054,37.04
8.416,0.24438,0.35582,0.43473,0.48532,0.38054,37.04
8.424,0.24633,0.35484,0.43473,0.48532,0.38054,37.04
8.432,0.24927,0.35484,0.43966,0.49022,0.38054,37.04
8.44,0.2522,0.35288,0.44458,0.5,0.38054,37.04
8.448,0.25415,0.35191,0.44458,0.50489,0.38547,37.04
8.456,0.25611,0.34995,0.44951,0.50978,0.39532,37.04
8.464,0.25806,0.348,0.46059,0.51957,0.40025,37.04
8.472,0.26002,0.34604,0.47044,0.52544,0.40025,37.04
8.48,0.26197,0.34506,0.47044,0.52544,0.4101,37.04
8.488,0.26393,0.34409,0.47044,0.52544,0.41995,37.04
8.496,0.26588,0.34213,0.47044,0.53033,0.42488,37.04
8.504,0.26686,0.34018,0.47537,0.53033,0.42488,37.04
8.512,0.26882,0.33822,0.47537,0.53523,0.42488,37.04
8.52,0.26979,0.33724,0.47537,0.53033,0.4298,37.04
8.528,0.27077,0.33627,0.47537,0.53523,0.43473,37.04
8.536,0.27273,0.33529,0.47044,0.53523,0.44458,37.04
8.544,0.2737,0.33431,0.47537,0.53033,0.44458,37.04
8.552,0.27566,0.33333,0.47044,0.52544,0.44458,37.04
8.56,0.27664,0.33236,0.47044,0.51957,0.44951,37.04
8.568,0.27859,0.33236,0.47044,0.52544,0.44458,37.04
8.576,0.28055,0.33138,0.47044,0.53033,0.44951,37.04
8.584,0.2825,0.33138,0.46552,0.53033,0.44951,37.04
8.592,0.28446,0.33236,0.46059,0.52544,0.44951,37.04
8.6,0.28739,0.33236,0.46552,0.53033,0.44951,37.04
8.608,0.28935,0.33236,0.46059,0.52544,0.43966,37.04
8.616,0.29228,0.33236,0.46552,0.53523,0.44458,37.04
8.624,0.29521,0.33236,0.46059,0.53033,0.44458,37.04
8.632,0.29814,0.33236,0.46059,0.53523,0.44951,37.04
8.64,0.30108,0.33236,0.46059,0.53523,0.44458,37.04
8.648,0.30401,0.33333,0.46552,0.53033,0.43966,37.04
8.656,0.30694,0.33822,0.46059,0.52544,0.43966,37.04
8.664,0.30987,0.34702,0.47044,0.53033,0.43966,37.04
8.672,0.31378,0.35973,0.46552,0.52544,0.43966,37.04
8.68,0.31672,0.37439,0.47044,0.53033,0.43966,37.04
8.688,0.32063,0.39198,0.47044,0.53033,0.43966,37.04
8.696,0.32551,0.41447,0.47044,0.52544,0.43966,37.04
8.704,0.32942,0.43891,0.47044,0.53033,0.43473,37.04
8.712,0.33431,0.46432,0.47044,0.52544,0.43966,37.04
8.72,0.3392,0.48876,0.47044,0.51957,0.4298,37.04
8.728,0.34409,0.51222,0.4803,0.53033,0.42488,37.04
8.736,0.348,0.53275,0.49507,0.54012,0.41502,37.04
8.744,0.35191,0.54936,0.50985,0.55479,0.40025,37.04
8.752,0.35582,0.56305,0.5197,0.55969,0.38054,37.04
8.76,0.3607,0.5738,0.54557,0.56458,0.35961,37.04
8.768,0.36559,0.58162,0.56034,0.58023,0.33498,37.04
8.776,0.37048,0.58651,0.58498,0.59002,0.32512,37.04
8.784,0.37537,0.58944,0.56527,0.58023,0.3399,37.04
8.792,0.38025,0.58944,0.53448,0.56458,0.35961,37.04
8.8,0.38416,0.58847,0.49507,0.54012,0.39532,37.04
8.808,0.38807,0.58553,0.47044,0.52544,0.42488,37.04
8.816,0.39296,0.58065,0.44458,0.51468,0.44951,37.04
8.824,0.39687,0.57576,0.42488,0.50978,0.47537,37.04
8.832,0.40078,0.56891,0.39532,0.49511,0.50493,37.04
8.84,0.40469,0.56207,0.39039,0.49022,0.5197,37.04
8.848,0.4086,0.55425,0.38547,0.49511,0.52463,37.04
8.856,0.41349,0.54643,0.39039,0.49511,0.5197,37.04
8.864,0.4174,0.53763,0.38054,0.49511,0.51478,37.04
8.872,0.42131,0.52786,0.39532,0.49511,0.5197,37.04
8.88,0.42522,0.52004,0.39039,0.49511,0.50985,37.04
8.888,0.42913,0.51222,0.39039,0.5,0.51478,37.04
8.896,0.43206,0.5044,0.39532,0.50978,0.50985,37.04
8.904,0.43402,0.4956,0.40517,0.50978,0.49507,37.04
8.912,0.43695,0.48778,0.40517,0.54012,0.5197,37.04
8.92,0.43793,0.48094,0.43966,0.6047,0.60468,37.04
8.928,0.43988,0.4741,0.47044,0.64971,0.67488,37.04
8.936,0.44184,0.46823,0.47537,0.58513,0.75,37.04
8.944,0.44282,0.46334,0.50985,0.41977,0.68966,37.04
8.952,0.44379,0.45846,0.4803,0.2544,0.66502,37.04
8.96,0.44477,0.45455,0.43473,0.28474,0.71552,37.04
8.968,0.44477,0.45064,0.36453,0.36008,0.69458,37.04
8.976,0.44575,0.44575,0.38054,0.45499,0.5702,37.04
8.984,0.44673,0.44282,0.40025,0.5,0.49015,37.04
8.992,0.4477,0.43891,0.40025,0.51468,0.47044,37.04
9,0.44868,0.43402,0.40517,0.51957,0.45443,37.04
9.008,0.44966,0.43011,0.40025,0.51468,0.45443,37.04
9.016,0.45161,0.42522,0.39532,0.52544,0.45443,37.04
9.024,0.45357,0.42033,0.40025,0.51957,0.44951,37.04
9.032,0.45552,0.41642,0.40025,0.51957,0.44951,37.04
9.04,0.45846,0.41153,0.40025,0.51957,0.44951,37.04
9.048,0.46041,0.40762,0.39532,0.51957,0.44951,37.04
9.056,0.46334,0.40371,0.40517,0.51957,0.44951,37.04
9.064,0.4653,0.3998,0.40517,0.51468,0.44951,37.04
9.072,0.46823,0.39589,0.4101,0.50978,0.43966,37.04
9.08,0.47019,0.39296,0.4101,0.51468,0.43966,37.04
9.088,0.47312,0.39003,0.41502,0.50978,0.43473,37.04
9.096,0.47605,0.3871,0.4101,0.50978,0.43473,37.04
9.104,0.47996,0.38416,0.40517,0.50978,0.4298,37.04
9.112,0.48192,0.38123,0.4101,0.50978,0.43473,37.04
9.12,0.48485,0.3783,0.4101,0.50978,0.4298,37.04
9.128,0.48778,0.37634,0.40517,0.50489,0.43473,37.04
9.136,0.49071,0.37439,0.40517,0.50978,0.42488,37.04
9.144,0.49462,0.37341,0.40025,0.50489,0.42488,37.04
9.152,0.49853,0.37146,0.40025,0.49511,0.42488,37.04
9.16,0.50244,0.37048,0.40025,0.49511,0.41995,37.04
9.168,0.50635,0.36852,0.40025,0.49022,0.4101,37.04
9.176,0.51124,0.36657,0.40517,0.49022,0.40517,37.04
9.184,0.51515,0.36461,0.40517,0.49022,0.40025,37.04
9.192,0.52004,0.36266,0.41502,0.49511,0.39039,37.04
9.2,0.52395,0.3607,0.4101,0.49511,0.39039,37.04
9.208,0.52786,0.35875,0.41502,0.5,0.39039,37.04
9.216,0.53177,0.35777,0.41995,0.5,0.39039,37.04
9.224,0.5347,0.35679,0.41502,0.5,0.39039,37.04
9.232,0.53861,0.35582,0.41995,0.5,0.39039,37.04
9.24,0.54154,0.35484,0.43473,0.50978,0.39532,37.04
9.248,0.54448,0.35288,0.43473,0.50978,0.40025,37.04
9.256,0.54643,0.35191,0.44458,0.51468,0.40517,37.04
9.264,0.54936,0.34995,0.44951,0.52544,0.4101,37.04
9.272,0.55132,0.348,0.44951,0.53033,0.41502,37.04
9.28,0.55327,0.34702,0.45443,0.53523,0.42488,37.04
9.288,0.55425,0.34702,0.44951,0.53523,0.43473,37.04
9.296,0.55621,0.34604,0.46059,0.54012,0.43966,37.04
9.304,0.55718,0.34506,0.45443,0.53523,0.43966,37.04
9.312,0.55816,0.34311,0.46059,0.53523,0.44458,37.04
9.32,0.56012,0.34213,0.45443,0.53523,0.44951,37.04
9.328,0.56109,0.34213,0.46059,0.53523,0.44951,37.04
9.336,0.56305,0.34115,0.46059,0.53523,0.44951,37.04
9.344,0.56403,0.34018,0.45443,0.53523,0.44951,37.04
9.352,0.56598,0.3392,0.45443,0.53033,0.44951,37.04
9.36,0.56794,0.33822,0.44951,0.53523,0.45443,37.04
9.368,0.56891,0.33724,0.44951,0.53523,0.45443,37.04
9.376,0.56989,0.33724,0.44951,0.53523,0.45443,37.04
9.384,0.57087,0.33627,0.45443,0.53033,0.45443,37.04
9.392,0.57185,0.33627,0.44951,0.53033,0.45443,37.04
9.4,0.57283,0.33627,0.45443,0.53033,0.45443,37.04
9.408,0.57478,0.33529,0.46059,0.53033,0.44951,37.04
9.416,0.57674,0.33529,0.45443,0.53033,0.44951,37.04
9.424,0.57869,0.33529,0.46059,0.53033,0.44951,37.04
9.432,0.58065,0.33627,0.46552,0.53523,0.44458,37.04
9.44,0.5826,0.33822,0.45443,0.53523,0.44951,37.04
9.448,0.58456,0.34409,0.46552,0.53523,0.44951,37.04
9.456,0.58651,0.35191,0.46552,0.53523,0.44951,37.04
9.464,0.58847,0.36364,0.46059,0.53523,0.44951,37.04
9.472,0.59042,0.37928,0.46552,0.53523,0.44951,37.04
9.48,0.59238,0.39589,0.46552,0.53523,0.44951,37.04
9.488,0.59433,0.41349,0.46552,0.53523,0.44951,37.04
9.496,0.59629,0.435,0.46059,0.53523,0.44951,37.04
9.504,0.59922,0.45846,0.46552,0.53523,0.44951,37.04
9.512,0.60117,0.48289,0.46552,0.53523,0.43966,37.04
9.52,0.60411,0.50635,0.47044,0.53523,0.4298,37.04
9.528,0.60606,0.52786,0.49015,0.54012,0.41995,37.04
9.536,0.60802,0.54643,0.49507,0.5499,0.40517,37.04
9.544,0.60997,0.56109,0.51478,0.55479,0.39039,37.04
9.552,0.61095,0.57283,0.52956,0.56458,0.37562,37.04
9.56,0.6129,0.58162,0.56034,0.57534,0.34483,37.04
9.568,0.61388,0.58749,0.5702,0.58023,0.33005,37.04
9.576,0.61486,0.59042,0.57512,0.58513,0.3399,37.04
9.584,0.61681,0.59042,0.53448,0.56458,0.36453,37.04
9.592,0.61779,0.58944,0.50985,0.54012,0.39039,37.04
9.6,0.61877,0.58651,0.48522,0.51957,0.42488,37.04
9.608,0.61877,0.5826,0.44951,0.50978,0.44951,37.04
9.616,0.61975,0.57771,0.42488,0.49511,0.4803,37.04
9.624,0.61975,0.57185,0.4101,0.49022,0.49507,37.04
9.632,0.61975,0.56598,0.39532,0.48532,0.5197,37.04
9.64,0.61975,0.55914,0.39039,0.49022,0.52463,37.04
9.648,0.61975,0.55132,0.38547,0.49022,0.5197,37.04
9.656,0.61877,0.5435,0.39039,0.48532,0.52463,37.04
9.664,0.61681,0.53568,0.39532,0.48532,0.5197,37.04
9.672,0.61486,0.52786,0.39039,0.48532,0.51478,37.04
9.68,0.6129,0.52004,0.39532,0.48532,0.51478,37.04
9.688,0.61095,0.5132,0.40025,0.49022,0.50985,37.04
9.696,0.60899,0.50635,0.4101,0.50489,0.49507,37.04
9.704,0.60704,0.49951,0.40025,0.51468,0.50985,37.04
9.712,0.60508,0.49267,0.43473,0.59002,0.5899,37.04
9.72,0.60215,0.4868,0.46552,0.63992,0.66995,37.04
9.728,0.59824,0.47996,0.47537,0.59002,0.74015,37.04
9.736,0.59433,0.47507,0.5,0.41977,0.69458,37.04
9.744,0.59042,0.47019,0.48522,0.23483,0.6601,37.04
9.752,0.58651,0.46628,0.45443,0.22505,0.70936,37.04
9.76,0.58358,0.46237,0.39039,0.34442,0.71552,37.04
9.768,0.58065,0.45846,0.37562,0.44521,0.58498,37.04
9.776,0.57771,0.45552,0.41995,0.50489,0.5,37.04
9.784,0.5738,0.45259,0.4101,0.51468,0.46552,37.04
9.792,0.57087,0.44966,0.40517,0.51957,0.46059,37.04
9.8,0.56696,0.44673,0.40517,0.51468,0.44951,37.04
9.808,0.56305,0.44282,0.40517,0.51468,0.44951,37.04
9.816,0.55914,0.43891,0.40517,0.51468,0.44951,37.04
9.824,0.55523,0.43597,0.4101,0.51468,0.44951,37.04
9.832,0.5523,0.43206,0.41502,0.51957,0.44458,37.04
9.84,0.54839,0.42717,0.4101,0.51468,0.44458,37.04
9.848,0.54545,0.42326,0.41995,0.51468,0.44458,37.04
9.856,0.54154,0.41838,0.41502,0.51468,0.43966,37.04
9.864,0.53861,0.41349,0.41995,0.50978,0.43966,37.04
9.872,0.5347,0.40958,0.41502,0.50978,0.43473,37.04
9.88,0.53177,0.40665,0.41995,0.50978,0.43966,37.04
9.888,0.52884,0.40469,0.41995,0.50978,0.43473,37.04
9.896,0.52493,0.40274,0.41995,0.50489,0.43473,37.04
9.904,0.52199,0.40078,0.41502,0.50489,0.4298,37.04
9.912,0.51906,0.39785,0.41995,0.50489,0.43473,37.04
9.92,0.51613,0.39492,0.41502,0.50489,0.4298,37.04
9.928,0.51222,0.39198,0.41995,0.5,0.42488,37.04
9.936,0.50929,0.39003,0.41502,0.5,0.42488,37.04
9.944,0.50538,0.3871,0.41995,0.49022,0.41995,37.04
9.952,0.50244,0.38416,0.41502,0.49511,0.41502,37.04
9.96,0.49853,0.38221,0.41995,0.49511,0.40517,37.04
9.968,0.49462,0.38025,0.41502,0.5,0.4101,37.04
9.976,0.48974,0.3783,0.41502,0.49511,0.40025,37.04
9.984,0.48583,0.37732,0.41995,0.49022,0.39532,37.04
9.992,0.48094,0.37634,0.41995,0.49022,0.39039,37.04
10,0.47605,0.37537,0.41502,0.49511,0.39532,37.04
10.008,0.47214,0.37439,0.42488,0.49511,0.38547,37.04
10.016,0.46823,0.37341,0.4298,0.49511,0.39039,37.04
10.024,0.46334,0.37243,0.43473,0.49511,0.38547,37.04
10.032,0.45943,0.37146,0.43966,0.50978,0.39039,37.04
10.04,0.45455,0.37048,0.44951,0.50978,0.39532,37.04
10.048,0.45064,0.3695,0.45443,0.51957,0.40025,37.04
10.056,0.44477,0.36755,0.45443,0.52544,0.40517,37.04
10.064,0.43988,0.36657,0.46552,0.53033,0.41502,37.04
10.072,0.43402,0.36461,0.47044,0.53033,0.41995,37.04
10.08,0.42913,0.36461,0.47044,0.53033,0.42488,37.04
10.088,0.42326,0.36364,0.47044,0.53033,0.42488,37.04
10.096,0.41838,0.36364,0.47044,0.53523,0.42488,37.04
10.104,0.41251,0.36364,0.47044,0.53523,0.43473,37.04
10.112,0.40762,0.36266,0.47537,0.53523,0.43473,37.04
10.12,0.40176,0.36168,0.47044,0.53523,0.43966,37.04
10.128,0.39687,0.35973,0.4803,0.53523,0.44458,37.04
10.136,0.39101,0.35875,0.47044,0.53523,0.44951,37.04
10.144,0.38514,0.35875,0.47044,0.53523,0.44458,37.04
10.152,0.37928,0.35777,0.47044,0.53033,0.44951,37.04
10.16,0.37243,0.35679,0.47044,0.51957,0.44458,37.04
10.168,0.36755,0.35582,0.47044,0.52544,0.44458,37.04
10.176,0.36168,0.35582,0.47044,0.52544,0.44458,37.04
10.184,0.35679,0.35582,0.46552,0.53033,0.44951,37.04
10.192,0.35191,0.35582,0.47044,0.53033,0.44458,37.04
10.2,0.34702,0.35582,0.47044,0.53033,0.44458,37.04
10.208,0.34213,0.35582,0.47044,0.52544,0.43966,37.04
10.216,0.33724,0.35679,0.47044,0.52544,0.43966,37.04
10.224,0.33236,0.35777,0.47044,0.52544,0.43473,37.04
10.232,0.32845,0.3607,0.47044,0.53033,0.43473,37.04
10.24,0.32454,0.36559,0.47044,0.53033,0.43473,37.04
10.248,0.31965,0.37341,0.47044,0.53033,0.43473,37.04
10.256,0.31574,0.38416,0.47044,0.53033,0.43966,37.04
10.264,0.31281,0.3998,0.47044,0.53033,0.44458,37.04
10.272,0.3089,0.41935,0.47044,0.52544,0.43966,37.04
10.28,0.30596,0.43891,0.46552,0.52544,0.43966,37.04
10.288,0.30205,0.47019,0.46552,0.51957,0.44458,37.04
10.296,0.29912,0.51124,0.46552,0.52544,0.44458,37.04
10.304,0.29619,0.54741,0.46059,0.52544,0.43473,37.04
10.312,0.29326,0.57967,0.47537,0.53033,0.42488,37.04
10.32,0.29032,0.60704,0.49507,0.54012,0.4101,37.04
10.328,0.28739,0.6305,0.50493,0.5499,0.40025,37.04
10.336,0.28543,0.64907,0.5197,0.55479,0.39039,37.04
10.344,0.28348,0.66471,0.54557,0.57045,0.35961,37.04
10.352,0.28152,0.67546,0.56527,0.58023,0.3399,37.04
10.36,0.27859,0.68328,0.58498,0.58513,0.3202,37.04
10.368,0.27664,0.68719,0.57512,0.59491,0.33498,37.04
10.376,0.27273,0.68719,0.55049,0.57045,0.35468,37.04
10.384,0.26979,0.68524,0.50985,0.5499,0.39039,37.04
10.392,0.26686,0.68231,0.4803,0.53033,0.42488,37.04
10.4,0.26393,0.67742,0.44951,0.51468,0.45443,37.04
10.408,0.261,0.67058,0.42488,0.50489,0.4803,37.04
10.416,0.25806,0.66276,0.39532,0.5,0.50985,37.04
10.424,0.25513,0.65396,0.39039,0.5,0.5197,37.04
10.432,0.2522,0.64516,0.38054,0.5,0.52956,37.04
10.44,0.24829,0.63539,0.38054,0.49511,0.53448,37.04
10.448,0.24536,0.62463,0.38054,0.5,0.52956,37.04
10.456,0.24145,0.61486,0.38547,0.5,0.52463,37.04
10.464,0.23754,0.60411,0.38547,0.50489,0.52463,37.04
10.472,0.2346,0.59433,0.39039,0.50489,0.5197,37.04
10.48,0.23069,0.58553,0.39039,0.50489,0.5197,37.04
10.488,0.22678,0.57674,0.39532,0.51468,0.50985,37.04
10.496,0.22385,0.56891,0.39532,0.53033,0.50493,37.04
10.504,0.22092,0.56109,0.41502,0.59491,0.60468,37.04
10.512,0.21799,0.55327,0.45443,0.63503,0.67488,37.04
10.52,0.21505,0.54643,0.46059,0.58023,0.75,37.04
10.528,0.21212,0.53959,0.48522,0.41487,0.70936,37.04
10.536,0.20919,0.53275,0.47537,0.23483,0.66502,37.04
10.544,0.20528,0.5259,0.44951,0.27006,0.71552,37.04
10.552,0.20235,0.52004,0.38547,0.35519,0.72044,37.04
10.56,0.20039,0.51417,0.38054,0.4501,0.58005,37.04
10.568,0.19746,0.50929,0.41995,0.5,0.48522,37.04
10.576,0.1955,0.50635,0.41502,0.51468,0.46059,37.04
10.584,0.19257,0.50244,0.40517,0.51468,0.45443,37.04
10.592,0.19062,0.49951,0.40517,0.51468,0.44951,37.04
10.6,0.18866,0.4956,0.40025,0.51468,0.44951,37.04
10.608,0.18671,0.49071,0.40517,0.51468,0.44951,37.04
10.616,0.18475,0.48583,0.4101,0.51468,0.44458,37.04
10.624,0.18182,0.47996,0.41502,0.51468,0.43473,37.04
10.632,0.17986,0.4741,0.41995,0.51468,0.43966,37.04
10.64,0.17791,0.46823,0.41502,0.51468,0.43966,37.04
10.648,0.17595,0.46237,0.41995,0.51468,0.43966,37.04
10.656,0.174,0.45748,0.41995,0.50978,0.43473,37.04
10.664,0.17302,0.45259,0.41995,0.50978,0.43473,37.04
10.672,0.17204,0.44868,0.42488,0.50489,0.4298,37.04
10.68,0.17204,0.44575,0.4298,0.50978,0.4298,37.04
10.688,0.17204,0.44184,0.42488,0.50489,0.42488,37.04
10.696,0.17204,0.43793,0.4298,0.50489,0.42488,37.04
10.704,0.17204,0.43402,0.41995,0.50489,0.42488,37.04
10.712,0.17204,0.43109,0.41995,0.50489,0.42488,37.04
10.72,0.17204,0.42717,0.41995,0.5,0.42488,37.04
10.728,0.17302,0.42424,0.41995,0.49511,0.41995,37.04
10.736,0.17302,0.42131,0.41995,0.49511,0.41502,37.04
10.744,0.174,0.41838,0.41995,0.49511,0.40517,37.04
10.752,0.17498,0.41544,0.41995,0.49511,0.40517,37.04
10.76,0.17498,0.41349,0.41995,0.49511,0.40025,37.04
10.768,0.17595,0.41056,0.41995,0.49022,0.39532,37.04
10.776,0.17693,0.4086,0.41995,0.49022,0.38547,37.04
10.784,0.17791,0.40665,0.41995,0.49022,0.38547,37.04
10.792,0.17889,0.40567,0.42488,0.49022,0.38547,37.04
10.8,0.17986,0.40371,0.43473,0.49022,0.38054,37.04
10.808,0.18084,0.40176,0.43966,0.49511,0.38054,37.04
10.816,0.18182,0.3998,0.44458,0.5,0.38054,37.04
10.824,0.1828,0.39785,0.44951,0.5,0.38054,37.04
10.832,0.18377,0.39589,0.46059,0.50978,0.38054,37.04
10.84,0.18475,0.39394,0.46552,0.50978,0.38547,37.04
10.848,0.18573,0.39198,0.46059,0.51957,0.40025,37.04
10.856,0.18671,0.39003,0.47044,0.52544,0.40025,37.04
10.864,0.18768,0.38905,0.47537,0.53033,0.4101,37.04
10.872,0.18866,0.38807,0.47044,0.53033,0.41995,37.04
10.88,0.18964,0.38807,0.47537,0.53033,0.42488,37.04
10.888,0.19062,0.38807,0.4803,0.53033,0.42488,37.04
10.896,0.19159,0.3871,0.48522,0.53033,0.4298,37.04
10.904,0.19159,0.38514,0.4803,0.52544,0.43473,37.04
10.912,0.19159,0.38319,0.48522,0.53033,0.43473,37.04
10.92,0.19159,0.38221,0.48522,0.52544,0.43966,37.04
10.928,0.19159,0.38025,0.4803,0.53033,0.43473,37.04
10.936,0.19159,0.3783,0.47537,0.53033,0.44458,37.04
10.944,0.19257,0.37732,0.4803,0.53033,0.44458,37.04
10.952,0.19257,0.37732,0.47537,0.53033,0.44951,37.04
10.96,0.19257,0.37634,0.47044,0.53033,0.44458,37.04
10.968,0.19355,0.37634,0.47044,0.52544,0.44951,37.04
10.976,0.19355,0.37634,0.47044,0.53033,0.44458,37.04
10.984,0.19453,0.37634,0.47044,0.53033,0.44458,37.04
10.992,0.1955,0.37537,0.47044,0.53033,0.43966,37.04
11,0.19648,0.37537,0.47044,0.53033,0.43966,37.04
11.008,0.19746,0.37439,0.47044,0.52544,0.43473,37.04
11.016,0.19844,0.37537,0.47044,0.53033,0.43966,37.04
11.024,0.20039,0.3783,0.47044,0.52544,0.43473,37.04
11.032,0.20137,0.38514,0.47044,0.53033,0.43966,37.04
11.04,0.20332,0.39687,0.47044,0.52544,0.43966,37.04
11.048,0.2043,0.41251,0.47044,0.53523,0.43966,37.04
11.056,0.20528,0.43304,0.47044,0.53033,0.43966,37.04
11.064,0.20723,0.45748,0.47044,0.52544,0.43966,37.04
11.072,0.20919,0.48485,0.47044,0.52544,0.44458,37.04
11.08,0.21017,0.51026,0.47044,0.53033,0.44458,37.04
11.088,0.21212,0.5347,0.47044,0.52544,0.43966,37.04
11.096,0.21408,0.56109,0.47537,0.53033,0.4298,37.04
11.104,0.21603,0.58847,0.4803,0.53523,0.41995,37.04
11.112,0.21701,0.61388,0.49507,0.54012,0.40517,37.04
11.12,0.21799,0.63636,0.50985,0.5499,0.40025,37.04
11.128,0.21896,0.65494,0.53448,0.55969,0.37562,37.04
11.136,0.21994,0.6696,0.55049,0.57534,0.35468,37.04
11.144,0.22092,0.68133,0.57512,0.58023,0.33005,37.04
11.152,0.2219,0.68817,0.58498,0.58513,0.31527,37.04
11.16,0.22287,0.69208,0.57512,0.58023,0.33005,37.04
11.168,0.22385,0.69306,0.53941,0.55969,0.35961,37.04
11.176,0.22483,0.6911,0.50985,0.53523,0.39532,37.04
11.184,0.22483,0.68719,0.47537,0.51957,0.41995,37.04
11.192,0.22581,0.68328,0.45443,0.50978,0.44458,37.04
11.2,0.22581,0.67644,0.42488,0.49511,0.47537,37.04
11.208,0.22678,0.6696,0.41502,0.49511,0.5,37.04
11.216,0.22678,0.6608,0.39532,0.49511,0.5197,37.04
11.224,0.22678,0.652,0.39039,0.49022,0.5197,37.04
11.232,0.22678,0.64223,0.39039,0.49022,0.5197,37.04
11.24,0.22678,0.63245,0.39532,0.49022,0.5197,37.04
11.248,0.22581,0.62268,0.39532,0.49022,0.5197,37.04
11.256,0.22483,0.61193,0.39532,0.49022,0.50985,37.04
11.264,0.22483,0.60215,0.40025,0.49511,0.50985,37.04
11.272,0.22385,0.5914,0.4101,0.49511,0.50493,37.04
11.28,0.22287,0.58358,0.41995,0.50978,0.49507,37.04
11.288,0.22092,0.57576,0.4101,0.53033,0.51478,37.04
11.296,0.21994,0.56794,0.43966,0.59491,0.59975,37.04
11.304,0.21896,0.56109,0.47537,0.64481,0.68473,37.04
11.312,0.21701,0.55425,0.46552,0.57045,0.75493,37.04
11.32,0.21505,0.54741,0.49507,0.3953,0.70443,37.04
11.328,0.2131,0.54057,0.47044,0.23973,0.66995,37.04
11.336,0.21114,0.5347,0.43966,0.28474,0.72044,37.04
11.344,0.20821,0.52786,0.39039,0.37476,0.68473,37.04
11.352,0.20626,0.52199,0.4101,0.46967,0.56527,37.04
11.36,0.2043,0.51613,0.4298,0.50978,0.48522,37.04
11.368,0.20235,0.51026,0.41995,0.51468,0.46059,37.04
11.376,0.20039,0.50538,0.41995,0.51468,0.44951,37.04
11.384,0.19844,0.50147,0.41995,0.51468,0.44458,37.04
11.392,0.19648,0.49658,0.41995,0.51468,0.43966,37.04
11.4,0.19453,0.49169,0.41995,0.52544,0.44458,37.04
11.408,0.19355,0.4868,0.42488,0.51957,0.43473,37.04
11.416,0.19257,0.48192,0.42488,0.51957,0.43473,37.04
11.424,0.19159,0.47605,0.42488,0.51957,0.43473,37.04
11.432,0.19062,0.47019,0.42488,0.51468,0.43473,37.04
11.44,0.18964,0.46432,0.42488,0.51468,0.4298,37.04
11.448,0.18964,0.45943,0.4298,0.51468,0.4298,37.04
11.456,0.18964,0.45455,0.4298,0.50978,0.4298,37.04
11.464,0.18964,0.45064,0.42488,0.50978,0.4298,37.04
11.472,0.18964,0.44673,0.4298,0.50978,0.42488,37.04
11.48,0.18964,0.44379,0.4298,0.50978,0.42488,37.04
11.488,0.19062,0.44184,0.4298,0.50978,0.42488,37.04
11.496,0.19062,0.43793,0.4298,0.50978,0.42488,37.04
11.504,0.19159,0.435,0.42488,0.5,0.41995,37.04
11.512,0.19159,0.43206,0.4298,0.5,0.41995,37.04
11.52,0.19257,0.42815,0.42488,0.5,0.4101,37.04
11.528,0.19257,0.42424,0.4298,0.5,0.4101,37.04
11.536,0.19355,0.42131,0.4298,0.49511,0.40025,37.04
11.544,0.19453,0.41838,0.42488,0.49022,0.40025,37.04
11.552,0.1955,0.41544,0.42488,0.49511,0.39532,37.04
11.56,0.19746,0.41251,0.4298,0.49022,0.38547,37.04
11.568,0.19941,0.41056,0.4298,0.48532,0.38054,37.04
11.576,0.20137,0.40958,0.43473,0.48532,0.38054,37.04
11.584,0.20332,0.4086,0.43966,0.48532,0.37562,37.04
11.592,0.20528,0.40762,0.43966,0.48532,0.36946,37.04
11.6,0.20723,0.40567,0.43966,0.48532,0.37562,37.04
11.608,0.20919,0.40371,0.44458,0.49022,0.37562,37.04
11.616,0.21114,0.40176,0.45443,0.5,0.38054,37.04
11.624,0.21212,0.39883,0.46552,0.50489,0.38054,37.04
11.632,0.2131,0.39687,0.46552,0.51468,0.39039,37.04
11.64,0.21408,0.39492,0.47537,0.51957,0.39039,37.04
11.648,0.21505,0.39296,0.4803,0.52544,0.40025,37.04
11.656,0.21505,0.39296,0.4803,0.53033,0.4101,37.04
11.664,0.21505,0.39198,0.4803,0.53033,0.41995,37.04
11.672,0.21505,0.39101,0.4803,0.53033,0.42488,37.04
11.68,0.21603,0.39101,0.47537,0.53033,0.4298,37.04
11.688,0.21603,0.39101,0.4803,0.53033,0.43473,37.04
11.696,0.21603,0.38905,0.49015,0.52544,0.43473,37.04
11.704,0.21603,0.38807,0.48522,0.52544,0.43966,37.04
11.712,0.21603,0.38612,0.4803,0.52544,0.44458,37.04
11.72,0.21505,0.38514,0.4803,0.52544,0.44458,37.04
11.728,0.21505,0.38319,0.4803,0.52544,0.44458,37.04
11.736,0.21505,0.38123,0.47537,0.53033,0.44458,37.04
11.744,0.21505,0.37928,0.47537,0.53033,0.44458,37.04
11.752,0.21603,0.3783,0.47044,0.52544,0.44951,37.04
11.76,0.21701,0.3783,0.47044,0.52544,0.44951,37.04
11.768,0.21799,0.37732,0.47044,0.53033,0.44458,37.04
11.776,0.21799,0.37732,0.47537,0.52544,0.44458,37.04
11.784,0.21896,0.37732,0.47044,0.52544,0.44458,37.04
11.792,0.21994,0.37732,0.47044,0.52544,0.43966,37.04
11.8,0.22287,0.37732,0.47044,0.52544,0.44458,37.04
11.808,0.22483,0.3783,0.47044,0.52544,0.43966,37.04
11.816,0.22776,0.38123,0.47044,0.53033,0.43966,37.04
11.824,0.23167,0.3871,0.47537,0.53033,0.43473,37.04
11.832,0.2346,0.39785,0.47044,0.52544,0.43966,37.04
11.84,0.23754,0.41447,0.47537,0.52544,0.43473,37.04
11.848,0.24047,0.435,0.4803,0.53033,0.43473,37.04
11.856,0.2434,0.45943,0.4803,0.53033,0.43473,37.04
11.864,0.24731,0.48876,0.47537,0.53033,0.43966,37.04
11.872,0.25024,0.51515,0.47044,0.53033,0.44458,37.04
11.88,0.25415,0.53959,0.47537,0.53033,0.43473,37.04
11.888,0.25806,0.56696,0.48522,0.53033,0.42488,37.04
11.896,0.26197,0.59335,0.49507,0.53523,0.41502,37.04
11.904,0.26588,0.61877,0.50493,0.53523,0.40025,37.04
11.912,0.26979,0.6393,0.51478,0.54501,0.39039,37.04
11.92,0.27468,0.65689,0.53448,0.55479,0.37562,37.04
11.928,0.27761,0.67058,0.56034,0.56458,0.35468,37.04
11.936,0.28152,0.68035,0.58498,0.58023,0.33005,37.04
11.944,0.28543,0.68622,0.59483,0.58513,0.31527,37.04
11.952,0.28837,0.69013,0.58005,0.58023,0.33005,37.04
11.96,0.29228,0.69013,0.55049,0.56458,0.34975,37.04
11.968,0.29619,0.68817,0.50985,0.54012,0.39039,37.04
11.976,0.3001,0.68426,0.4803,0.51957,0.41995,37.04
11.984,0.30401,0.6784,0.44951,0.50978,0.44458,37.04
11.992,0.30694,0.67155,0.4298,0.50489,0.47044,37.04
12,0.31085,0.66276,0.4101,0.5,0.49507,37.04
12.008,0.31378,0.65396,0.40025,0.49022,0.51478,37.04
12.016,0.31769,0.64418,0.39532,0.5,0.5197,37.04
12.024,0.32063,0.63441,0.39532,0.5,0.5197,37.04
12.032,0.32356,0.62366,0.39532,0.49511,0.51478,37.04
12.04,0.32649,0.6129,0.40025,0.5,0.51478,37.04
12.048,0.32942,0.60313,0.40025,0.50489,0.50985,37.04
12.056,0.33138,0.59238,0.40517,0.50489,0.50493,37.04
12.064,0.33333,0.5826,0.4101,0.50489,0.50493,37.04
12.072,0.33529,0.57478,0.41502,0.50978,0.49507,37.04
12.08,0.33627,0.56696,0.4101,0.52544,0.51478,37.04
12.088,0.33724,0.55914,0.44458,0.5998,0.59975,37.04
12.096,0.3392,0.5523,0.4803,0.65558,0.66995,37.04
12.104,0.34018,0.54545,0.47537,0.6047,0.74507,37.04
12.112,0.34115,0.54057,0.50985,0.43542,0.69951,37.04
12.12,0.34213,0.53568,0.49015,0.2544,0.66502,37.04
12.128,0.34311,0.53079,0.45443,0.24462,0.71552,37.04
12.136,0.34409,0.5259,0.38054,0.36008,0.69458,37.04
12.144,0.34506,0.52102,0.37562,0.44521,0.58005,37.04
12.152,0.34604,0.51613,0.40517,0.49511,0.49507,37.04
12.16,0.34702,0.51026,0.4101,0.50978,0.46552,37.04
12.168,0.348,0.5044,0.40025,0.50978,0.45443,37.04
12.176,0.34897,0.49853,0.40025,0.50978,0.44951,37.04
12.184,0.35093,0.49365,0.40517,0.50978,0.44951,37.04
12.192,0.35288,0.48974,0.4101,0.50978,0.44951,37.04
12.2,0.35484,0.48387,0.40025,0.50978,0.44951,37.04
12.208,0.35679,0.47898,0.4101,0.51468,0.44458,37.04
12.216,0.35973,0.47312,0.40517,0.50978,0.44458,37.04
12.224,0.36266,0.46725,0.4101,0.50978,0.43966,37.04
12.232,0.36559,0.46139,0.41502,0.50978,0.43966,37.04
12.24,0.3695,0.45552,0.4101,0.50978,0.43473,37.04
12.248,0.37243,0.45064,0.41995,0.50978,0.4298,37.04
12.256,0.37537,0.44575,0.41502,0.50978,0.4298,37.04
12.264,0.3783,0.44086,0.41502,0.50489,0.43473,37.04
12.272,0.38123,0.43793,0.41502,0.50489,0.43473,37.04
12.28,0.38514,0.435,0.41502,0.50489,0.4298,37.04
12.288,0.38905,0.43206,0.4101,0.5,0.4298,37.04
12.296,0.39296,0.42913,0.4101,0.5,0.4298,37.04
12.304,0.39785,0.4262,0.4101,0.49511,0.42488,37.04
12.312,0.40274,0.42424,0.40517,0.49022,0.41995,37.04
12.32,0.40762,0.42131,0.40025,0.49511,0.41502,37.04
12.328,0.41153,0.41838,0.40517,0.49022,0.41502,37.04
12.336,0.41642,0.40371,0.4101,0.48532,0.40517,37.04
12.344,0.42131,0.38416,0.40517,0.48532,0.40025,37.04
12.352,0.42522,0.37341,0.40517,0.48043,0.39532,37.04
12.36,0.43011,0.36755,0.41502,0.48532,0.39039,37.04
12.368,0.435,0.36266,0.4101,0.48532,0.39532,37.04
12.376,0.43988,0.3607,0.41995,0.48532,0.38547,37.04
12.384,0.44477,0.35875,0.41995,0.48532,0.38547,37.04
12.392,0.45064,0.35777,0.42488,0.49511,0.39039,37.04
12.4,0.45552,0.35582,0.4298,0.49511,0.38547,37.04
12.408,0.46041,0.35386,0.4298,0.50489,0.39039,37.04
12.416,0.4653,0.35191,0.43473,0.50978,0.40025,37.04
12.424,0.46921,0.34897,0.44458,0.50978,0.40025,37.04
12.432,0.47312,0.34702,0.44458,0.52544,0.40517,37.04
12.44,0.47703,0.34409,0.44458,0.53033,0.4101,37.04
12.448,0.48192,0.34115,0.44951,0.52544,0.42488,37.04
12.456,0.48583,0.3392,0.44951,0.53523,0.4298,37.04
12.464,0.48974,0.33724,0.44951,0.53523,0.43966,37.04
12.472,0.49267,0.33529,0.44458,0.53033,0.44458,37.04
12.48,0.4956,0.33431,0.46059,0.53523,0.44458,37.04
12.488,0.49853,0.33333,0.45443,0.53033,0.44951,37.04
12.496,0.50049,0.33236,0.46059,0.52544,0.44951,37.04
12.504,0.50342,0.33236,0.44951,0.53033,0.44951,37.04
12.512,0.50635,0.33138,0.46059,0.53523,0.44951,37.04
12.52,0.50929,0.33138,0.44951,0.52544,0.44951,37.04
12.528,0.51222,0.33138,0.44951,0.53033,0.45443,37.04
12.536,0.51515,0.33138,0.44458,0.52544,0.45443,37.04
12.544,0.51906,0.3304,0.44951,0.52544,0.45443,37.04
12.552,0.52199,0.32942,0.44458,0.52544,0.45443,37.04
12.56,0.5259,0.32845,0.44951,0.53523,0.45443,37.04
12.568,0.52884,0.32649,0.44458,0.53033,0.45443,37.04
12.576,0.53177,0.32649,0.44458,0.53033,0.44951,37.04
12.584,0.5347,0.32649,0.44458,0.53523,0.44951,37.04
12.592,0.53763,0.32649,0.44951,0.53523,0.44951,37.04
12.6,0.54154,0.32649,0.44458,0.53033,0.44951,37.04
12.608,0.54448,0.32942,0.44458,0.52544,0.44951,37.04
12.616,0.54741,0.33431,0.44458,0.53523,0.45443,37.04
12.624,0.55132,0.34311,0.44458,0.53523,0.45443,37.04
12.632,0.55523,0.35777,0.44458,0.53523,0.45443,37.04
12.64,0.55816,0.37732,0.45443,0.53523,0.44951,37.04
12.648,0.56207,0.40274,0.44951,0.53523,0.44951,37.04
12.656,0.56598,0.43206,0.44951,0.51957,0.44951,37.04
12.664,0.56989,0.46432,0.44951,0.52544,0.44951,37.04
12.672,0.5738,0.49169,0.45443,0.53033,0.44951,37.04
12.68,0.57771,0.51808,0.46552,0.53033,0.43966,37.04
12.688,0.58162,0.54448,0.47537,0.53523,0.42488,37.04
12.696,0.58651,0.57087,0.48522,0.54012,0.41995,37.04
12.704,0.5914,0.59433,0.49507,0.54501,0.40025,37.04
12.712,0.59629,0.61388,0.51478,0.55479,0.39039,37.04
12.72,0.60117,0.6305,0.52956,0.57045,0.37562,37.04
12.728,0.60508,0.64321,0.55049,0.58023,0.34975,37.04
12.736,0.60899,0.65103,0.56034,0.58513,0.3399,37.04
12.744,0.6129,0.65591,0.55542,0.58513,0.34975,37.04
12.752,0.61681,0.65689,0.52463,0.57045,0.37562,37.04
12.76,0.62072,0.65591,0.5,0.54501,0.40025,37.04
12.768,0.62463,0.652,0.47044,0.52544,0.4298,37.04
12.776,0.62854,0.64712,0.44951,0.51468,0.44951,37.04
12.784,0.63245,0.64027,0.41995,0.50489,0.48522,37.04
12.792,0.63539,0.63245,0.39532,0.5,0.50985,37.04
12.8,0.63832,0.62463,0.38054,0.49022,0.52463,37.04
12.808,0.64125,0.61486,0.38054,0.49511,0.52463,37.04
12.816,0.64418,0.60411,0.38054,0.5,0.52463,37.04
12.824,0.64614,0.59238,0.39039,0.5,0.5197,37.04
12.832,0.64809,0.58162,0.39039,0.5,0.51478,37.04
12.84,0.65005,0.56989,0.39532,0.5,0.51478,37.04
12.848,0.65103,0.55914,0.39532,0.5,0.51478,37.04
12.856,0.65103,0.54839,0.40025,0.50978,0.50985,37.04
12.864,0.65103,0.53861,0.40025,0.51468,0.49507,37.04
12.872,0.65103,0.52981,0.39532,0.54012,0.52956,37.04
12.88,0.65103,0.52297,0.43966,0.6047,0.60468,37.04
12.888,0.65005,0.51613,0.4803,0.64971,0.67488,37.04
12.896,0.65005,0.51026,0.48522,0.58023,0.73522,37.04
12.904,0.64907,0.5044,0.51478,0.40998,0.6798,37.04
12.912,0.64809,0.49951,0.48522,0.24462,0.65517,37.04
12.92,0.64712,0.4956,0.43966,0.28963,0.71552,37.04
12.928,0.64516,0.49169,0.36946,0.36497,0.68473,37.04
12.936,0.64418,0.4868,0.38547,0.45499,0.5702,37.04
12.944,0.64223,0.48289,0.40517,0.50489,0.49507,37.04
12.952,0.64027,0.47801,0.39532,0.50978,0.47537,37.04
12.96,0.6393,0.47214,0.39532,0.51468,0.46552,37.04
12.968,0.63734,0.46628,0.39532,0.51468,0.46059,37.04
12.976,0.63636,0.46041,0.40025,0.51468,0.44951,37.04
12.984,0.63539,0.45455,0.39532,0.51957,0.45443,37.04
12.992,0.63539,0.44868,0.39532,0.51468,0.44951,37.04
13,0.63539,0.44379,0.40517,0.51468,0.44951,37.04
13.008,0.63539,0.43891,0.40517,0.50978,0.44951,37.04
13.016,0.63441,0.43402,0.40517,0.50978,0.44951,37.04
13.024,0.63441,0.42913,0.40517,0.50978,0.44951,37.04
13.032,0.63441,0.42424,0.4101,0.50978,0.44951,37.04
13.04,0.63343,0.42033,0.41502,0.50978,0.43966,37.04
13.048,0.63343,0.41447,0.4101,0.50978,0.44458,37.04
13.056,0.63245,0.40958,0.41995,0.50978,0.43473,37.04
13.064,0.63245,0.40567,0.4101,0.5,0.43473,37.04
13.072,0.63148,0.40176,0.41502,0.5,0.4298,37.04
13.08,0.63148,0.39883,0.4101,0.5,0.4298,37.04
13.088,0.63148,0.39589,0.41502,0.5,0.42488,37.04
13.096,0.63148,0.39296,0.41502,0.5,0.42488,37.04
13.104,0.63245,0.39003,0.4101,0.49022,0.41995,37.04
13.112,0.63245,0.3871,0.41502,0.49511,0.42488,37.04
13.12,0.63245,0.38514,0.40517,0.49511,0.41995,37.04
13.128,0.63245,0.38221,0.40517,0.49022,0.4101,37.04
13.136,0.63245,0.38025,0.4101,0.48532,0.40517,37.04
13.144,0.63245,0.3783,0.41502,0.48532,0.40025,37.04
13.152,0.63343,0.37732,0.41502,0.48532,0.40025,37.04
13.16,0.63343,0.37537,0.41502,0.48532,0.39532,37.04
13.168,0.63441,0.37439,0.41502,0.48532,0.39532,37.04
13.176,0.63441,0.37243,0.41995,0.48532,0.39039,37.04
13.184,0.63441,0.37146,0.41995,0.48532,0.39039,37.04
13.192,0.63441,0.3695,0.42488,0.49022,0.39039,37.04
13.2,0.63441,0.36755,0.43966,0.5,0.39039,37.04
13.208,0.63441,0.36461,0.44458,0.50489,0.39532,37.04
13.216,0.63441,0.36266,0.44458,0.50978,0.40517,37.04
13.224,0.63441,0.3607,0.45443,0.51468,0.4101,37.04
13.232,0.63441,0.35875,0.46059,0.51468,0.41502,37.04
13.24,0.63343,0.35679,0.46059,0.51957,0.42488,37.04
13.248,0.63343,0.35484,0.46059,0.52544,0.42488,37.04
13.256,0.63245,0.35288,0.46552,0.52544,0.43473,37.04
13.264,0.63245,0.35093,0.46552,0.53033,0.43966,37.04
13.272,0.63148,0.34995,0.46552,0.53033,0.44458,37.04
13.28,0.63148,0.34897,0.47044,0.53033,0.44458,37.04
13.288,0.6305,0.348,0.46552,0.53523,0.44951,37.04
13.296,0.62952,0.34702,0.46059,0.53523,0.44951,37.04
13.304,0.62854,0.34604,0.46552,0.53033,0.44951,37.04
13.312,0.62659,0.34506,0.47044,0.53033,0.44951,37.04
13.32,0.62561,0.34506,0.47044,0.53033,0.44951,37.04
13.328,0.62366,0.34409,0.47044,0.53033,0.44951,37.04
13.336,0.6217,0.34409,0.47044,0.52544,0.44951,37.04
13.344,0.61975,0.34311,0.47044,0.53033,0.44458,37.04
13.352,0.61779,0.34115,0.46552,0.52544,0.44951,37.04
13.36,0.61486,0.34018,0.46552,0.52544,0.44458,37.04
13.368,0.6129,0.33822,0.46552,0.53033,0.44458,37.04
13.376,0.61095,0.33724,0.46552,0.52544,0.44458,37.04
13.384,0.60997,0.33724,0.46552,0.52544,0.44951,37.04
13.392,0.60802,0.33627,0.47044,0.52544,0.44458,37.04
13.4,0.60606,0.33822,0.47044,0.53033,0.44458,37.04
13.408,0.60411,0.34213,0.47044,0.52544,0.43966,37.04
13.416,0.60215,0.35093,0.47044,0.53033,0.44458,37.04
13.424,0.59922,0.36461,0.46552,0.53033,0.44458,37.04
13.432,0.59726,0.38416,0.46552,0.53033,0.44458,37.04
13.44,0.59433,0.4086,0.46552,0.52544,0.44458,37.04
13.448,0.59238,0.43793,0.47044,0.53523,0.44458,37.04
13.456,0.58944,0.46921,0.47044,0.53523,0.44458,37.04
13.464,0.58553,0.50244,0.47044,0.53523,0.43966,37.04
13.472,0.5826,0.53079,0.47044,0.53523,0.4298,37.04
13.48,0.57869,0.55621,0.49015,0.54501,0.41995,37.04
13.488,0.57478,0.58358,0.5,0.5499,0.40517,37.04
13.496,0.56989,0.60704,0.51478,0.55479,0.40025,37.04
13.504,0.565,0.62659,0.53448,0.57045,0.37562,37.04
13.512,0.56012,0.64223,0.55049,0.58023,0.35468,37.04
13.52,0.55425,0.65298,0.56527,0.58513,0.33498,37.04
13.528,0.54936,0.6608,0.58005,0.59491,0.33005,37.04
13.536,0.54448,0.66569,0.55542,0.58023,0.34975,37.04
13.544,0.53959,0.66764,0.52463,0.56458,0.37562,37.04
13.552,0.5347,0.66667,0.49507,0.54012,0.40517,37.04
13.56,0.52884,0.66373,0.47044,0.53033,0.43473,37.04
13.568,0.52297,0.65885,0.44458,0.50978,0.46059,37.04
13.576,0.51613,0.65298,0.41995,0.50978,0.49015,37.04
13.584,0.51026,0.64614,0.39532,0.50489,0.50985,37.04
13.592,0.50342,0.63734,0.38547,0.50489,0.52463,37.04
13.6,0.49756,0.62757,0.38547,0.5,0.52956,37.04
13.608,0.49267,0.61681,0.38547,0.49511,0.52463,37.04
13.616,0.4868,0.60606,0.39039,0.5,0.5197,37.04
13.624,0.48094,0.59433,0.39532,0.5,0.5197,37.04
13.632,0.4741,0.58358,0.39532,0.5,0.51478,37.04
13.64,0.46628,0.57283,0.39532,0.5,0.51478,37.04
13.648,0.45943,0.56207,0.40025,0.50978,0.51478,37.04
13.656,0.45064,0.55327,0.40025,0.51468,0.50493,37.04
13.664,0.44184,0.54448,0.39532,0.55479,0.55542,37.04
13.672,0.43304,0.53666,0.44458,0.62524,0.62438,37.04
13.68,0.42326,0.53079,0.47044,0.64481,0.70936,37.04
13.688,0.41544,0.52493,0.46059,0.53033,0.74507,37.04
13.696,0.40665,0.51906,0.49015,0.32485,0.67488,37.04
13.704,0.39883,0.5132,0.46552,0.22505,0.6601,37.04
13.712,0.39101,0.50831,0.41995,0.29941,0.72537,37.04
13.72,0.38221,0.50244,0.37562,0.4002,0.6601,37.04
13.728,0.37439,0.49756,0.4101,0.48532,0.53941,37.04
13.736,0.36559,0.49267,0.41502,0.51957,0.4803,37.04
13.744,0.35679,0.48876,0.40517,0.53033,0.46552,37.04
13.752,0.34897,0.48289,0.40025,0.52544,0.45443,37.04
13.76,0.34115,0.47801,0.40517,0.53033,0.46059,37.04
13.768,0.33431,0.47312,0.40517,0.52544,0.45443,37.04
13.776,0.32649,0.46823,0.4101,0.53033,0.45443,37.04
13.784,0.31965,0.46237,0.40517,0.52544,0.45443,37.04
13.792,0.31183,0.45552,0.40517,0.51957,0.45443,37.04
13.8,0.30499,0.45064,0.4101,0.51957,0.45443,37.04
13.808,0.29717,0.44477,0.41502,0.52544,0.44951,37.04
13.816,0.29032,0.43988,0.41502,0.51957,0.44458,37.04
13.824,0.28446,0.435,0.41995,0.51957,0.43966,37.04
13.832,0.27761,0.43011,0.41995,0.51468,0.43473,37.04
13.84,0.27175,0.42522,0.41995,0.51468,0.4298,37.04
13.848,0.26686,0.42131,0.42488,0.51468,0.4298,37.04
13.856,0.26197,0.4174,0.42488,0.50978,0.42488,37.04
13.864,0.25904,0.41349,0.4298,0.50978,0.4298,37.04
13.872,0.25513,0.41056,0.4298,0.50978,0.42488,37.04
13.88,0.25122,0.40762,0.41995,0.50978,0.42488,37.04
13.888,0.24829,0.40371,0.42488,0.50489,0.41502,37.04
13.896,0.24536,0.40078,0.42488,0.50489,0.4101,37.04
13.904,0.24242,0.39687,0.42488,0.5,0.40517,37.04
13.912,0.24047,0.39296,0.41995,0.49511,0.40517,37.04
13.92,0.23851,0.39101,0.42488,0.5,0.40025,37.04
13.928,0.23656,0.38905,0.4298,0.49511,0.40025,37.04
13.936,0.23558,0.3871,0.42488,0.49022,0.39039,37.04
13.944,0.23363,0.38514,0.43473,0.49022,0.39039,37.04
13.952,0.23167,0.38319,0.43473,0.49022,0.38547,37.04
13.96,0.22972,0.38025,0.44458,0.49022,0.38054,37.04
13.968,0.22874,0.37928,0.44458,0.49511,0.38054,37.04
13.976,0.22678,0.37732,0.44951,0.5,0.38054,37.04
13.984,0.22483,0.37537,0.46059,0.5,0.38054,37.04
13.992,0.22287,0.37341,0.46059,0.50978,0.38547,37.04
14,0.2219,0.37243,0.47044,0.51468,0.38547,37.04
14.008,0.21994,0.37048,0.47537,0.51957,0.39039,37.04
14.016,0.21799,0.3695,0.4803,0.52544,0.40025,37.04
14.024,0.21603,0.36852,0.48522,0.53033,0.40517,37.04
14.032,0.21505,0.36657,0.48522,0.53523,0.41502,37.04
14.04,0.21212,0.36461,0.49015,0.53523,0.41995,37.04
14.048,0.21017,0.36266,0.49015,0.53523,0.42488,37.04
14.056,0.20821,0.35973,0.49507,0.53523,0.42488,37.04
14.064,0.20528,0.35777,0.49015,0.53523,0.42488,37.04
14.072,0.20332,0.35679,0.49015,0.53523,0.4298,37.04
14.08,0.20137,0.35582,0.49015,0.53523,0.43473,37.04
14.088,0.20039,0.35582,0.49015,0.53523,0.4298,37.04
14.096,0.19941,0.35582,0.49015,0.53523,0.43473,37.04
14.104,0.19844,0.35582,0.49015,0.53523,0.43473,37.04
14.112,0.19648,0.35582,0.48522,0.53523,0.43473,37.04
14.12,0.1955,0.35386,0.48522,0.53033,0.43966,37.04
14.128,0.19453,0.35288,0.4803,0.53033,0.43473,37.04
14.136,0.19355,0.35093,0.4803,0.53033,0.43966,37.04
14.144,0.19355,0.34897,0.48522,0.53033,0.43966,37.04
14.152,0.19257,0.34702,0.4803,0.53523,0.43473,37.04
14.16,0.19257,0.34604,0.47537,0.53523,0.43966,37.04
14.168,0.19257,0.34604,0.47537,0.53523,0.43473,37.04
14.176,0.19257,0.34702,0.4803,0.53523,0.43473,37.04
14.184,0.19257,0.348,0.4803,0.53523,0.43473,37.04
14.192,0.19257,0.35191,0.48522,0.53523,0.4298,37.04
14.2,0.19257,0.35875,0.4803,0.53033,0.43473,37.04
14.208,0.19355,0.37048,0.4803,0.53033,0.43473,37.04
14.216,0.19355,0.3871,0.47044,0.52544,0.43966,37.04
14.224,0.19453,0.40958,0.47044,0.52544,0.43966,37.04
14.232,0.19453,0.43597,0.47044,0.52544,0.44458,37.04
14.24,0.1955,0.46725,0.47044,0.51957,0.44458,37.04
14.248,0.19648,0.49951,0.47044,0.52544,0.44458,37.04
14.256,0.19648,0.53177,0.4803,0.51957,0.4298,37.04
14.264,0.19746,0.56207,0.49015,0.53033,0.42488,37.04
14.272,0.19844,0.58749,0.5,0.53523,0.40517,37.04
14.28,0.19941,0.60802,0.51478,0.54501,0.40025,37.04
14.288,0.19941,0.62757,0.53448,0.55479,0.38054,37.04
14.296,0.20039,0.64418,0.55049,0.56458,0.35468,37.04
14.304,0.20137,0.65885,0.57512,0.57534,0.3399,37.04
14.312,0.20137,0.66862,0.58498,0.58513,0.3202,37.04
14.32,0.20235,0.67644,0.5899,0.58023,0.32512,37.04
14.328,0.20235,0.67937,0.55542,0.56458,0.34975,37.04
14.336,0.20235,0.68035,0.52463,0.54501,0.38054,37.04
14.344,0.20235,0.6784,0.49507,0.52544,0.4101,37.04
14.352,0.20235,0.67449,0.46552,0.50978,0.43966,37.04
14.36,0.20137,0.66862,0.44458,0.50489,0.46552,37.04
14.368,0.20137,0.66178,0.41995,0.49511,0.49507,37.04
14.376,0.20039,0.65396,0.40517,0.49022,0.51478,37.04
14.384,0.19941,0.64809,0.40025,0.48532,0.5197,37.04
14.392,0.19941,0.64223,0.40025,0.49022,0.5197,37.04
14.4,0.19844,0.63245,0.40517,0.49511,0.5197,37.04
14.408,0.19844,0.62072,0.40517,0.49511,0.51478,37.04
14.416,0.19844,0.60802,0.4101,0.49511,0.50985,37.04
14.424,0.19746,0.59531,0.4101,0.50489,0.50985,37.04
14.432,0.19648,0.5826,0.4101,0.50489,0.51478,37.04
14.44,0.19453,0.57087,0.41995,0.50978,0.5,37.04
14.448,0.19355,0.55816,0.41995,0.51957,0.49507,37.04
14.456,0.19062,0.54741,0.43966,0.57534,0.57512,37.04
14.464,0.18866,0.53666,0.4803,0.63503,0.65025,37.04
14.472,0.18671,0.52786,0.49015,0.64971,0.7303,37.04
14.48,0.18377,0.52102,0.48522,0.45988,0.74507,37.04
14.488,0.18182,0.51515,0.50985,0.2593,0.65517,37.04
14.496,0.17986,0.50929,0.47537,0.22994,0.69951,37.04
14.504,0.17791,0.50342,0.41502,0.34442,0.71552,37.04
14.512,0.17595,0.49756,0.40025,0.43542,0.59975,37.04
14.52,0.174,0.49267,0.44458,0.50489,0.49507,37.04
14.528,0.17204,0.4868,0.43473,0.51468,0.45443,37.04
14.536,0.16911,0.48094,0.42488,0.51957,0.44458,37.04
14.544,0.16716,0.47507,0.4298,0.51468,0.43966,37.04
14.552,0.16618,0.46823,0.4298,0.51957,0.4298,37.04
14.56,0.16422,0.46237,0.43473,0.51957,0.4298,37.04
14.568,0.16325,0.4565,0.4298,0.51957,0.4298,37.04
14.576,0.16227,0.45064,0.43473,0.51957,0.4298,37.04
14.584,0.16227,0.44379,0.42488,0.51468,0.43473,37.04
14.592,0.16129,0.43695,0.43966,0.51468,0.4298,37.04
14.6,0.16031,0.43011,0.43473,0.51468,0.4298,37.04
14.608,0.15934,0.42326,0.43966,0.50978,0.42488,37.04
14.616,0.16031,0.41642,0.4298,0.50978,0.42488,37.04
14.624,0.16031,0.40958,0.43473,0.50978,0.42488,37.04
14.632,0.16129,0.40371,0.4298,0.50489,0.4298,37.04
14.64,0.16227,0.39785,0.42488,0.50489,0.4298,37.04
14.648,0.16325,0.39296,0.42488,0.50489,0.42488,37.04
14.656,0.16422,0.38807,0.42488,0.5,0.42488,37.04
14.664,0.1652,0.38319,0.41995,0.5,0.42488,37.04
14.672,0.16716,0.38025,0.42488,0.5,0.42488,37.04
14.68,0.16813,0.37732,0.41995,0.5,0.41995,37.04
14.688,0.16911,0.37439,0.42488,0.5,0.4101,37.04
14.696,0.17009,0.37146,0.41995,0.50489,0.4101,37.04
14.704,0.17204,0.3695,0.41995,0.5,0.40025,37.04
14.712,0.17302,0.36657,0.42488,0.49511,0.39532,37.04
14.72,0.17498,0.36266,0.41995,0.48532,0.39039,37.04
14.728,0.17693,0.35973,0.4298,0.48532,0.38547,37.04
14.736,0.17889,0.35582,0.43473,0.48532,0.38054,37.04
14.744,0.18084,0.35191,0.43966,0.48532,0.38054,37.04
14.752,0.1828,0.348,0.43966,0.48532,0.38054,37.04
14.76,0.18377,0.34409,0.44951,0.49511,0.36946,37.04
14.768,0.18573,0.34213,0.44951,0.49511,0.37562,37.04
14.776,0.18671,0.34115,0.46059,0.50489,0.38054,37.04
14.784,0.18866,0.34115,0.46552,0.50978,0.38054,37.04
14.792,0.18964,0.34018,0.47044,0.50978,0.38547,37.04
14.8,0.19159,0.3392,0.47537,0.51957,0.39039,37.04
14.808,0.19257,0.33822,0.4803,0.52544,0.40025,37.04
14.816,0.19355,0.33724,0.47537,0.53033,0.4101,37.04
14.824,0.19453,0.33529,0.49015,0.53033,0.4101,37.04
14.832,0.1955,0.33333,0.49015,0.53523,0.41995,37.04
14.84,0.19648,0.33236,0.49015,0.52544,0.42488,37.04
14.848,0.19648,0.3304,0.4803,0.53523,0.4298,37.04
14.856,0.19648,0.32942,0.49015,0.53523,0.42488,37.04
14.864,0.19648,0.32845,0.49015,0.53523,0.4298,37.04
14.872,0.19746,0.32747,0.49015,0.53523,0.43473,37.04
14.88,0.19746,0.32747,0.49015,0.53523,0.43966,37.04
14.888,0.19746,0.32649,0.49015,0.52544,0.43966,37.04
14.896,0.19844,0.32454,0.49015,0.53033,0.43966,37.04
14.904,0.19941,0.32356,0.48522,0.52544,0.43966,37.04
14.912,0.20039,0.32258,0.49015,0.53523,0.43966,37.04
14.92,0.20137,0.3216,0.48522,0.53523,0.43966,37.04
14.928,0.20332,0.31965,0.49015,0.53033,0.43966,37.04
14.936,0.2043,0.31769,0.4803,0.51957,0.43966,37.04
14.944,0.20528,0.31574,0.4803,0.52544,0.43473,37.04
14.952,0.20626,0.31378,0.4803,0.52544,0.43473,37.04
14.96,0.20723,0.31281,0.48522,0.52544,0.4298,37.04
14.968,0.20821,0.31281,0.4803,0.53033,0.43966,37.04
14.976,0.20919,0.31476,0.4803,0.52544,0.43966,37.04
14.984,0.21017,0.3216,0.4803,0.52544,0.43966,37.04
14.992,0.21114,0.33236,0.48522,0.53033,0.43473,37.04
15,0.2131,0.348,0.4803,0.53033,0.43966,37.04
15.008,0.21408,0.37048,0.47537,0.52544,0.43966,37.04
15.016,0.21603,0.39785,0.47044,0.53033,0.44458,37.04
15.024,0.21799,0.43011,0.47044,0.53033,0.43966,37.04
15.032,0.21896,0.4653,0.47044,0.53033,0.44458,37.04
15.04,0.22092,0.50147,0.47044,0.52544,0.44458,37.04
15.048,0.22287,0.53861,0.47537,0.53033,0.43966,37.04
15.056,0.22483,0.57283,0.49015,0.53033,0.42488,37.04
15.064,0.22678,0.60411,0.5,0.53523,0.4101,37.04
15.072,0.22874,0.62854,0.5197,0.54012,0.40025,37.04
15.08,0.22972,0.64614,0.53941,0.55479,0.38054,37.04
15.088,0.23069,0.66373,0.56034,0.56458,0.35468,37.04
15.096,0.23167,0.67742,0.58005,0.57534,0.33005,37.04
15.104,0.23265,0.68719,0.60468,0.58023,0.31034,37.04
15.112,0.23363,0.69404,0.59483,0.58023,0.3202,37.04
15.12,0.2346,0.69599,0.56527,0.57045,0.34483,37.04
15.128,0.23558,0.69404,0.52956,0.54501,0.37562,37.04
15.136,0.23656,0.68915,0.49507,0.51957,0.4101,37.04
15.144,0.23656,0.68328,0.47044,0.50978,0.44458,37.04
15.152,0.23754,0.67546,0.44458,0.49511,0.46552,37.04
15.16,0.23754,0.66764,0.41995,0.49511,0.49015,37.04
15.168,0.23851,0.65787,0.40517,0.5,0.50985,37.04
15.176,0.23851,0.64809,0.40025,0.49511,0.5197,37.04
15.184,0.23949,0.63734,0.40517,0.5,0.5197,37.04
15.192,0.23851,0.62561,0.4101,0.49511,0.51478,37.04
15.2,0.23851,0.61388,0.40517,0.49022,0.51478,37.04
15.208,0.23851,0.60117,0.4101,0.49511,0.50985,37.04
15.216,0.23754,0.58944,0.40517,0.5,0.50985,37.04
15.224,0.23754,0.57771,0.41502,0.49511,0.5,37.04
15.232,0.23656,0.56598,0.41995,0.50978,0.49507,37.04
15.24,0.23656,0.55621,0.41995,0.51957,0.50493,37.04
15.248,0.23558,0.54643,0.43966,0.59002,0.5899,37.04
15.256,0.23558,0.53666,0.4803,0.64481,0.66502,37.04
15.264,0.2346,0.52786,0.48522,0.65558,0.75,37.04
15.272,0.23363,0.52004,0.50493,0.46477,0.72044,37.04
15.28,0.23265,0.5132,0.49015,0.26517,0.66502,37.04
15.288,0.23167,0.50733,0.46552,0.24951,0.71552,37.04
15.296,0.23069,0.50147,0.40025,0.36008,0.72044,37.04
15.304,0.22874,0.49462,0.38547,0.4501,0.58498,37.04
15.312,0.22776,0.48778,0.4298,0.50489,0.49015,37.04
15.32,0.22678,0.48094,0.42488,0.51468,0.45443,37.04
15.328,0.22581,0.4741,0.41995,0.51957,0.44458,37.04
15.336,0.22483,0.46823,0.41995,0.51468,0.43966,37.04
15.344,0.22483,0.46139,0.41995,0.51957,0.43966,37.04
15.352,0.22385,0.45455,0.41995,0.51957,0.43473,37.04
15.36,0.22385,0.44868,0.41995,0.51957,0.4298,37.04
15.368,0.22385,0.44282,0.41995,0.51468,0.43473,37.04
15.376,0.22385,0.43793,0.41502,0.51468,0.43966,37.04
15.384,0.22385,0.43109,0.41995,0.51468,0.44458,37.04
15.392,0.22483,0.42424,0.41995,0.51468,0.4298,37.04
15.4,0.22581,0.4174,0.41995,0.50978,0.4298,37.04
15.408,0.22678,0.40958,0.41995,0.50978,0.42488,37.04
15.416,0.22776,0.40274,0.41995,0.50978,0.42488,37.04
15.424,0.22972,0.39589,0.42488,0.50978,0.42488,37.04
15.432,0.23069,0.39003,0.42488,0.50978,0.41995,37.04
15.44,0.23265,0.38514,0.4298,0.50978,0.42488,37.04
15.448,0.2346,0.38123,0.41995,0.50489,0.42488,37.04
15.456,0.23656,0.37732,0.42488,0.50489,0.41502,37.04
15.464,0.23851,0.37439,0.42488,0.5,0.4101,37.04
15.472,0.24047,0.37243,0.41995,0.5,0.40517,37.04
15.48,0.2434,0.3695,0.41995,0.5,0.40517,37.04
15.488,0.24536,0.36657,0.41995,0.49511,0.40025,37.04
15.496,0.24829,0.36461,0.41995,0.49511,0.40025,37.04
15.504,0.2522,0.36168,0.41995,0.49511,0.39039,37.04
15.512,0.25513,0.35973,0.4298,0.49022,0.38547,37.04
15.52,0.25806,0.35777,0.42488,0.48532,0.38054,37.04
15.528,0.26002,0.35582,0.42488,0.49022,0.38054,37.04
15.536,0.26295,0.35386,0.42488,0.48532,0.38054,37.04
15.544,0.26588,0.35093,0.4298,0.49022,0.38054,37.04
15.552,0.26882,0.34897,0.4298,0.49511,0.38054,37.04
15.56,0.27175,0.34702,0.43966,0.5,0.38054,37.04
15.568,0.2737,0.34604,0.44458,0.50978,0.38054,37.04
15.576,0.27664,0.34506,0.44951,0.50978,0.38547,37.04
15.584,0.27859,0.34506,0.44951,0.51957,0.39532,37.04
15.592,0.28152,0.34409,0.45443,0.52544,0.40025,37.04
15.6,0.28348,0.34311,0.46059,0.53523,0.40517,37.04
15.608,0.28641,0.34213,0.46059,0.53523,0.41502,37.04
15.616,0.28837,0.34018,0.46552,0.53523,0.42488,37.04
15.624,0.2913,0.3392,0.46552,0.53523,0.42488,37.04
15.632,0.29326,0.33724,0.47044,0.53523,0.4298,37.04
15.64,0.29619,0.33529,0.47537,0.53523,0.4298,37.04
15.648,0.29814,0.33333,0.47044,0.53523,0.43473,37.04
15.656,0.30108,0.33138,0.47044,0.53523,0.43966,37.04
15.664,0.30303,0.3304,0.47044,0.53523,0.43966,37.04
15.672,0.30596,0.32942,0.47044,0.53033,0.43966,37.04
15.68,0.30792,0.32747,0.47044,0.53033,0.44458,37.04
15.688,0.30987,0.32551,0.46059,0.53033,0.44458,37.04
15.696,0.31281,0.32454,0.45443,0.53523,0.44458,37.04
15.704,0.31574,0.32454,0.46552,0.53523,0.44458,37.04
15.712,0.31867,0.32454,0.46552,0.53523,0.43966,37.04
15.72,0.3216,0.32356,0.46059,0.53523,0.44458,37.04
15.728,0.32551,0.32356,0.46552,0.53523,0.43966,37.04
15.736,0.32942,0.32356,0.45443,0.53523,0.44458,37.04
15.744,0.33333,0.32356,0.46059,0.53523,0.43966,37.04
15.752,0.33822,0.32356,0.44951,0.53523,0.44951,37.04
15.76,0.34311,0.32454,0.45443,0.53523,0.44458,37.04
15.768,0.34702,0.32747,0.45443,0.53523,0.44458,37.04
15.776,0.35093,0.33236,0.44951,0.53523,0.44951,37.04
15.784,0.35484,0.34115,0.45443,0.53523,0.44458,37.04
15.792,0.35875,0.35582,0.45443,0.53523,0.43966,37.04
15.8,0.36364,0.37634,0.45443,0.53523,0.44458,37.04
15.808,0.36852,0.40371,0.46059,0.53523,0.43966,37.04
15.816,0.37341,0.43597,0.45443,0.53523,0.44458,37.04
15.824,0.3783,0.47214,0.46059,0.52544,0.44458,37.04
15.832,0.38319,0.51026,0.46552,0.53033,0.43473,37.04
15.84,0.38807,0.54839,0.47044,0.53523,0.4298,37.04
15.848,0.39296,0.58456,0.4803,0.53523,0.42488,37.04
15.856,0.39883,0.61681,0.49015,0.54012,0.4101,37.04
15.864,0.40371,0.64223,0.49507,0.55479,0.40025,37.04
15.872,0.40958,0.6608,0.5197,0.55969,0.38054,37.04
15.88,0.41447,0.67742,0.53941,0.57534,0.35961,37.04
15.888,0.42033,0.6911,0.56527,0.58023,0.33498,37.04
15.896,0.42717,0.70088,0.58005,0.59491,0.32512,37.04
15.904,0.43304,0.70772,0.56034,0.58023,0.3399,37.04
15.912,0.43891,0.71065,0.52463,0.57045,0.36946,37.04
15.92,0.44575,0.70968,0.49015,0.5499,0.39532,37.04
15.928,0.45064,0.70577,0.46059,0.53033,0.43473,37.04
15.936,0.45552,0.6999,0.4298,0.51468,0.46059,37.04
15.944,0.46041,0.6911,0.4101,0.50978,0.48522,37.04
15.952,0.4653,0.68035,0.38547,0.50489,0.51478,37.04
15.96,0.46921,0.67058,0.37562,0.50489,0.52463,37.04
15.968,0.4741,0.65982,0.37562,0.50489,0.52956,37.04
15.976,0.47801,0.64907,0.38054,0.50978,0.52956,37.04
15.984,0.48289,0.63832,0.38547,0.50978,0.5197,37.04
15.992,0.48583,0.62659,0.39039,0.50489,0.5197,37.04
16,0.48974,0.61388,0.38547,0.50978,0.5197,37.04
16.008,0.49365,0.60215,0.39532,0.50489,0.51478,37.04
16.016,0.49658,0.58944,0.40025,0.50489,0.50985,37.04
16.024,0.49951,0.57771,0.40025,0.50978,0.5,37.04
16.032,0.50147,0.56598,0.39532,0.53033,0.52463,37.04
16.04,0.50342,0.55621,0.4298,0.5998,0.59975,37.04
16.048,0.50538,0.54643,0.47044,0.64971,0.66995,37.04
16.056,0.50733,0.53666,0.47044,0.59491,0.74507,37.04
16.064,0.50929,0.52884,0.50493,0.42955,0.69458,37.04
16.072,0.51026,0.52102,0.48522,0.2544,0.66995,37.04
16.08,0.51222,0.51515,0.44458,0.24951,0.72044,37.04
16.088,0.51417,0.50929,0.36946,0.36008,0.69458,37.04
16.096,0.51515,0.50342,0.35961,0.4501,0.58005,37.04
16.104,0.51613,0.49756,0.39532,0.5,0.5,37.04
16.112,0.51711,0.49169,0.40025,0.51957,0.46552,37.04
16.12,0.51808,0.48583,0.39532,0.51957,0.45443,37.04
16.128,0.51906,0.47898,0.39039,0.51957,0.45443,37.04
16.136,0.52004,0.47214,0.39532,0.51957,0.44951,37.04
16.144,0.52199,0.4653,0.40025,0.51957,0.44951,37.04
16.152,0.52297,0.45846,0.40025,0.51957,0.44458,37.04
16.16,0.52395,0.45161,0.40025,0.51957,0.44458,37.04
16.168,0.5259,0.44477,0.40025,0.51957,0.44458,37.04
16.176,0.52786,0.43891,0.40517,0.51957,0.44458,37.04
16.184,0.52981,0.43206,0.40517,0.52544,0.44458,37.04
16.192,0.53177,0.4262,0.4101,0.51468,0.43966,37.04
16.2,0.5347,0.42033,0.40517,0.51468,0.43473,37.04
16.208,0.53763,0.41447,0.41502,0.50978,0.43473,37.04
16.216,0.54057,0.40958,0.4101,0.50978,0.43473,37.04
16.224,0.54448,0.40469,0.4101,0.50978,0.43473,37.04
16.232,0.54839,0.3998,0.4101,0.50978,0.43966,37.04
16.24,0.55327,0.39589,0.40025,0.50978,0.43473,37.04
16.248,0.55621,0.39101,0.40025,0.50978,0.43473,37.04
16.256,0.56012,0.3871,0.40517,0.50489,0.42488,37.04
16.264,0.56403,0.38319,0.4101,0.50489,0.42488,37.04
16.272,0.56696,0.38025,0.40517,0.49511,0.41502,37.04
16.28,0.57087,0.37634,0.41502,0.49511,0.4101,37.04
16.288,0.57478,0.37341,0.40517,0.49511,0.40517,37.04
16.296,0.57771,0.37048,0.41502,0.49022,0.40025,37.04
16.304,0.58162,0.36755,0.41995,0.49022,0.39039,37.04
16.312,0.58456,0.36461,0.41995,0.49511,0.38547,37.04
16.32,0.58847,0.36266,0.41502,0.49022,0.38547,37.04
16.328,0.5914,0.35973,0.41995,0.48532,0.38054,37.04
16.336,0.59433,0.35679,0.42488,0.49511,0.38054,37.04
16.344,0.59726,0.35484,0.43473,0.5,0.38054,37.04
16.352,0.6002,0.35288,0.43966,0.5,0.38054,37.04
16.36,0.60411,0.35093,0.44458,0.50978,0.38054,37.04
16.368,0.60704,0.34995,0.43966,0.50978,0.39039,37.04
16.376,0.61095,0.34897,0.44458,0.51468,0.40025,37.04
16.384,0.61388,0.34702,0.44951,0.52544,0.4101,37.04
16.392,0.61779,0.34409,0.46059,0.53033,0.41502,37.04
16.4,0.6217,0.34115,0.46552,0.53523,0.41995,37.04
16.408,0.62366,0.3392,0.46552,0.53523,0.42488,37.04
16.416,0.62659,0.33724,0.46552,0.53523,0.4298,37.04
16.424,0.62854,0.33627,0.46552,0.53523,0.43473,37.04
16.432,0.6305,0.32551,0.46552,0.54012,0.43966,37.04
16.44,0.63245,0.3089,0.46059,0.53523,0.44458,37.04
16.448,0.63343,0.3001,0.46059,0.53523,0.44458,37.04
16.456,0.63539,0.29423,0.46059,0.53523,0.44458,37.04
16.464,0.63734,0.29032,0.45443,0.53523,0.44951,37.04
16.472,0.63832,0.28837,0.44951,0.53523,0.44951,37.04
16.48,0.6393,0.28543,0.44458,0.53523,0.44951,37.04
16.488,0.64027,0.2825,0.44458,0.53523,0.44951,37.04
16.496,0.64125,0.27957,0.44951,0.53523,0.44951,37.04
16.504,0.64223,0.27859,0.44951,0.53523,0.44951,37.04
16.512,0.64321,0.27761,0.44458,0.53523,0.44951,37.04
16.52,0.64418,0.27664,0.44951,0.53523,0.44951,37.04
16.528,0.64516,0.27664,0.45443,0.53523,0.44951,37.04
16.536,0.64614,0.27664,0.44951,0.53523,0.44951,37.04
16.544,0.64712,0.27664,0.44951,0.53523,0.44951,37.04
16.552,0.64907,0.27664,0.44951,0.53523,0.44951,37.04
16.56,0.65005,0.27859,0.44951,0.53523,0.44951,37.04
16.568,0.65103,0.28348,0.44458,0.53033,0.44951,37.04
16.576,0.652,0.2913,0.45443,0.53523,0.44458,37.04
16.584,0.652,0.30694,0.46059,0.53523,0.44458,37.04
16.592,0.65298,0.32942,0.45443,0.53523,0.44458,37.04
16.6,0.65396,0.35875,0.44951,0.53523,0.44951,37.04
16.608,0.65494,0.39492,0.45443,0.53523,0.44951,37.04
16.616,0.65689,0.435,0.44951,0.53523,0.44951,37.04
16.624,0.65885,0.47703,0.46059,0.53523,0.44458,37.04
16.632,0.65982,0.52004,0.46059,0.53523,0.43966,37.04
16.64,0.66178,0.56109,0.47044,0.54012,0.42488,37.04
16.648,0.66178,0.59824,0.48522,0.54501,0.41995,37.04
16.656,0.66276,0.6305,0.5,0.5499,0.40517,37.04
16.664,0.66373,0.65494,0.5197,0.55969,0.38547,37.04
16.672,0.66471,0.67155,0.53941,0.57534,0.35961,37.04
16.68,0.66569,0.68719,0.56034,0.58023,0.3399,37.04
16.688,0.66764,0.69795,0.57512,0.59002,0.33005,37.04
16.696,0.66862,0.70577,0.55542,0.58023,0.34975,37.04
16.704,0.6696,0.7087,0.52463,0.55479,0.37562,37.04
16.712,0.67058,0.7087,0.49507,0.54012,0.40517,37.04
16.72,0.67253,0.70674,0.47044,0.52544,0.43473,37.04
16.728,0.67253,0.70088,0.44951,0.50978,0.45443,37.04
16.736,0.67351,0.69404,0.41995,0.50489,0.48522,37.04
16.744,0.67449,0.68426,0.40025,0.5,0.50985,37.04
16.752,0.67449,0.67253,0.39532,0.49511,0.5197,37.04
16.76,0.67449,0.65982,0.39532,0.49511,0.5197,37.04
16.768,0.67449,0.64614,0.39039,0.49511,0.5197,37.04
16.776,0.67449,0.63245,0.39532,0.5,0.5197,37.04
16.784,0.67449,0.61877,0.39532,0.5,0.5197,37.04
16.792,0.67351,0.60508,0.40025,0.5,0.50493,37.04
16.8,0.67253,0.5914,0.40517,0.50489,0.50493,37.04
16.808,0.67155,0.57869,0.4101,0.50978,0.50493,37.04
16.816,0.67058,0.56696,0.41502,0.50978,0.49507,37.04
16.824,0.66862,0.55621,0.40517,0.54501,0.53448,37.04
16.832,0.66667,0.54545,0.44458,0.61546,0.61453,37.04
16.84,0.66373,0.53568,0.4803,0.64971,0.68966,37.04
16.848,0.66178,0.52786,0.47537,0.55479,0.73522,37.04
16.856,0.65885,0.52004,0.50985,0.36008,0.66995,37.04
16.864,0.65591,0.51222,0.47537,0.22994,0.6601,37.04
16.872,0.652,0.50538,0.4298,0.28474,0.72044,37.04
16.88,0.64907,0.49853,0.38054,0.37965,0.66995,37.04
16.888,0.64516,0.49267,0.4101,0.46477,0.54557,37.04
16.896,0.64125,0.48583,0.41995,0.50978,0.4803,37.04
16.904,0.63832,0.47996,0.41502,0.51468,0.44951,37.04
16.912,0.63441,0.47312,0.40517,0.51468,0.44951,37.04
16.92,0.63148,0.46628,0.41502,0.51468,0.44951,37.04
16.928,0.62757,0.45846,0.41502,0.51468,0.44458,37.04
16.936,0.62463,0.45259,0.41502,0.50978,0.44458,37.04
16.944,0.62072,0.44575,0.4101,0.50978,0.44951,37.04
16.952,0.61779,0.43891,0.4101,0.50978,0.44458,37.04
16.96,0.61486,0.43206,0.4101,0.50978,0.44458,37.04
16.968,0.61193,0.42522,0.4101,0.50978,0.43966,37.04
16.976,0.60802,0.42033,0.41502,0.50978,0.43966,37.04
16.984,0.60606,0.41544,0.41995,0.50978,0.43473,37.04
16.992,0.60313,0.40958,0.41995,0.50978,0.4298,37.04
17,0.60117,0.40371,0.41995,0.50978,0.4298,37.04
17.008,0.59824,0.39883,0.41995,0.50978,0.43473,37.04
17.016,0.59531,0.39394,0.41995,0.50978,0.4298,37.04
17.024,0.59238,0.38807,0.41995,0.50489,0.42488,37.04
17.032,0.58847,0.38221,0.41995,0.50489,0.42488,37.04
17.04,0.58553,0.37634,0.41995,0.50978,0.42488,37.04
17.048,0.5826,0.37243,0.41995,0.50489,0.42488,37.04
17.056,0.57967,0.36755,0.41995,0.5,0.41502,37.04
17.064,0.57674,0.36364,0.41995,0.5,0.41502,37.04
17.072,0.57478,0.3607,0.41995,0.49511,0.4101,37.04
17.08,0.57185,0.35777,0.41502,0.5,0.4101,37.04
17.088,0.56794,0.35386,0.41995,0.49511,0.39532,37.04
17.096,0.565,0.35093,0.41995,0.49022,0.39532,37.04
17.104,0.56109,0.348,0.41995,0.49022,0.38547,37.04
17.112,0.55718,0.34506,0.42488,0.49022,0.38054,37.04
17.12,0.55425,0.34213,0.4298,0.49022,0.38054,37.04
17.128,0.55034,0.3392,0.43473,0.49022,0.38054,37.04
17.136,0.54643,0.33627,0.43966,0.49511,0.38054,37.04
17.144,0.54252,0.33333,0.44458,0.50489,0.38054,37.04
17.152,0.53763,0.32942,0.44458,0.50489,0.38547,37.04
17.16,0.53275,0.32649,0.45443,0.50978,0.39039,37.04
17.168,0.52688,0.32356,0.46059,0.51468,0.40025,37.04
17.176,0.52102,0.3216,0.46552,0.52544,0.40517,37.04
17.184,0.51417,0.31965,0.46552,0.52544,0.41502,37.04
17.192,0.50733,0.31672,0.47044,0.52544,0.41995,37.04
17.2,0.49951,0.31476,0.47044,0.53033,0.41995,37.04
17.208,0.49267,0.31281,0.47537,0.53033,0.42488,37.04
17.216,0.48583,0.31183,0.47044,0.53523,0.43473,37.04
17.224,0.47898,0.30987,0.47044,0.53523,0.43966,37.04
17.232,0.47214,0.3089,0.47044,0.53523,0.44458,37.04
17.24,0.4653,0.30792,0.47537,0.53523,0.43966,37.04
17.248,0.45748,0.30596,0.47537,0.53523,0.43966,37.04
17.256,0.44966,0.30499,0.47537,0.53033,0.44458,37.04
17.264,0.44184,0.30401,0.47044,0.53523,0.44951,37.04
17.272,0.435,0.30303,0.47044,0.53523,0.44458,37.04
17.28,0.42815,0.30205,0.47044,0.53523,0.44951,37.04
17.288,0.42229,0.3001,0.47044,0.53523,0.44458,37.04
17.296,0.41642,0.29814,0.46552,0.53523,0.44951,37.04
17.304,0.40958,0.29619,0.47044,0.53523,0.44458,37.04
17.312,0.40371,0.29423,0.47044,0.53523,0.44951,37.04
17.32,0.39687,0.29326,0.47044,0.53523,0.44458,37.04
17.328,0.39101,0.29228,0.47044,0.53033,0.44458,37.04
17.336,0.38416,0.29228,0.47044,0.53033,0.44458,37.04
17.344,0.3783,0.29423,0.47044,0.53033,0.44458,37.04
17.352,0.37243,0.29814,0.47044,0.53033,0.44458,37.04
17.36,0.36657,0.30596,0.47044,0.52544,0.43966,37.04
17.368,0.3607,0.31672,0.46552,0.53033,0.43966,37.04
17.376,0.35582,0.33431,0.47044,0.53033,0.43966,37.04
17.384,0.35093,0.35875,0.47044,0.52544,0.44458,37.04
17.392,0.34604,0.39101,0.47044,0.52544,0.43966,37.04
17.4,0.34213,0.42913,0.47044,0.52544,0.44458,37.04
17.408,0.33724,0.47019,0.47044,0.53033,0.43966,37.04
17.416,0.33236,0.51417,0.47044,0.53033,0.43473,37.04
17.424,0.32747,0.55718,0.47044,0.53033,0.4298,37.04
17.432,0.32454,0.59824,0.4803,0.53523,0.41995,37.04
17.44,0.32063,0.63539,0.5,0.54501,0.4101,37.04
17.448,0.31769,0.66667,0.51478,0.55479,0.39532,37.04
17.456,0.31476,0.69208,0.53448,0.55969,0.36946,37.04
17.464,0.31085,0.7087,0.55542,0.57534,0.35468,37.04
17.472,0.30792,0.71848,0.57512,0.58023,0.33005,37.04
17.48,0.30401,0.7263,0.58498,0.58513,0.32512,37.04
17.488,0.3001,0.73021,0.56034,0.58023,0.34483,37.04
17.496,0.29717,0.73021,0.52956,0.55969,0.37562,37.04
17.504,0.29326,0.72727,0.49507,0.53523,0.40025,37.04
17.512,0.29032,0.72336,0.46552,0.51957,0.43473,37.04
17.52,0.28641,0.7175,0.43966,0.50489,0.46059,37.04
17.528,0.2825,0.7087,0.41502,0.5,0.49015,37.04
17.536,0.27957,0.69795,0.40025,0.49511,0.51478,37.04
17.544,0.27566,0.68622,0.39039,0.5,0.52956,37.04
17.552,0.27175,0.67155,0.38547,0.5,0.52956,37.04
17.56,0.26784,0.65787,0.39039,0.50489,0.52463,37.04
17.568,0.26393,0.64321,0.38547,0.5,0.5197,37.04
17.576,0.25904,0.62854,0.39532,0.5,0.5197,37.04
17.584,0.25513,0.61388,0.39039,0.5,0.5197,37.04
17.592,0.25122,0.59922,0.39532,0.5,0.5197,37.04
17.6,0.24731,0.58553,0.39532,0.50489,0.50493,37.04
17.608,0.24438,0.5738,0.40517,0.51468,0.49507,37.04
17.616,0.24047,0.56305,0.41502,0.5499,0.53941,37.04
17.624,0.23656,0.55327,0.44458,0.62035,0.62438,37.04
17.632,0.23265,0.54448,0.47044,0.64481,0.70443,37.04
17.64,0.22776,0.53568,0.46552,0.54012,0.75,37.04
17.648,0.22385,0.52786,0.49015,0.34442,0.68473,37.04
17.656,0.21896,0.52102,0.47044,0.22994,0.66502,37.04
17.664,0.21408,0.5132,0.4298,0.30528,0.72044,37.04
17.672,0.20821,0.50733,0.38054,0.38943,0.66502,37.04
17.68,0.20332,0.49951,0.4101,0.48043,0.53941,37.04
17.688,0.19941,0.49267,0.41995,0.51468,0.4803,37.04
17.696,0.1955,0.48387,0.4101,0.51957,0.46059,37.04
17.704,0.19159,0.47605,0.40517,0.51468,0.44951,37.04
17.712,0.18768,0.46823,0.4101,0.51957,0.44951,37.04
17.72,0.18475,0.45943,0.41502,0.52544,0.44458,37.04
17.728,0.1828,0.45161,0.41995,0.51957,0.43966,37.04
17.736,0.17986,0.44379,0.41502,0.51957,0.44458,37.04
17.744,0.17693,0.43597,0.41995,0.51957,0.43966,37.04
17.752,0.17498,0.42913,0.41502,0.51957,0.44458,37.04
17.76,0.17302,0.42229,0.4298,0.51957,0.4298,37.04
17.768,0.17107,0.41642,0.4298,0.51957,0.43473,37.04
17.776,0.16911,0.41056,0.4298,0.51468,0.43473,37.04
17.784,0.16813,0.40469,0.4298,0.51468,0.43473,37.04
17.792,0.16618,0.39785,0.4298,0.51468,0.43473,37.04
17.8,0.1652,0.39198,0.42488,0.51468,0.43473,37.04
17.808,0.16325,0.38514,0.42488,0.51468,0.4298,37.04
17.816,0.16325,0.37928,0.41995,0.51468,0.4298,37.04
17.824,0.16227,0.37341,0.42488,0.50978,0.42488,37.04
17.832,0.16227,0.36657,0.41995,0.50978,0.4298,37.04
17.84,0.16129,0.35973,0.41995,0.50489,0.42488,37.04
17.848,0.16129,0.35288,0.41995,0.50489,0.41995,37.04
17.856,0.16227,0.348,0.41995,0.50489,0.4101,37.04
17.864,0.16227,0.34311,0.41995,0.5,0.40517,37.04
17.872,0.16325,0.34018,0.41995,0.49511,0.40025,37.04
17.88,0.16422,0.33724,0.41995,0.49511,0.40025,37.04
17.888,0.1652,0.33529,0.42488,0.49022,0.39039,37.04
17.896,0.16716,0.33333,0.41995,0.49022,0.38547,37.04
17.904,0.16911,0.3304,0.42488,0.48532,0.38547,37.04
17.912,0.17009,0.32747,0.4298,0.49022,0.38054,37.04
17.92,0.17204,0.32356,0.43966,0.49511,0.37562,37.04
17.928,0.17302,0.31965,0.43966,0.5,0.38054,37.04
17.936,0.17498,0.31672,0.44458,0.50489,0.37562,37.04
17.944,0.17595,0.31281,0.45443,0.50489,0.38054,37.04
17.952,0.17791,0.31085,0.46059,0.50978,0.38547,37.04
17.96,0.17889,0.30987,0.47044,0.51468,0.39039,37.04
17.968,0.17986,0.3089,0.47044,0.51957,0.40025,37.04
17.976,0.18084,0.30792,0.47044,0.52544,0.4101,37.04
17.984,0.18182,0.30694,0.47044,0.53033,0.41995,37.04
17.992,0.18182,0.30596,0.47044,0.53033,0.41995,37.04
18,0.18182,0.30303,0.47044,0.52544,0.41995,37.04
18.008,0.1828,0.30108,0.47537,0.53033,0.42488,37.04
18.016,0.1828,0.29912,0.47044,0.53033,0.4298,37.04
18.024,0.18377,0.29814,0.47537,0.53033,0.4298,37.04
18.032,0.18377,0.29717,0.47537,0.52544,0.43473,37.04
18.04,0.18377,0.29717,0.47537,0.51957,0.43966,37.04
18.048,0.18377,0.29619,0.47537,0.51957,0.43966,37.04
18.056,0.18377,0.29423,0.47537,0.51957,0.43473,37.04
18.064,0.18377,0.29326,0.47044,0.51957,0.43966,37.04
18.072,0.18377,0.29228,0.47537,0.52544,0.43473,37.04
18.08,0.18377,0.28935,0.47044,0.52544,0.44458,37.04
18.088,0.18475,0.28739,0.47537,0.51957,0.43966,37.04
18.096,0.18475,0.28446,0.47537,0.53033,0.43966,37.04
18.104,0.18573,0.28152,0.47537,0.53033,0.43473,37.04
18.112,0.18671,0.27957,0.4803,0.53033,0.43473,37.04
18.12,0.18866,0.27859,0.47044,0.53033,0.43966,37.04
18.128,0.18964,0.27761,0.47044,0.53033,0.43473,37.04
18.136,0.19062,0.28055,0.47044,0.53033,0.43473,37.04
18.144,0.19257,0.28543,0.47537,0.53033,0.43966,37.04
18.152,0.19355,0.29619,0.47044,0.52544,0.43966,37.04
18.16,0.19453,0.30987,0.47044,0.53033,0.43966,37.04
18.168,0.1955,0.32845,0.47044,0.53033,0.43966,37.04
18.176,0.19746,0.35484,0.47537,0.53033,0.43966,37.04
18.184,0.19844,0.38905,0.47044,0.52544,0.44458,37.04
18.192,0.19941,0.42815,0.47044,0.52544,0.43966,37.04
18.2,0.20039,0.47214,0.47044,0.51957,0.44458,37.04
18.208,0.20235,0.51613,0.47044,0.52544,0.43473,37.04
18.216,0.2043,0.55914,0.47537,0.52544,0.42488,37.04
18.224,0.20528,0.59922,0.49015,0.53523,0.41502,37.04
18.232,0.20723,0.63539,0.50985,0.54012,0.40025,37.04
18.24,0.20919,0.66569,0.5197,0.5499,0.38547,37.04
18.248,0.21017,0.69013,0.53941,0.55969,0.36453,37.04
18.256,0.21114,0.70968,0.56034,0.57045,0.34483,37.04
18.264,0.21212,0.72141,0.58498,0.58023,0.3202,37.04
18.272,0.21408,0.72727,0.59483,0.58513,0.31034,37.04
18.28,0.21505,0.73118,0.56527,0.57534,0.3399,37.04
18.288,0.21603,0.73118,0.53448,0.5499,0.36946,37.04
18.296,0.21603,0.72825,0.50493,0.53033,0.40025,37.04
18.304,0.21701,0.72336,0.47537,0.50978,0.4298,37.04
18.312,0.21799,0.71652,0.44458,0.5,0.46059,37.04
18.32,0.21799,0.70674,0.42488,0.49022,0.4803,37.04
18.328,0.21799,0.69599,0.40517,0.48532,0.50985,37.04
18.336,0.21896,0.68426,0.39532,0.48532,0.52463,37.04
18.344,0.21799,0.67058,0.39532,0.49022,0.52463,37.04
18.352,0.21799,0.65494,0.39039,0.49022,0.52463,37.04
18.36,0.21701,0.64027,0.39532,0.49022,0.52463,37.04
18.368,0.21701,0.62561,0.39532,0.49022,0.5197,37.04
18.376,0.21603,0.60997,0.40025,0.49022,0.51478,37.04
18.384,0.21505,0.59335,0.39532,0.49022,0.5197,37.04
18.392,0.2131,0.57869,0.41502,0.49511,0.50493,37.04
18.4,0.21212,0.565,0.41995,0.50489,0.49015,37.04
18.408,0.21114,0.55327,0.41502,0.54501,0.53941,37.04
18.416,0.21017,0.5435,0.45443,0.61546,0.63054,37.04
18.424,0.20821,0.5347,0.4803,0.64481,0.70936,37.04
18.432,0.20626,0.52688,0.47044,0.53033,0.75,37.04
18.44,0.20332,0.51906,0.5,0.32975,0.67488,37.04
18.448,0.20137,0.51222,0.47537,0.23483,0.6601,37.04
18.456,0.19844,0.5044,0.4298,0.31018,0.71552,37.04
18.464,0.19648,0.49756,0.38547,0.4002,0.65517,37.04
18.472,0.19355,0.49169,0.41995,0.47456,0.53448,37.04
18.48,0.19062,0.48289,0.4298,0.50978,0.47044,37.04
18.488,0.18866,0.47214,0.42488,0.50978,0.44951,37.04
18.496,0.18573,0.46139,0.41995,0.50978,0.44458,37.04
18.504,0.18377,0.45259,0.41995,0.50978,0.43473,37.04
18.512,0.18182,0.44282,0.41995,0.50978,0.43966,37.04
18.52,0.17986,0.43402,0.41995,0.50978,0.43473,37.04
18.528,0.17889,0.42424,0.4298,0.50978,0.43473,37.04
18.536,0.17791,0.41447,0.43473,0.50978,0.42488,37.04
18.544,0.17791,0.40567,0.43473,0.50978,0.4298,37.04
18.552,0.17693,0.39687,0.43473,0.50978,0.4298,37.04
18.56,0.17595,0.39003,0.43966,0.50489,0.42488,37.04
18.568,0.17498,0.38416,0.43966,0.50489,0.42488,37.04
18.576,0.174,0.37732,0.44458,0.5,0.42488,37.04
18.584,0.174,0.37048,0.43473,0.49511,0.42488,37.04
18.592,0.174,0.36461,0.43473,0.49511,0.42488,37.04
18.6,0.174,0.35875,0.42488,0.49511,0.42488,37.04
18.608,0.174,0.35288,0.4298,0.49511,0.42488,37.04
18.616,0.17498,0.34702,0.4298,0.49511,0.42488,37.04
18.624,0.17595,0.34115,0.42488,0.49511,0.41995,37.04
18.632,0.17693,0.33627,0.42488,0.49511,0.41995,37.04
18.64,0.17791,0.3304,0.42488,0.49511,0.4101,37.04
18.648,0.17986,0.32551,0.4298,0.49022,0.40025,37.04
18.656,0.18084,0.31965,0.42488,0.48532,0.40025,37.04
18.664,0.18182,0.31672,0.4298,0.48532,0.39532,37.04
18.672,0.18377,0.31378,0.42488,0.48532,0.38054,37.04
