Time [s], RESP, PLETH, II, MCL, AVR
0,-0.069552,0.66667,0.64087,-0.17822,0.064039
0.008,-0.068006,0.65103,0.99536,-0.64851,-0.20936
0.016,-0.068006,0.63441,1.1517,-0.67327,-0.22906
0.024,-0.066461,0.61877,1.0356,-0.20297,0.19458
0.032,-0.064915,0.60313,0.85139,0.17822,0.43596
0.04,-0.063369,0.58553,0.43034,0.66337,0.74384
0.048,-0.060278,0.56696,0.12848,0.9703,0.93103
0.056,-0.058733,0.54741,-0.010836,1.1386,1.0197
0.064,-0.055641,0.52786,-0.066563,1.1881,1.0493
0.072,-0.051005,0.50831,-0.082043,1.2277,1.0591
0.08,-0.047913,0.48974,-0.082043,1.2376,1.064
0.088,-0.043277,0.47019,-0.082043,1.2475,1.0591
0.096,-0.040185,0.45357,-0.075851,1.2574,1.064
0.104,-0.037094,0.43793,-0.075851,1.2624,1.0591
0.112,-0.034003,0.42522,-0.071207,1.2723,1.0542
0.12,-0.029366,0.41447,-0.066563,1.2772,1.0443
0.128,-0.026275,0.40762,-0.06192,1.2921,1.0493
0.136,-0.021638,0.40176,-0.055728,1.302,1.0345
0.144,-0.017002,0.39785,-0.051084,1.3168,1.0345
0.152,-0.012365,0.39589,-0.035604,1.3267,1.0296
0.16,-0.007728,0.39394,-0.026316,1.3515,1.0099
0.168,-0.0046368,0.39394,-0.010836,1.3614,1.0099
0.176,0,0.39492,-0.001548,1.3861,1
0.184,0.0046368,0.39492,0.013932,1.3911,0.99507
0.192,0.0092736,0.39589,0.029412,1.4109,0.98522
0.2,0.01391,0.39687,0.0387,1.401,0.97537
0.208,0.018547,0.39785,0.058824,1.4158,0.96552
0.216,0.02473,0.39785,0.063467,1.401,0.96059
0.224,0.029366,0.39785,0.069659,1.396,0.95074
0.232,0.034003,0.39785,0.089783,1.3762,0.93596
0.24,0.03864,0.39687,0.099071,1.3663,0.91872
0.248,0.043277,0.39589,0.11455,1.3267,0.89901
0.256,0.046368,0.39492,0.13467,1.3069,0.88424
0.264,0.049459,0.39296,0.13467,1.2723,0.86946
0.272,0.054096,0.39003,0.13932,1.2426,0.86453
0.28,0.057187,0.3871,0.13467,1.2079,0.85961
0.288,0.060278,0.38319,0.12848,1.1782,0.85961
0.296,0.061824,0.37928,0.1192,1.1485,0.86453
0.304,0.064915,0.37537,0.10836,1.1287,0.86946
0.312,0.066461,0.37146,0.094427,1.1139,0.87931
0.32,0.069552,0.36852,0.089783,1.104,0.88424
0.328,0.069552,0.36657,0.083591,1.1089,0.88916
0.336,0.071097,0.36559,0.074303,1.099,0.89409
0.344,0.071097,0.36266,0.063467,1.104,0.89901
0.352,0.072643,0.35973,0.063467,1.099,0.89409
0.36,0.072643,0.35679,0.063467,1.104,0.89901
0.368,0.074189,0.35288,0.058824,1.099,0.89901
0.376,0.072643,0.34995,0.05418,1.1188,0.90887
0.384,0.072643,0.34604,0.05418,1.1139,0.90887
0.392,0.071097,0.34213,0.058824,1.1337,0.91379
0.4,0.069552,0.3392,0.05418,1.1188,0.90887
0.408,0.068006,0.33529,0.049536,1.1287,0.91379
0.416,0.066461,0.33236,0.0387,1.1188,0.91379
0.424,0.064915,0.32942,0.0387,1.1287,0.91379
0.432,0.061824,0.32845,0.043344,1.1188,0.91379
0.44,0.058733,0.32551,0.043344,1.1188,0.91379
0.448,0.057187,0.32356,0.043344,1.104,0.90887
0.456,0.054096,0.3216,0.043344,1.099,0.90887
0.464,0.051005,0.31965,0.058824,1.1089,0.90394
0.472,0.047913,0.31672,0.083591,1.1386,0.89409
0.48,0.044822,0.31476,0.10836,1.1238,0.87438
0.488,0.041731,0.31183,0.1192,1.1139,0.86946
0.496,0.03864,0.3089,0.12384,1.1238,0.85961
0.504,0.035549,0.30596,0.17492,1.1337,0.81034
0.512,0.034003,0.30303,0.23375,1.0941,0.76108
0.52,0.030912,0.30303,0.22446,1.0495,0.77094
0.528,0.029366,0.30499,0.19505,1.0198,0.78571
0.536,0.026275,0.31085,0.17492,1.0099,0.79557
0.544,0.02473,0.32356,0.13467,1.0495,0.83498
0.552,0.021638,0.34409,0.078947,1.0347,0.87931
0.56,0.018547,0.37341,0.029412,1.0396,0.91379
0.568,0.017002,0.40958,0.0092879,1.0248,0.93103
0.576,0.015456,0.45161,0.013932,1.0297,0.93596
0.584,0.01391,0.49658,0.013932,1.0248,0.92611
0.592,0.01391,0.54154,0.018576,1.0347,0.91872
0.6,0.01391,0.5826,0.02322,1.0248,0.91872
0.608,0.01391,0.61779,0.029412,1.0347,0.91872
0.616,0.01391,0.64614,0.02322,1.0248,0.91379
0.624,0.01391,0.66471,0.029412,1.0495,0.91872
0.632,0.01391,0.67449,0.034056,1.0347,0.91379
0.64,0.01391,0.68035,0.018576,1.0446,0.91872
0.648,0.015456,0.68035,-0.035604,1.0891,0.94581
0.656,0.015456,0.67644,-0.1517,1.2327,0.99015
0.664,0.017002,0.66764,-0.19659,1.4059,0.93103
0.672,0.017002,0.65494,-0.01548,1.1436,0.70936
0.68,0.018547,0.64125,0.47988,0.16832,0.21921
0.688,0.020093,0.62561,0.94582,-0.5495,-0.17488
0.696,0.021638,0.60802,1.1471,-0.66337,-0.22414
0.704,0.023184,0.59042,1.1563,-0.29208,0.13054
0.712,0.02473,0.57185,0.8808,0.044554,0.38916
0.72,0.026275,0.55132,0.5356,0.5099,0.6798
0.728,0.029366,0.53372,0.16873,0.87624,0.91872
0.736,0.030912,0.51711,-0.010836,1.0891,1.0197
0.744,0.034003,0.49853,-0.082043,1.1683,1.064
0.752,0.037094,0.47898,-0.1161,1.1931,1.0788
0.76,0.03864,0.46139,-0.1161,1.2277,1.0837
0.768,0.041731,0.44477,-0.10681,1.2277,1.0739
0.776,0.044822,0.43011,-0.10681,1.2426,1.0788
0.784,0.047913,0.41642,-0.11146,1.2376,1.0739
0.792,0.051005,0.40567,-0.10681,1.2574,1.0788
0.8,0.055641,0.39687,-0.095975,1.2574,1.064
0.808,0.060278,0.39101,-0.082043,1.2723,1.0542
0.816,0.064915,0.38612,-0.075851,1.2723,1.0542
0.824,0.069552,0.38319,-0.066563,1.2871,1.0493
0.832,0.072643,0.38123,-0.06192,1.297,1.0345
0.84,0.07728,0.38123,-0.04644,1.3218,1.0345
0.848,0.081917,0.38123,-0.035604,1.3267,1.0197
0.856,0.086553,0.38221,-0.03096,1.3564,1.0148
0.864,0.09119,0.37537,-0.01548,1.3614,1
0.872,0.097372,0.36461,-0.001548,1.3812,0.99507
0.88,0.10355,0.35777,0.013932,1.3861,0.98522
0.888,0.11128,0.35386,0.02322,1.3812,0.98522
0.896,0.11901,0.35191,0.034056,1.3861,0.97044
0.904,0.12674,0.34995,0.0387,1.3663,0.96552
0.912,0.13447,0.348,0.063467,1.3713,0.95074
0.92,0.14529,0.34604,0.078947,1.3366,0.93103
0.928,0.15456,0.34311,0.089783,1.3168,0.91379
0.936,0.16847,0.34115,0.10836,1.2822,0.89901
0.944,0.18083,0.33822,0.11455,1.2624,0.88424
0.952,0.19629,0.33529,0.1192,1.2277,0.87438
0.96,0.21175,0.33236,0.1192,1.2079,0.86946
0.968,0.22875,0.32942,0.11455,1.1683,0.86946
0.976,0.24575,0.32551,0.10372,1.1584,0.87438
0.984,0.26121,0.3216,0.089783,1.1238,0.88424
0.992,0.27821,0.31769,0.078947,1.1188,0.89409
1,0.29366,0.31378,0.063467,1.099,0.89409
1.008,0.30912,0.31085,0.05418,1.104,0.90887
1.016,0.32457,0.30694,0.049536,1.0941,0.91379
1.024,0.34158,0.30401,0.05418,1.099,0.90887
1.032,0.35858,0.30108,0.049536,1.0891,0.90887
1.04,0.37713,0.29814,0.049536,1.099,0.91379
1.048,0.39258,0.29423,0.0387,1.099,0.91872
1.056,0.40804,0.29032,0.0387,1.104,0.92611
1.064,0.42349,0.28641,0.0387,1.1139,0.91872
1.072,0.4374,0.2825,0.0387,1.1238,0.91872
1.08,0.45131,0.27859,0.0387,1.1287,0.91872
1.088,0.46677,0.27468,0.0387,1.1238,0.92611
1.096,0.48068,0.27077,0.029412,1.1386,0.92611
1.104,0.49459,0.26686,0.029412,1.1238,0.92611
1.112,0.5085,0.26295,0.02322,1.1386,0.92611
1.12,0.52396,0.26002,0.034056,1.1238,0.92611
1.128,0.53787,0.25806,0.02322,1.1337,0.92611
1.136,0.55332,0.25806,0.018576,1.1188,0.91872
1.144,0.56569,0.25611,0.043344,1.1436,0.91379
1.152,0.5796,0.25513,0.074303,1.1436,0.89409
1.16,0.59042,0.25318,0.089783,1.1386,0.88424
1.168,0.60278,0.25024,0.094427,1.1139,0.87438
1.176,0.61515,0.24829,0.12848,1.1485,0.85961
1.184,0.62751,0.24536,0.19505,1.1188,0.79557
1.192,0.63988,0.2434,0.21981,1.0891,0.77586
1.2,0.65379,0.24242,0.17957,1.0396,0.80049
1.208,0.66461,0.24633,0.15944,1.0297,0.81527
1.216,0.67697,0.25806,0.14861,1.0396,0.8202
1.224,0.68779,0.27468,0.094427,1.0644,0.86946
1.232,0.69861,0.29814,0.02322,1.0396,0.91379
1.24,0.70788,0.33431,-0.010836,1.0446,0.94581
1.248,0.7187,0.38123,-0.021672,1.0248,0.95567
1.256,0.72952,0.43597,-0.010836,1.0396,0.94581
1.264,0.74034,0.4956,-0.0061919,1.0297,0.94089
1.272,0.75116,0.55425,-0.010836,1.0248,0.94581
1.28,0.76352,0.60997,-0.001548,1.0347,0.94089
1.288,0.77434,0.65787,0.004644,1.0297,0.94089
1.296,0.78671,0.69697,0.0092879,1.0446,0.93596
1.304,0.79598,0.7263,0.004644,1.0396,0.94089
1.312,0.8068,0.74487,0.004644,1.0495,0.93596
1.32,0.81607,0.75464,0.0092879,1.0297,0.93103
1.328,0.82689,0.75464,-0.10062,1.1287,0.97537
1.336,0.83617,0.74878,-0.19659,1.2822,0.99507
1.344,0.84699,0.73803,-0.20124,1.4455,0.90887
1.352,0.85781,0.72239,0.15944,0.94059,0.57389
1.36,0.86862,0.70479,0.72601,-0.049505,0.073892
1.368,0.8779,0.68524,1.0712,-0.55446,-0.1798
1.376,0.88717,0.66471,1.2012,-0.56931,-0.068966
1.384,0.89645,0.64223,1.0263,-0.15842,0.23892
1.392,0.90572,0.61975,0.76006,0.25248,0.51478
1.4,0.91654,0.59629,0.32972,0.67327,0.81034
1.408,0.92581,0.57283,0.0387,0.98515,0.98522
1.416,0.93818,0.54839,-0.071207,1.1188,1.0443
1.424,0.949,0.52688,-0.11146,1.1733,1.069
1.432,0.96136,0.50733,-0.12693,1.198,1.0739
1.44,0.97527,0.48778,-0.12074,1.2178,1.0788
1.448,0.98764,0.46725,-0.12074,1.2178,1.0739
1.456,1,0.44868,-0.12074,1.2327,1.0739
1.464,1.0124,0.43109,-0.1161,1.2376,1.069
1.472,1.0232,0.4174,-0.11146,1.2327,1.0739
1.48,1.034,0.40567,-0.10681,1.2525,1.0591
1.488,1.0433,0.39589,-0.10062,1.2624,1.0542
1.496,1.0541,0.39003,-0.086687,1.2772,1.0493
1.504,1.0634,0.38514,-0.075851,1.2723,1.0443
1.512,1.0742,0.38319,-0.071207,1.302,1.0345
1.52,1.0835,0.38221,-0.051084,1.3168,1.0296
1.528,1.0927,0.38221,-0.04644,1.3317,1.0197
1.536,1.1005,0.38319,-0.03096,1.3515,1.0099
1.544,1.1082,0.38416,-0.010836,1.3762,1
1.552,1.1144,0.38514,-0.001548,1.3663,0.98522
1.56,1.1221,0.3871,0.018576,1.3812,0.97537
1.568,1.1298,0.3871,0.029412,1.3713,0.96552
1.576,1.1376,0.3871,0.0387,1.3762,0.96552
1.584,1.1437,0.38612,0.05418,1.3564,0.94581
1.592,1.1515,0.38514,0.074303,1.3564,0.94089
1.6,1.1577,0.38221,0.089783,1.3267,0.91872
1.608,1.1638,0.38025,0.10836,1.3168,0.90394
1.616,1.17,0.37634,0.11455,1.2772,0.87931
1.624,1.1747,0.37341,0.12384,1.2574,0.86946
1.632,1.1793,0.37146,0.12848,1.2178,0.85961
1.64,1.1824,0.36852,0.12384,1.203,0.86453
1.648,1.1839,0.36559,0.1192,1.1634,0.85961
1.656,1.1855,0.36168,0.11455,1.1436,0.86946
1.664,1.1855,0.35875,0.10372,1.1238,0.86946
1.672,1.1839,0.35484,0.089783,1.1188,0.87438
1.68,1.1839,0.35093,0.089783,1.104,0.87931
1.688,1.1808,0.34604,0.078947,1.099,0.88916
1.696,1.1777,0.34213,0.069659,1.1089,0.88424
1.704,1.1716,0.33822,0.069659,1.099,0.88916
1.712,1.1669,0.33529,0.063467,1.1089,0.89409
1.72,1.1577,0.33333,0.063467,1.099,0.89409
1.728,1.1484,0.33138,0.058824,1.1139,0.89901
1.736,1.136,0.32942,0.063467,1.1089,0.89901
1.744,1.1221,0.32649,0.063467,1.1188,0.90887
1.752,1.1066,0.32258,0.058824,1.1188,0.90394
1.76,1.0912,0.31867,0.05418,1.1337,0.90887
1.768,1.0726,0.31378,0.05418,1.1287,0.90394
1.776,1.0541,0.30987,0.049536,1.1337,0.90394
1.784,1.0371,0.30694,0.043344,1.1188,0.90394
1.792,1.0185,0.30303,0.049536,1.1287,0.90887
1.8,1.0015,0.3001,0.043344,1.1188,0.90887
1.808,0.98454,0.29717,0.049536,1.1188,0.90887
1.816,0.966,0.29423,0.049536,1.099,0.90394
1.824,0.94745,0.29326,0.058824,1.1139,0.89409
1.832,0.92736,0.29228,0.083591,1.1337,0.88424
1.84,0.90726,0.28935,0.10836,1.1436,0.86946
1.848,0.88872,0.28543,0.11455,1.1139,0.86453
1.856,0.87017,0.2825,0.12848,1.1337,0.84975
1.864,0.85317,0.27859,0.17957,1.1485,0.81034
1.872,0.83617,0.27468,0.23994,1.1139,0.74877
1.88,0.81762,0.27175,0.22446,1.0545,0.76108
1.888,0.80062,0.27175,0.18885,1.0297,0.78571
1.896,0.78207,0.27859,0.17957,1.0297,0.79557
1.904,0.76352,0.29423,0.14396,1.0495,0.82512
1.912,0.74343,0.31965,0.078947,1.0545,0.87438
1.92,0.72488,0.34897,0.034056,1.0396,0.90887
1.928,0.70479,0.38416,0.013932,1.0446,0.92611
1.936,0.68624,0.43011,0.013932,1.0248,0.91872
1.944,0.66924,0.48289,0.018576,1.0347,0.92611
1.952,0.65224,0.53861,0.013932,1.0248,0.91872
1.96,0.63679,0.5914,0.018576,1.0347,0.91379
1.968,0.62287,0.63832,0.02322,1.0297,0.90887
1.976,0.60742,0.67644,0.02322,1.0446,0.91379
1.984,0.59196,0.70479,0.029412,1.0347,0.90887
1.992,0.57651,0.72239,0.034056,1.0446,0.90887
2,0.5626,0.72923,0.029412,1.0347,0.90887
2.008,0.54869,0.72825,-0.021672,1.0842,0.93103
2.016,0.53478,0.72043,-0.14706,1.2129,0.97537
2.024,0.52241,0.7087,-0.20124,1.401,0.94581
2.032,0.51005,0.69404,-0.06192,1.4307,0.74877
2.04,0.49768,0.67449,0.43963,0.24752,0.25616
2.048,0.48532,0.65298,0.91022,-0.5099,-0.15025
2.056,0.47295,0.6305,1.1362,-0.63861,-0.22414
2.064,0.46059,0.60606,1.1718,-0.29703,0.086207
2.072,0.44668,0.58162,0.94118,0,0.33498
2.08,0.43431,0.55523,0.60991,0.4703,0.61084
2.088,0.42195,0.52884,0.21981,0.85644,0.87931
2.096,0.40958,0.50147,0.0092879,1.0842,1
2.104,0.39876,0.47605,-0.071207,1.1634,1.0493
2.112,0.38949,0.45161,-0.095975,1.203,1.064
2.12,0.38022,0.43109,-0.10062,1.2228,1.069
2.128,0.37094,0.41349,-0.10062,1.2327,1.069
2.136,0.36167,0.39589,-0.10681,1.2376,1.069
2.144,0.35085,0.37928,-0.10062,1.2525,1.069
2.152,0.34158,0.36657,-0.10062,1.2475,1.064
2.16,0.33076,0.35582,-0.095975,1.2624,1.0591
2.168,0.32148,0.348,-0.091331,1.2574,1.0542
2.176,0.31221,0.34213,-0.075851,1.2871,1.0542
2.184,0.30448,0.3392,-0.075851,1.2822,1.0443
2.192,0.29675,0.33822,-0.06192,1.3069,1.0394
2.2,0.28748,0.33724,-0.051084,1.3168,1.0296
2.208,0.27975,0.33822,-0.035604,1.3515,1.0148
2.216,0.27202,0.3392,-0.026316,1.3564,1.0099
2.224,0.2643,0.34018,-0.010836,1.3812,1
2.232,0.25502,0.34115,0.004644,1.3861,0.98522
2.24,0.2473,0.34115,0.013932,1.401,0.98522
2.248,0.23957,0.34018,0.02322,1.396,0.97044
2.256,0.23184,0.3392,0.043344,1.401,0.96552
2.264,0.22566,0.33822,0.058824,1.3861,0.95074
2.272,0.21947,0.33724,0.069659,1.3812,0.93596
2.28,0.21484,0.33627,0.083591,1.3614,0.91872
2.288,0.2102,0.33529,0.099071,1.3416,0.90394
2.296,0.20556,0.33333,0.11455,1.3119,0.88916
2.304,0.20093,0.3304,0.12384,1.2822,0.87438
2.312,0.19629,0.32845,0.13467,1.2475,0.86453
2.32,0.19165,0.32551,0.12848,1.2129,0.85961
2.328,0.18702,0.32356,0.1192,1.1782,0.85468
2.336,0.18393,0.32063,0.10836,1.1485,0.85961
2.344,0.18083,0.31672,0.099071,1.1238,0.86946
2.352,0.17774,0.31281,0.089783,1.1089,0.86946
2.36,0.17465,0.3089,0.078947,1.099,0.87931
2.368,0.17156,0.30499,0.063467,1.0891,0.88424
2.376,0.16692,0.30108,0.063467,1.0941,0.89409
2.384,0.16229,0.29717,0.063467,1.0842,0.89409
2.392,0.15765,0.29423,0.063467,1.0941,0.89901
2.4,0.15301,0.29228,0.05418,1.0891,0.89901
2.408,0.14683,0.29032,0.049536,1.104,0.90887
2.416,0.14065,0.28739,0.043344,1.099,0.90394
2.424,0.13447,0.28641,0.049536,1.1188,0.90887
2.432,0.12828,0.28446,0.049536,1.1188,0.90394
2.44,0.1221,0.28152,0.043344,1.1287,0.91379
2.448,0.11592,0.27859,0.0387,1.1238,0.90887
2.456,0.10974,0.27566,0.0387,1.1386,0.91379
2.464,0.10201,0.27175,0.0387,1.1188,0.90887
2.472,0.092736,0.26882,0.034056,1.1238,0.91379
2.48,0.085008,0.26588,0.034056,1.1287,0.90887
2.488,0.07728,0.26295,0.029412,1.1188,0.91379
2.496,0.069552,0.26002,0.034056,1.1089,0.91379
2.504,0.063369,0.25709,0.029412,1.104,0.91379
2.512,0.055641,0.25415,0.034056,1.1089,0.90887
2.52,0.047913,0.25318,0.058824,1.1238,0.89409
2.528,0.040185,0.2522,0.083591,1.1337,0.87931
2.536,0.032458,0.25024,0.094427,1.1089,0.86946
2.544,0.02473,0.24829,0.10836,1.1188,0.85961
2.552,0.017002,0.24536,0.15944,1.1238,0.81527
2.56,0.0092736,0.24438,0.22446,1.0941,0.76108
2.568,0.0015456,0.24633,0.20898,1.0396,0.76601
2.576,-0.0061824,0.25415,0.18421,1.0198,0.78571
2.584,-0.012365,0.26882,0.15944,1,0.79557
2.592,-0.018547,0.29423,0.12848,1.0396,0.83005
2.6,-0.02473,0.3304,0.063467,1.0446,0.87931
2.608,-0.029366,0.3783,0.013932,1.0248,0.91872
2.616,-0.034003,0.43402,-0.0061919,1.0149,0.93596
2.624,-0.03864,0.48583,-0.0061919,1.0248,0.93596
2.632,-0.043277,0.5347,0.004644,1.0099,0.93103
2.64,-0.047913,0.58749,0.004644,1.0248,0.93103
2.648,-0.051005,0.63734,0.004644,1.0149,0.92611
2.656,-0.05255,0.6784,0.013932,1.0248,0.93103
2.664,-0.055641,0.70968,0.013932,1.0198,0.92611
2.672,-0.057187,0.73021,0.018576,1.0297,0.91872
2.68,-0.058733,0.73998,0.018576,1.0347,0.91872
2.688,-0.060278,0.74194,0.018576,1.0248,0.91872
2.696,-0.061824,0.73509,-0.021672,1.0644,0.93596
2.704,-0.061824,0.72336,-0.14706,1.198,0.98522
2.712,-0.063369,0.70674,-0.21672,1.3762,0.95074
2.72,-0.063369,0.68915,-0.095975,1.4158,0.78571
2.728,-0.064915,0.67058,0.36997,0.29208,0.30542
2.736,-0.064915,0.65005,0.86068,-0.52475,-0.13054
2.744,-0.064915,0.62659,1.0867,-0.68812,-0.21921
2.752,-0.064915,0.60313,1.1362,-0.35644,0.073892
2.76,-0.063369,0.57869,0.93034,-0.049505,0.33498
2.768,-0.061824,0.55327,0.63003,0.42079,0.60099
2.776,-0.060278,0.52786,0.21362,0.83168,0.87438
2.784,-0.058733,0.50147,0.004644,1.0644,1
2.792,-0.057187,0.47507,-0.075851,1.1634,1.0542
2.8,-0.054096,0.45161,-0.10681,1.1881,1.069
2.808,-0.051005,0.42913,-0.10681,1.2178,1.0739
2.816,-0.047913,0.4086,-0.10681,1.2228,1.069
2.824,-0.044822,0.39198,-0.10062,1.2376,1.0739
2.832,-0.041731,0.37928,-0.10062,1.2376,1.069
2.84,-0.037094,0.36755,-0.10681,1.2574,1.069
2.848,-0.034003,0.35777,-0.10062,1.2574,1.064
2.856,-0.030912,0.34995,-0.086687,1.2723,1.0591
2.864,-0.026275,0.34506,-0.082043,1.2822,1.0542
2.872,-0.023184,0.34115,-0.075851,1.2772,1.0493
2.88,-0.018547,0.3392,-0.06192,1.3069,1.0394
2.888,-0.015456,0.33724,-0.051084,1.3218,1.0345
2.896,-0.010819,0.33724,-0.041796,1.3317,1.0246
2.904,-0.007728,0.33724,-0.026316,1.3614,1.0148
2.912,-0.0030912,0.33822,-0.010836,1.3762,1.0049
2.92,0,0.34018,0.004644,1.3812,0.99507
2.928,0.0046368,0.34115,0.018576,1.3911,0.98522
2.936,0.0092736,0.34213,0.029412,1.3861,0.97537
2.944,0.012365,0.34115,0.0387,1.401,0.96552
2.952,0.017002,0.34115,0.05418,1.3812,0.96059
2.96,0.021638,0.34115,0.063467,1.3762,0.94581
2.968,0.026275,0.34018,0.078947,1.3564,0.93103
2.976,0.030912,0.3392,0.089783,1.3416,0.91379
2.984,0.034003,0.33724,0.10836,1.3119,0.89409
2.992,0.03864,0.33431,0.1192,1.2921,0.88424
3,0.041731,0.33236,0.12384,1.2475,0.86946
3.008,0.046368,0.32845,0.12848,1.2277,0.86946
3.016,0.049459,0.32356,0.1192,1.1782,0.86453
3.024,0.05255,0.32063,0.10372,1.1634,0.86946
3.032,0.055641,0.31672,0.094427,1.1287,0.86946
3.04,0.058733,0.31281,0.089783,1.1188,0.87438
3.048,0.061824,0.3089,0.074303,1.099,0.88424
3.056,0.064915,0.30499,0.069659,1.099,0.88916
3.064,0.068006,0.30205,0.063467,1.0891,0.89409
3.072,0.071097,0.29912,0.063467,1.0941,0.89409
3.08,0.072643,0.29619,0.05418,1.099,0.89901
3.088,0.074189,0.29326,0.049536,1.0941,0.90887
3.096,0.074189,0.29032,0.0387,1.104,0.91379
3.104,0.075734,0.28641,0.049536,1.099,0.90887
3.112,0.074189,0.28348,0.043344,1.1139,0.91379
3.12,0.074189,0.28055,0.0387,1.1188,0.90887
3.128,0.074189,0.27761,0.0387,1.1238,0.91379
3.136,0.072643,0.27468,0.0387,1.1188,0.91379
3.144,0.071097,0.27175,0.034056,1.1287,0.91872
3.152,0.069552,0.26784,0.034056,1.1188,0.91379
3.16,0.068006,0.26491,0.029412,1.1188,0.91379
3.168,0.064915,0.26295,0.034056,1.1139,0.91379
3.176,0.061824,0.261,0.0387,1.1188,0.91379
3.184,0.058733,0.25904,0.0387,1.104,0.91379
3.192,0.055641,0.25806,0.034056,1.104,0.91379
3.2,0.051005,0.25611,0.034056,1.0842,0.90887
3.208,0.046368,0.25513,0.0387,1.0941,0.90394
3.216,0.043277,0.25415,0.058824,1.104,0.89409
3.224,0.03864,0.25318,0.089783,1.1188,0.87931
3.232,0.035549,0.2522,0.10372,1.099,0.86453
3.24,0.032458,0.25024,0.11455,1.1139,0.86453
3.248,0.029366,0.24829,0.1548,1.1188,0.82512
3.256,0.026275,0.24829,0.22446,1.0941,0.77094
3.264,0.023184,0.25122,0.21362,1.0396,0.76108
3.272,0.020093,0.26197,0.18885,1.0248,0.78079
3.28,0.018547,0.28152,0.17492,1.0099,0.78571
3.288,0.015456,0.31281,0.13932,1.0297,0.81527
3.296,0.012365,0.35386,0.078947,1.0446,0.86453
3.304,0.010819,0.40371,0.029412,1.0248,0.90887
3.312,0.0092736,0.45943,0.004644,1.0297,0.92611
3.32,0.007728,0.50831,-0.0061919,1.0149,0.93596
3.328,0.0061824,0.5523,0.004644,1.0248,0.93103
3.336,0.0046368,0.59824,0.0092879,1.0198,0.91872
3.344,0.0030912,0.6393,0.013932,1.0297,0.91872
3.352,0.0030912,0.67155,0.018576,1.0198,0.91379
3.36,0.0015456,0.69404,0.018576,1.0347,0.91379
3.368,0.0015456,0.70772,0.02322,1.0248,0.91379
3.376,0.0015456,0.71163,0.02322,1.0446,0.91379
3.384,0.0015456,0.7087,0.018576,1.0347,0.91379
3.392,0.0015456,0.69892,0.004644,1.0594,0.92611
3.4,0.0030912,0.68524,-0.1161,1.1634,0.97044
3.408,0.0030912,0.66862,-0.19659,1.3564,0.98522
3.416,0.0061824,0.652,-0.20588,1.4307,0.84483
3.424,0.007728,0.63343,0.25387,0.5495,0.40887
3.432,0.010819,0.61388,0.78638,-0.42574,-0.078818
3.44,0.012365,0.5914,1.0511,-0.69802,-0.23399
3.448,0.015456,0.56891,1.1316,-0.42574,-0.0098522
3.456,0.018547,0.54545,0.96594,-0.11881,0.27586
3.464,0.020093,0.52199,0.72601,0.30693,0.52463
3.472,0.023184,0.49756,0.30031,0.76733,0.83005
3.48,0.026275,0.47312,0.049536,1.0396,0.97537
3.488,0.029366,0.45064,-0.04644,1.1535,1.0345
3.496,0.034003,0.42913,-0.091331,1.1931,1.0542
3.504,0.03864,0.40958,-0.095975,1.2277,1.064
3.512,0.043277,0.39198,-0.095975,1.2376,1.064
3.52,0.047913,0.37928,-0.095975,1.2426,1.0591
3.528,0.05255,0.36852,-0.091331,1.2525,1.0542
3.536,0.057187,0.35973,-0.091331,1.2475,1.0591
3.544,0.061824,0.35288,-0.086687,1.2673,1.0542
3.552,0.066461,0.34702,-0.075851,1.2772,1.0542
3.56,0.069552,0.34409,-0.071207,1.2871,1.0493
3.568,0.074189,0.34311,-0.06192,1.2822,1.0345
3.576,0.07728,0.34213,-0.051084,1.3119,1.0296
3.584,0.080371,0.34311,-0.041796,1.3218,1.0246
3.592,0.085008,0.34311,-0.03096,1.3515,1.0148
3.6,0.088099,0.34506,-0.026316,1.3564,1.0099
3.608,0.09119,0.34702,-0.0061919,1.3861,1
3.616,0.094281,0.348,0.004644,1.3861,0.98522
3.624,0.098918,0.34897,0.018576,1.4059,0.9803
3.632,0.10201,0.34897,0.029412,1.401,0.96552
3.64,0.10665,0.34897,0.0387,1.4059,0.96059
3.648,0.10974,0.34702,0.05418,1.3911,0.94581
3.656,0.11283,0.34506,0.074303,1.3911,0.94089
3.664,0.11592,0.34213,0.083591,1.3713,0.91872
3.672,0.12056,0.34018,0.10372,1.3614,0.90394
3.68,0.12365,0.33724,0.11455,1.3267,0.88424
3.688,0.12674,0.33529,0.12384,1.302,0.87438
3.696,0.13138,0.33236,0.12848,1.2624,0.85961
3.704,0.13447,0.32942,0.13467,1.2327,0.85468
3.712,0.13756,0.32649,0.12848,1.198,0.85961
3.72,0.14065,0.32356,0.1192,1.1683,0.85961
3.728,0.14374,0.31965,0.11455,1.1485,0.85961
3.736,0.14683,0.31672,0.099071,1.1238,0.86946
3.744,0.14992,0.31281,0.089783,1.1139,0.86946
3.752,0.15147,0.3089,0.078947,1.099,0.87931
3.76,0.15301,0.30596,0.069659,1.099,0.88916
3.768,0.15456,0.30303,0.063467,1.0941,0.88916
3.776,0.15611,0.3001,0.063467,1.099,0.89409
3.784,0.15611,0.29717,0.058824,1.0941,0.89409
3.792,0.15765,0.29423,0.058824,1.1089,0.89409
3.8,0.15611,0.29032,0.05418,1.104,0.89409
3.808,0.15456,0.28739,0.058824,1.1188,0.89901
3.816,0.15147,0.28446,0.058824,1.1139,0.89901
3.824,0.14992,0.2825,0.05418,1.1238,0.90394
3.832,0.14529,0.27957,0.049536,1.1188,0.90394
3.84,0.14219,0.27761,0.043344,1.1337,0.90887
3.848,0.13756,0.27566,0.043344,1.1238,0.90394
3.856,0.13292,0.2737,0.043344,1.1287,0.90887
3.864,0.12828,0.27175,0.0387,1.1139,0.90394
3.872,0.12519,0.26979,0.0387,1.1188,0.90887
3.88,0.12056,0.26686,0.0387,1.104,0.90394
3.888,0.11747,0.26491,0.043344,1.104,0.90887
3.896,0.11283,0.26295,0.049536,1.0941,0.89901
3.904,0.10819,0.261,0.049536,1.0891,0.89901
3.912,0.10355,0.25806,0.058824,1.099,0.89409
3.92,0.098918,0.25709,0.089783,1.1139,0.87438
3.928,0.094281,0.25611,0.11455,1.1238,0.86453
3.936,0.09119,0.25415,0.11455,1.099,0.85961
3.944,0.086553,0.25122,0.13932,1.1238,0.8399
3.952,0.083462,0.25024,0.20898,1.1089,0.78079
3.96,0.080371,0.25318,0.23375,1.0693,0.74877
3.968,0.075734,0.26393,0.20898,1.0248,0.77094
3.976,0.072643,0.28348,0.18885,1.0099,0.78079
3.984,0.069552,0.31378,0.16409,1.0198,0.80049
3.992,0.066461,0.35582,0.10836,1.0446,0.84975
4,0.063369,0.40762,0.043344,1.0248,0.89901
4.008,0.060278,0.46628,0.013932,1.0347,0.93103
4.016,0.057187,0.51808,0.0092879,1.0248,0.93103
4.024,0.055641,0.56598,0.013932,1.0297,0.93596
4.032,0.054096,0.61486,0.013932,1.0248,0.93103
4.04,0.05255,0.65982,0.013932,1.0347,0.93103
4.048,0.051005,0.69501,0.018576,1.0248,0.91379
4.056,0.051005,0.72141,0.02322,1.0297,0.91379
4.064,0.049459,0.73705,0.029412,1.0248,0.91379
4.072,0.049459,0.74291,0.034056,1.0396,0.91379
4.08,0.049459,0.74096,0.034056,1.0347,0.91379
4.088,0.049459,0.73118,0.029412,1.0396,0.90887
4.096,0.049459,0.7175,-0.055728,1.1089,0.95074
4.104,0.049459,0.6999,-0.16718,1.2723,0.97537
4.112,0.049459,0.67937,-0.19195,1.4257,0.90394
4.12,0.051005,0.65982,0.074303,0.93069,0.60099
4.128,0.051005,0.64125,0.60526,-0.13366,0.078818
4.136,0.05255,0.61975,0.98142,-0.66337,-0.22414
4.144,0.054096,0.59726,1.1517,-0.70792,-0.23892
4.152,0.055641,0.5738,1.0263,-0.24752,0.18473
4.16,0.057187,0.54936,0.8452,0.12871,0.43103
4.168,0.060278,0.52395,0.43963,0.60891,0.73399
4.176,0.061824,0.49853,0.12384,0.9505,0.93103
4.184,0.063369,0.4741,-0.021672,1.1089,1.0197
4.192,0.066461,0.45064,-0.075851,1.1782,1.0542
4.2,0.068006,0.42913,-0.091331,1.2079,1.064
4.208,0.071097,0.41056,-0.086687,1.2327,1.069
4.216,0.072643,0.39687,-0.091331,1.2277,1.064
4.224,0.075734,0.38612,-0.091331,1.2426,1.064
4.232,0.07728,0.37732,-0.091331,1.2376,1.0542
4.24,0.080371,0.37048,-0.082043,1.2574,1.0542
4.248,0.081917,0.36559,-0.082043,1.2574,1.0542
4.256,0.085008,0.36168,-0.075851,1.2723,1.0493
4.264,0.086553,0.35973,-0.066563,1.2822,1.0394
4.272,0.089645,0.35777,-0.055728,1.297,1.0345
4.28,0.092736,0.35777,-0.041796,1.3069,1.0246
4.288,0.095827,0.35777,-0.026316,1.3218,1.0197
4.296,0.098918,0.35875,-0.01548,1.3416,1.0099
4.304,0.10201,0.35973,-0.0061919,1.3713,1.0099
4.312,0.10665,0.35973,-0.0061919,1.3812,1
4.32,0.10974,0.35973,0.018576,1.3911,0.98522
4.328,0.11437,0.35973,0.029412,1.401,0.9803
4.336,0.11747,0.35875,0.0387,1.3911,0.97044
4.344,0.12056,0.35777,0.058824,1.396,0.95567
4.352,0.12519,0.35582,0.069659,1.3812,0.94581
4.36,0.12828,0.35288,0.083591,1.3713,0.94089
4.368,0.13138,0.34897,0.089783,1.3564,0.92611
4.376,0.13601,0.34604,0.10836,1.3366,0.90887
4.384,0.1391,0.34311,0.1192,1.302,0.88916
4.392,0.14374,0.34018,0.13467,1.2772,0.87438
4.4,0.14992,0.33724,0.13467,1.2376,0.86946
4.408,0.15301,0.33333,0.12848,1.2129,0.86946
4.416,0.15765,0.32942,0.11455,1.1733,0.86946
4.424,0.16074,0.32649,0.11455,1.1584,0.86946
4.432,0.16538,0.32258,0.099071,1.1188,0.86946
4.44,0.16847,0.31769,0.089783,1.1139,0.88424
4.448,0.17156,0.31378,0.078947,1.0941,0.88424
4.456,0.17311,0.3089,0.069659,1.099,0.89409
4.464,0.17465,0.30499,0.058824,1.0891,0.89409
4.472,0.1762,0.30205,0.05418,1.099,0.89901
4.48,0.1762,0.3001,0.049536,1.0891,0.90394
4.488,0.17465,0.29814,0.049536,1.099,0.90887
4.496,0.17465,0.29521,0.05418,1.0941,0.91379
4.504,0.17311,0.29326,0.043344,1.099,0.90887
4.512,0.17311,0.29032,0.0387,1.104,0.91379
4.52,0.17002,0.28837,0.0387,1.099,0.91379
4.528,0.16847,0.28641,0.0387,1.1139,0.91379
4.536,0.16538,0.28348,0.029412,1.1089,0.91872
4.544,0.16383,0.28152,0.02322,1.1188,0.92611
4.552,0.1592,0.27859,0.018576,1.1139,0.92611
4.56,0.15611,0.27566,0.02322,1.1188,0.93103
4.568,0.15147,0.27273,0.018576,1.099,0.92611
4.576,0.14838,0.26979,0.029412,1.104,0.91872
4.584,0.14529,0.26686,0.02322,1.0891,0.91872
4.592,0.14065,0.26393,0.018576,1.0941,0.92611
4.6,0.13756,0.26197,0.02322,1.0792,0.91872
4.608,0.13447,0.26002,0.029412,1.0792,0.92611
4.616,0.13138,0.25904,0.049536,1.0743,0.90394
4.624,0.12983,0.25806,0.074303,1.1139,0.89409
4.632,0.12828,0.25611,0.089783,1.104,0.88424
4.64,0.12674,0.25415,0.089783,1.0941,0.87931
4.648,0.12674,0.2522,0.12384,1.1188,0.84975
4.656,0.12674,0.2522,0.19505,1.104,0.79557
4.664,0.12828,0.25709,0.21362,1.0495,0.77586
4.672,0.12983,0.26882,0.18885,1.0248,0.79064
4.68,0.13292,0.2913,0.16409,1,0.80049
4.688,0.13447,0.32551,0.14396,1.0297,0.82512
4.696,0.1391,0.3695,0.083591,1.0446,0.86946
4.704,0.14529,0.42229,0.02322,1.0248,0.91379
4.712,0.15147,0.48094,-0.0061919,1.0198,0.94089
4.72,0.1592,0.53177,-0.0061919,1.0099,0.94089
4.728,0.16692,0.57576,-0.0061919,1.0198,0.94089
4.736,0.1762,0.6217,0.004644,1.0099,0.93596
4.744,0.18547,0.66178,0.004644,1.0248,0.93103
4.752,0.19474,0.69306,0.013932,1.0149,0.92611
4.76,0.20711,0.71457,0.0092879,1.0248,0.93103
4.768,0.21947,0.72727,0.0092879,1.0248,0.92611
4.776,0.23338,0.73021,0.018576,1.0248,0.93103
4.784,0.24884,0.7263,0.018576,1.0248,0.91872
4.792,0.26584,0.71652,-0.001548,1.0446,0.93596
4.8,0.28284,0.70186,-0.1161,1.1436,0.9803
4.808,0.30294,0.68328,-0.19195,1.3218,0.98522
4.816,0.32148,0.66569,-0.19659,1.4109,0.85468
4.824,0.34003,0.64712,0.30495,0.66337,0.43103
4.832,0.35858,0.62561,0.83127,-0.26733,-0.039409
4.84,0.37558,0.60215,1.1068,-0.60891,-0.20443
4.848,0.39413,0.57674,1.1811,-0.38119,0.0049261
4.856,0.41267,0.55034,0.98607,-0.11386,0.29064
4.864,0.43277,0.52493,0.67492,0.32178,0.56897
4.872,0.45286,0.49853,0.24923,0.74752,0.86946
4.88,0.47295,0.4741,0.0092879,1.0099,1
4.888,0.4915,0.45161,-0.075851,1.1337,1.0493
4.896,0.51159,0.43011,-0.1161,1.1733,1.0739
4.904,0.52859,0.41153,-0.12693,1.198,1.0788
4.912,0.5456,0.39589,-0.12074,1.2129,1.0788
4.92,0.56414,0.38514,-0.12074,1.2079,1.0739
4.928,0.58114,0.37634,-0.1161,1.2277,1.069
4.936,0.59969,0.3695,-0.1161,1.2228,1.069
4.944,0.61978,0.36461,-0.10681,1.2376,1.064
4.952,0.63833,0.36168,-0.11146,1.2426,1.0591
4.96,0.65688,0.3607,-0.095975,1.2574,1.0542
4.968,0.67388,0.3607,-0.091331,1.2624,1.0542
4.976,0.69243,0.36168,-0.082043,1.2822,1.0443
4.984,0.70943,0.36266,-0.066563,1.2822,1.0345
4.992,0.72488,0.36461,-0.051084,1.3069,1.0246
5,0.74034,0.36559,-0.041796,1.3168,1.0148
5.008,0.7558,0.36657,-0.03096,1.3416,1.0099
5.016,0.76971,0.36755,-0.01548,1.3515,1
5.024,0.78516,0.36852,-0.0061919,1.3663,0.99015
5.032,0.80216,0.3695,0.0092879,1.3614,0.9803
5.04,0.81762,0.3695,0.02322,1.3663,0.97537
5.048,0.83153,0.36852,0.034056,1.3515,0.96552
5.056,0.84699,0.36755,0.0387,1.3564,0.96059
5.064,0.8609,0.36657,0.058824,1.3267,0.94089
5.072,0.87481,0.36461,0.074303,1.3168,0.92611
5.08,0.89026,0.36168,0.099071,1.2921,0.89901
5.088,0.90572,0.35875,0.11455,1.2723,0.88424
5.096,0.92272,0.35484,0.12384,1.2376,0.86946
5.104,0.93972,0.35191,0.1192,1.2129,0.86946
5.112,0.95672,0.348,0.12384,1.1832,0.86453
5.12,0.97372,0.34604,0.10836,1.1485,0.86946
5.128,0.98918,0.34409,0.099071,1.1287,0.86946
5.136,1.0062,0.34311,0.089783,1.1139,0.87438
5.144,1.0216,0.34213,0.078947,1.104,0.87931
5.152,1.0355,0.34018,0.069659,1.099,0.88916
5.16,1.0479,0.3392,0.05418,1.1089,0.89409
5.168,1.0603,0.33724,0.058824,1.0891,0.89409
5.176,1.0726,0.33431,0.058824,1.099,0.89901
5.184,1.0835,0.33236,0.05418,1.0941,0.89901
5.192,1.0958,0.32942,0.043344,1.104,0.90394
5.2,1.1066,0.32747,0.0387,1.099,0.90394
5.208,1.1159,0.32454,0.043344,1.1139,0.90887
5.216,1.1236,0.32258,0.0387,1.104,0.90394
5.224,1.1314,0.3216,0.0387,1.1188,0.91379
5.232,1.1376,0.31965,0.0387,1.1139,0.90887
5.24,1.1437,0.31672,0.043344,1.1238,0.90887
5.248,1.1499,0.31476,0.0387,1.1188,0.90887
5.256,1.1546,0.31183,0.0387,1.1238,0.91379
5.264,1.1607,0.3089,0.0387,1.1139,0.90394
5.272,1.1654,0.30694,0.049536,1.1188,0.90394
5.28,1.17,0.30499,0.049536,1.104,0.90394
5.288,1.1731,0.30303,0.043344,1.099,0.90394
5.296,1.1777,0.30205,0.049536,1.104,0.89901
5.304,1.1808,0.3001,0.058824,1.0941,0.89409
5.312,1.1839,0.3001,0.089783,1.1238,0.87438
5.32,1.187,0.29912,0.11455,1.1188,0.86453
5.328,1.1886,0.29814,0.11455,1.104,0.85961
5.336,1.1917,0.29619,0.12848,1.099,0.84975
5.344,1.1947,0.29326,0.18421,1.1287,0.80542
5.352,1.1963,0.29228,0.24458,1.0891,0.74877
5.36,1.1994,0.29423,0.22446,1.0495,0.76601
5.368,1.2009,0.30205,0.19505,1.0248,0.78079
5.376,1.2025,0.31769,0.18421,1.0347,0.80049
5.384,1.204,0.34409,0.13467,1.0495,0.83005
5.392,1.2056,0.38025,0.074303,1.0446,0.87931
5.4,1.2087,0.42815,0.02322,1.0297,0.91379
5.408,1.2102,0.48289,0.013932,1.0347,0.93103
5.416,1.2117,0.53372,0.013932,1.0248,0.91379
5.424,1.2133,0.58162,0.018576,1.0347,0.91379
5.432,1.2148,0.63148,0.018576,1.0248,0.91379
5.44,1.2164,0.67937,0.02322,1.0347,0.91379
5.448,1.2164,0.71848,0.029412,1.0297,0.91379
5.456,1.2164,0.74878,0.029412,1.0396,0.91379
5.464,1.2148,0.76735,0.029412,1.0347,0.90887
5.472,1.2148,0.77615,0.0387,1.0446,0.90887
5.48,1.2133,0.77615,0.034056,1.0347,0.90394
5.488,1.2102,0.76833,-0.035604,1.104,0.94089
5.496,1.2071,0.75562,-0.15635,1.2426,0.97537
5.504,1.2025,0.73803,-0.18111,1.4307,0.91872
5.512,1.1963,0.71945,0.034056,1.4356,0.66995
5.52,1.1901,0.6999,0.56966,0.15842,0.16995
5.528,1.1839,0.67742,1.0155,-0.5099,-0.19458
5.536,1.1777,0.65298,1.2012,-0.60891,-0.22906
5.544,1.1716,0.62757,1.0867,-0.22277,0.15517
5.552,1.1654,0.60117,0.8808,0.10396,0.40394
5.56,1.1546,0.57478,0.47523,0.56436,0.70443
5.568,1.1453,0.54839,0.13467,0.90099,0.92611
5.576,1.1345,0.52199,-0.010836,1.1089,1.0099
5.584,1.1221,0.49658,-0.071207,1.1683,1.0394
5.592,1.1082,0.47312,-0.091331,1.2129,1.0542
5.6,1.0958,0.45161,-0.086687,1.2129,1.0542
5.608,1.0804,0.43304,-0.086687,1.2376,1.0542
5.616,1.0665,0.41838,-0.086687,1.2277,1.0542
5.624,1.051,0.40665,-0.082043,1.2376,1.0542
5.632,1.0371,0.39687,-0.075851,1.2376,1.0493
5.64,1.0232,0.38905,-0.075851,1.2525,1.0443
5.648,1.0108,0.38319,-0.071207,1.2574,1.0345
5.656,0.99536,0.3783,-0.055728,1.2822,1.0296
5.664,0.98145,0.37537,-0.051084,1.2822,1.0197
5.672,0.966,0.37341,-0.035604,1.302,1.0148
5.68,0.95054,0.37243,-0.026316,1.3119,1.0049
5.688,0.93663,0.37146,-0.010836,1.3317,0.99507
5.696,0.92272,0.37146,-0.001548,1.3564,0.98522
5.704,0.91036,0.37146,0.0092879,1.3812,0.98522
5.712,0.89954,0.37146,0.018576,1.3911,0.9803
5.72,0.88717,0.37146,0.034056,1.3861,0.96552
5.728,0.87481,0.37048,0.0387,1.401,0.96059
5.736,0.86399,0.3695,0.05418,1.3861,0.95074
5.744,0.85162,0.36852,0.069659,1.3911,0.94089
5.752,0.8408,0.36755,0.083591,1.3663,0.93103
5.76,0.82998,0.36559,0.099071,1.3564,0.90887
5.768,0.81917,0.36364,0.1192,1.3317,0.88916
5.776,0.80989,0.35973,0.13467,1.3119,0.87438
5.784,0.80062,0.35679,0.14396,1.2723,0.85468
5.792,0.79134,0.35288,0.1548,1.2426,0.84483
5.8,0.78362,0.34897,0.14861,1.198,0.84483
5.808,0.77589,0.34409,0.14396,1.1782,0.84483
5.816,0.76816,0.34018,0.13467,1.1436,0.84483
5.824,0.75889,0.33724,0.12384,1.1337,0.84975
5.832,0.74961,0.33333,0.11455,1.1139,0.85468
5.84,0.74189,0.32942,0.10836,1.1188,0.86453
5.848,0.73261,0.32551,0.099071,1.099,0.86946
5.856,0.72334,0.3216,0.094427,1.104,0.86946
5.864,0.71406,0.31769,0.089783,1.099,0.87438
5.872,0.70479,0.31378,0.089783,1.1089,0.87931
5.88,0.69397,0.30987,0.083591,1.099,0.87438
5.888,0.68315,0.30694,0.078947,1.104,0.88424
5.896,0.66924,0.30401,0.074303,1.1089,0.88424
5.904,0.65688,0.3001,0.078947,1.099,0.87931
5.912,0.64142,0.29717,0.074303,1.1089,0.88424
5.92,0.62597,0.29521,0.074303,1.099,0.88424
5.928,0.60896,0.29228,0.074303,1.1139,0.88916
5.936,0.59351,0.28837,0.069659,1.104,0.88916
5.944,0.57651,0.28543,0.063467,1.1139,0.88916
5.952,0.56105,0.28152,0.063467,1.099,0.88916
5.96,0.54714,0.27761,0.063467,1.104,0.88916
5.968,0.53168,0.2737,0.063467,1.099,0.88916
5.976,0.51468,0.27077,0.063467,1.0941,0.88916
5.984,0.49923,0.26784,0.063467,1.0792,0.88916
5.992,0.48068,0.26491,0.063467,1.0842,0.88916
6,0.46368,0.26197,0.083591,1.0743,0.87931
6.008,0.44822,0.26002,0.11455,1.1188,0.86453
6.016,0.43277,0.25806,0.12848,1.1089,0.84975
6.024,0.41886,0.25709,0.13467,1.1089,0.84483
6.032,0.40495,0.25415,0.15944,1.1188,0.82512
6.04,0.38949,0.25024,0.22446,1.1287,0.76601
6.048,0.37403,0.24829,0.25387,1.0644,0.73399
6.056,0.35858,0.24927,0.2291,1.0347,0.75616
6.064,0.34467,0.25513,0.20433,1.0099,0.77094
6.072,0.32921,0.26979,0.17957,1.0297,0.79557
6.08,0.31376,0.29521,0.12384,1.0446,0.83498
6.088,0.29985,0.33236,0.063467,1.0347,0.88424
6.096,0.28594,0.3783,0.029412,1.0396,0.90887
6.104,0.27357,0.43206,0.02322,1.0248,0.91379
6.112,0.26121,0.48094,0.029412,1.0297,0.90887
6.12,0.25039,0.5259,0.034056,1.0248,0.90887
6.128,0.24111,0.5738,0.034056,1.0396,0.90394
6.136,0.23029,0.61877,0.0387,1.0297,0.89901
6.144,0.22102,0.65494,0.0387,1.0446,0.90887
6.152,0.21175,0.68328,0.0387,1.0297,0.89901
6.16,0.20247,0.70088,0.0387,1.0396,0.90887
6.168,0.19474,0.70968,0.0387,1.0347,0.89901
6.176,0.18547,0.70968,0.034056,1.0495,0.90394
6.184,0.17774,0.70381,-0.071207,1.1337,0.95567
6.192,0.17156,0.6911,-0.17183,1.3168,0.9803
6.2,0.16383,0.67449,-0.19195,1.4356,0.88424
6.208,0.15765,0.65396,0.15944,0.81683,0.52463
6.216,0.15147,0.63343,0.70588,-0.22277,0.0098522
6.224,0.14374,0.6129,1.0464,-0.64851,-0.23399
6.232,0.13756,0.59042,1.1765,-0.65347,-0.11084
6.24,0.13138,0.56598,1.031,-0.17327,0.20936
6.248,0.12519,0.54057,0.82508,0.20792,0.45567
6.256,0.11901,0.51515,0.39009,0.68317,0.77094
6.264,0.11283,0.49071,0.094427,0.98515,0.95074
6.272,0.10819,0.46628,-0.03096,1.1386,1.0296
6.28,0.1051,0.44379,-0.082043,1.1832,1.0542
6.288,0.10046,0.42326,-0.091331,1.2277,1.064
6.296,0.097372,0.40567,-0.091331,1.2376,1.0591
6.304,0.092736,0.39101,-0.091331,1.2327,1.0591
6.312,0.089645,0.37928,-0.091331,1.2475,1.064
6.32,0.085008,0.37048,-0.091331,1.2426,1.0591
6.328,0.081917,0.36364,-0.086687,1.2624,1.0542
6.336,0.080371,0.35777,-0.075851,1.2673,1.0542
6.344,0.07728,0.35288,-0.071207,1.2822,1.0443
6.352,0.075734,0.35093,-0.06192,1.2822,1.0394
6.36,0.074189,0.34897,-0.051084,1.3069,1.0345
6.368,0.072643,0.348,-0.041796,1.3168,1.0246
6.376,0.072643,0.348,-0.03096,1.3366,1.0148
6.384,0.071097,0.348,-0.01548,1.3564,1.0099
6.392,0.071097,0.34897,-0.0061919,1.3812,1
6.4,0.069552,0.34897,0.004644,1.3861,0.99507
6.408,0.069552,0.348,0.013932,1.4059,0.98522
6.416,0.069552,0.348,0.029412,1.401,0.97537
6.424,0.069552,0.34702,0.043344,1.4158,0.96552
6.432,0.069552,0.34604,0.049536,1.401,0.95567
6.44,0.069552,0.34506,0.063467,1.396,0.94581
6.448,0.069552,0.34409,0.069659,1.3762,0.93103
6.456,0.069552,0.34311,0.089783,1.3663,0.91379
6.464,0.069552,0.34115,0.10372,1.3366,0.89409
6.472,0.069552,0.3392,0.12384,1.3119,0.88424
6.48,0.071097,0.33627,0.13467,1.2673,0.85961
6.488,0.071097,0.33236,0.13932,1.2376,0.85468
6.496,0.071097,0.32845,0.13467,1.203,0.84483
6.504,0.071097,0.32356,0.13467,1.1733,0.84483
6.512,0.072643,0.31965,0.12384,1.1436,0.84483
6.52,0.071097,0.31574,0.11455,1.1238,0.85468
6.528,0.071097,0.31183,0.10372,1.1089,0.86453
6.536,0.071097,0.30694,0.094427,1.099,0.86946
6.544,0.071097,0.30303,0.083591,1.104,0.87931
6.552,0.069552,0.29912,0.078947,1.0891,0.87931
6.56,0.068006,0.29521,0.074303,1.099,0.88424
6.568,0.066461,0.2913,0.069659,1.0842,0.88424
6.576,0.063369,0.28739,0.063467,1.099,0.88916
6.584,0.061824,0.28446,0.063467,1.0941,0.88916
6.592,0.058733,0.28055,0.063467,1.1139,0.88916
6.6,0.055641,0.27664,0.063467,1.1089,0.88916
6.608,0.054096,0.27273,0.063467,1.1188,0.89409
6.616,0.049459,0.27077,0.058824,1.1089,0.89409
6.624,0.046368,0.26979,0.063467,1.1188,0.89409
6.632,0.043277,0.26784,0.05418,1.1139,0.89409
6.64,0.03864,0.26686,0.05418,1.1238,0.89409
6.648,0.035549,0.26491,0.05418,1.1089,0.89409
6.656,0.030912,0.26393,0.05418,1.1188,0.89409
6.664,0.027821,0.26295,0.049536,1.099,0.89409
6.672,0.023184,0.261,0.05418,1.104,0.89409
6.68,0.020093,0.25806,0.05418,1.0891,0.89409
6.688,0.015456,0.25611,0.063467,1.099,0.88916
6.696,0.010819,0.25318,0.078947,1.104,0.87438
6.704,0.007728,0.25122,0.10836,1.1188,0.86453
6.712,0.0030912,0.24927,0.1192,1.104,0.84975
6.72,-0.0015456,0.24829,0.12848,1.0941,0.84483
6.728,-0.0061824,0.24633,0.16873,1.1238,0.81527
6.736,-0.010819,0.24438,0.23375,1.0941,0.76108
6.744,-0.015456,0.24438,0.2291,1.0446,0.74877
6.752,-0.018547,0.24927,0.20433,1.0099,0.77094
6.76,-0.021638,0.26197,0.18885,1.0149,0.78079
6.768,-0.023184,0.28446,0.1548,1.0347,0.81034
6.776,-0.026275,0.31867,0.089783,1.0495,0.86453
6.784,-0.027821,0.36364,0.034056,1.0248,0.90394
6.792,-0.029366,0.41935,0.018576,1.0248,0.91872
6.8,-0.030912,0.47898,0.013932,1.0248,0.91872
6.808,-0.032458,0.54057,0.018576,1.0297,0.92611
6.816,-0.034003,0.5914,0.018576,1.0248,0.91379
6.824,-0.034003,0.63343,0.018576,1.0297,0.91379
6.832,-0.035549,0.67351,0.02322,1.0248,0.91379
6.84,-0.037094,0.70674,0.029412,1.0396,0.91379
6.848,-0.03864,0.73021,0.029412,1.0347,0.91379
6.856,-0.040185,0.74389,0.034056,1.0396,0.91379
6.864,-0.041731,0.74878,0.034056,1.0347,0.90887
6.872,-0.043277,0.74487,-0.0061919,1.0792,0.92611
6.88,-0.044822,0.73509,-0.13158,1.1931,0.97537
6.888,-0.046368,0.72043,-0.19195,1.3812,0.94089
6.896,-0.047913,0.70186,-0.086687,1.4307,0.77586
6.904,-0.047913,0.68231,0.37461,0.31188,0.30049
6.912,-0.049459,0.66276,0.87616,-0.52475,-0.14532
6.92,-0.049459,0.64321,1.096,-0.69307,-0.22906
6.928,-0.049459,0.6217,1.1517,-0.35149,0.068966
6.936,-0.049459,0.59824,0.93653,-0.039604,0.32512
6.944,-0.047913,0.5738,0.64551,0.42574,0.59113
6.952,-0.047913,0.54936,0.23375,0.83168,0.86946
6.96,-0.046368,0.52395,0.02322,1.0792,0.99015
6.968,-0.044822,0.49951,-0.055728,1.1584,1.0394
6.976,-0.043277,0.47703,-0.082043,1.203,1.0542
6.984,-0.041731,0.45552,-0.091331,1.2178,1.0591
6.992,-0.040185,0.43695,-0.086687,1.2376,1.0591
7,-0.03864,0.42033,-0.086687,1.2376,1.0542
7.008,-0.037094,0.40665,-0.075851,1.2475,1.0542
7.016,-0.035549,0.39589,-0.082043,1.2426,1.0493
7.024,-0.034003,0.3871,-0.075851,1.2673,1.0542
7.032,-0.030912,0.38025,-0.071207,1.2673,1.0443
7.04,-0.027821,0.37634,-0.06192,1.2871,1.0394
7.048,-0.02473,0.37341,-0.055728,1.2921,1.0345
7.056,-0.020093,0.37243,-0.04644,1.3119,1.0296
7.064,-0.017002,0.37341,-0.03096,1.3218,1.0148
7.072,-0.012365,0.37439,-0.026316,1.3515,1.0148
7.08,-0.0092736,0.37537,-0.010836,1.3564,1.0049
7.088,-0.0046368,0.37634,-0.001548,1.3812,1
7.096,-0.0015456,0.37732,0.013932,1.3911,0.98522
7.104,0.0030912,0.3783,0.02322,1.4059,0.9803
7.112,0.0061824,0.3783,0.034056,1.4109,0.97044
7.12,0.0092736,0.3783,0.043344,1.401,0.96552
7.128,0.01391,0.37732,0.058824,1.396,0.95074
7.136,0.017002,0.37634,0.074303,1.3861,0.94089
7.144,0.020093,0.37537,0.089783,1.3762,0.92611
7.152,0.023184,0.37439,0.10372,1.3564,0.90887
7.16,0.027821,0.37243,0.11455,1.3267,0.89409
7.168,0.030912,0.37048,0.12384,1.2921,0.87931
7.176,0.034003,0.36755,0.12848,1.2624,0.86453
7.184,0.037094,0.36461,0.13467,1.2228,0.85961
7.192,0.040185,0.36168,0.12384,1.1931,0.85468
7.2,0.041731,0.35679,0.11455,1.1535,0.85961
7.208,0.043277,0.35288,0.11455,1.1386,0.86453
7.216,0.044822,0.34995,0.099071,1.1089,0.86946
7.224,0.046368,0.34604,0.089783,1.1089,0.87931
7.232,0.047913,0.34213,0.074303,1.0941,0.88916
7.24,0.047913,0.34018,0.063467,1.099,0.89409
7.248,0.049459,0.33627,0.063467,1.0842,0.89409
7.256,0.049459,0.33333,0.063467,1.0941,0.89409
7.264,0.049459,0.3304,0.05418,1.0891,0.89409
7.272,0.047913,0.32747,0.058824,1.099,0.89409
7.28,0.047913,0.32454,0.058824,1.099,0.89901
7.288,0.046368,0.3216,0.05418,1.104,0.89901
7.296,0.044822,0.31867,0.049536,1.099,0.90394
7.304,0.044822,0.31476,0.043344,1.104,0.90394
7.312,0.043277,0.31281,0.0387,1.1089,0.90394
7.32,0.040185,0.31085,0.0387,1.099,0.90394
7.328,0.03864,0.30792,0.0387,1.1139,0.90394
7.336,0.035549,0.30499,0.0387,1.099,0.90887
7.344,0.032458,0.30303,0.043344,1.1089,0.90394
7.352,0.029366,0.3001,0.043344,1.099,0.90394
7.36,0.026275,0.29717,0.0387,1.0891,0.90887
7.368,0.023184,0.29423,0.0387,1.0842,0.90394
7.376,0.020093,0.29228,0.043344,1.0792,0.90887
7.384,0.018547,0.29032,0.058824,1.0743,0.89409
7.392,0.015456,0.28739,0.089783,1.1089,0.87931
7.4,0.01391,0.28446,0.10836,1.099,0.86946
7.408,0.010819,0.2825,0.11455,1.099,0.85961
7.416,0.0092736,0.27957,0.13932,1.1139,0.8399
7.424,0.0061824,0.27664,0.20898,1.1188,0.78571
7.432,0.0046368,0.2737,0.23375,1.0545,0.74877
7.44,0.0015456,0.27468,0.21362,1.0248,0.77094
7.448,0,0.28055,0.18421,0.9901,0.78079
7.456,-0.0015456,0.29423,0.16409,1.0198,0.80049
7.464,-0.0030912,0.31867,0.11455,1.0297,0.84975
7.472,-0.0046368,0.35386,0.05418,1.0248,0.89901
7.48,-0.0061824,0.39785,0.013932,1.0149,0.91872
7.488,-0.0061824,0.44966,0.004644,1.0198,0.93103
7.496,-0.0061824,0.50342,0.004644,1.0149,0.92611
7.504,-0.0061824,0.55718,0.013932,1.0248,0.92611
7.512,-0.007728,0.60117,0.018576,1.0198,0.91379
7.52,-0.007728,0.63539,0.02322,1.0248,0.91379
7.528,-0.007728,0.66667,0.029412,1.0297,0.91379
7.536,-0.007728,0.6911,0.034056,1.0248,0.90887
7.544,-0.007728,0.70772,0.034056,1.0347,0.91379
7.552,-0.007728,0.71652,0.034056,1.0248,0.90887
7.56,-0.0061824,0.71848,0.0092879,1.0495,0.91379
7.568,-0.0061824,0.71359,-0.10681,1.1535,0.97044
7.576,-0.0046368,0.70381,-0.18731,1.3218,0.9803
7.584,-0.0030912,0.68915,-0.19659,1.401,0.84975
7.592,-0.0015456,0.67058,0.20433,0.64851,0.46059
7.6,0,0.65103,0.73065,-0.33663,-0.029557
7.608,0.0030912,0.63245,1.0418,-0.69802,-0.22906
7.616,0.0046368,0.6129,1.1316,-0.46535,-0.049261
7.624,0.0061824,0.59238,0.98142,-0.15842,0.25616
7.632,0.007728,0.56989,0.75542,0.27228,0.5
7.64,0.010819,0.54839,0.33901,0.72277,0.80049
7.648,0.012365,0.5259,0.063467,1.0149,0.96059
7.656,0.015456,0.50342,-0.04644,1.1485,1.0345
7.664,0.017002,0.48094,-0.091331,1.1832,1.0542
7.672,0.020093,0.46041,-0.095975,1.2277,1.069
7.68,0.023184,0.44086,-0.10062,1.2327,1.069
7.688,0.026275,0.42424,-0.095975,1.2376,1.064
7.696,0.029366,0.40958,-0.095975,1.2426,1.064
7.704,0.032458,0.39785,-0.095975,1.2574,1.0591
7.712,0.035549,0.39003,-0.086687,1.2574,1.0542
7.72,0.03864,0.38319,-0.075851,1.2723,1.0542
7.728,0.041731,0.37928,-0.071207,1.2822,1.0443
7.736,0.043277,0.37634,-0.066563,1.2871,1.0394
7.744,0.046368,0.37439,-0.055728,1.302,1.0296
7.752,0.049459,0.37243,-0.04644,1.3168,1.0246
7.76,0.05255,0.37243,-0.035604,1.3366,1.0148
7.768,0.055641,0.37243,-0.021672,1.3564,1.0099
7.776,0.058733,0.37341,-0.010836,1.3812,1.0049
7.784,0.061824,0.37439,-0.0061919,1.3812,0.99507
7.792,0.064915,0.37537,0.0092879,1.401,0.98522
7.8,0.068006,0.37634,0.02322,1.396,0.97537
7.808,0.071097,0.37732,0.034056,1.401,0.97044
7.816,0.074189,0.37634,0.049536,1.3812,0.95567
7.824,0.078825,0.37634,0.063467,1.3812,0.94089
7.832,0.083462,0.37439,0.074303,1.3663,0.93103
7.84,0.088099,0.37243,0.089783,1.3515,0.91872
7.848,0.092736,0.3695,0.099071,1.3168,0.89901
7.856,0.097372,0.36559,0.11455,1.302,0.88916
7.864,0.10201,0.36266,0.1192,1.2525,0.86946
7.872,0.10665,0.35973,0.12384,1.2327,0.86946
7.88,0.10974,0.35582,0.11455,1.1832,0.86453
7.888,0.11437,0.35191,0.11455,1.1584,0.86453
7.896,0.11747,0.348,0.099071,1.1238,0.86946
7.904,0.12056,0.34409,0.089783,1.1139,0.87438
7.912,0.1221,0.34115,0.074303,1.0941,0.87931
7.92,0.12519,0.33822,0.063467,1.0891,0.88916
7.928,0.12674,0.33431,0.058824,1.0792,0.89409
7.936,0.12828,0.33138,0.05418,1.0842,0.89409
7.944,0.12983,0.32747,0.049536,1.0891,0.89901
7.952,0.12983,0.32454,0.0387,1.0792,0.90394
7.96,0.12983,0.32063,0.0387,1.0941,0.91379
7.968,0.12983,0.31769,0.0387,1.0891,0.91379
7.976,0.12828,0.31574,0.0387,1.099,0.90887
7.984,0.12674,0.31281,0.0387,1.099,0.90887
7.992,0.12519,0.30987,0.034056,1.1089,0.91379
8,0.1221,0.30792,0.029412,1.099,0.91379
8.008,0.11747,0.30596,0.02322,1.1139,0.91379
8.016,0.11437,0.30401,0.029412,1.104,0.91379
8.024,0.11128,0.30205,0.02322,1.1188,0.91379
8.032,0.10819,0.3001,0.018576,1.099,0.91379
8.04,0.1051,0.29717,0.018576,1.104,0.91872
8.048,0.10201,0.29326,0.018576,1.099,0.91379
8.056,0.098918,0.29032,0.029412,1.099,0.91379
8.064,0.095827,0.28739,0.034056,1.0792,0.91379
8.072,0.092736,0.28348,0.043344,1.099,0.90394
8.08,0.09119,0.28055,0.069659,1.1139,0.89409
8.088,0.089645,0.27664,0.094427,1.1188,0.88424
8.096,0.088099,0.2737,0.099071,1.104,0.87438
8.104,0.088099,0.27077,0.12384,1.1287,0.85468
8.112,0.088099,0.26882,0.19505,1.104,0.78571
8.12,0.089645,0.26882,0.21362,1.0644,0.76601
8.128,0.09119,0.26979,0.18885,1.0248,0.78571
8.136,0.094281,0.27468,0.16873,1,0.79557
8.144,0.097372,0.28543,0.14396,1.0248,0.81527
8.152,0.10355,0.30694,0.078947,1.0396,0.87438
8.16,0.10974,0.33724,0.018576,1.0297,0.91872
8.168,0.11747,0.37928,-0.010836,1.0198,0.94089
8.176,0.12674,0.42815,-0.01548,1.0248,0.94581
8.184,0.13447,0.48289,-0.010836,1.0099,0.94089
8.192,0.14374,0.53861,-0.0061919,1.0248,0.94089
8.2,0.15301,0.5914,-0.010836,1.0198,0.94089
8.208,0.16383,0.63245,-0.0061919,1.0297,0.94089
8.216,0.17465,0.66276,-0.001548,1.0248,0.93596
8.224,0.18702,0.69013,0.004644,1.0396,0.94089
8.232,0.20093,0.71065,-0.001548,1.0248,0.93596
8.24,0.21638,0.72239,0.0092879,1.0347,0.94089
8.248,0.22875,0.72532,-0.01548,1.0297,0.93596
8.256,0.24266,0.72239,-0.13158,1.1535,0.99015
8.264,0.25657,0.71359,-0.20124,1.3069,0.99507
8.272,0.27048,0.6999,-0.14706,1.4257,0.86946
8.28,0.28594,0.68426,0.26935,0.69307,0.45567
8.288,0.30294,0.66569,0.78638,-0.23762,0
8.296,0.31994,0.64516,1.0712,-0.60891,-0.18473
8.304,0.33849,0.62463,1.161,-0.37624,0.0049261
8.312,0.35703,0.60411,0.98142,-0.13366,0.28571
8.32,0.37713,0.58456,0.6904,0.30693,0.55911
8.328,0.39722,0.56305,0.24458,0.72772,0.86453
8.336,0.41731,0.53959,0.004644,1.0149,1.0099
8.344,0.43431,0.51711,-0.095975,1.1287,1.0591
8.352,0.45286,0.4956,-0.13158,1.1733,1.0788
8.36,0.46986,0.4741,-0.13158,1.198,1.0837
8.368,0.48686,0.45455,-0.12074,1.2079,1.0788
8.376,0.50386,0.43597,-0.12693,1.2178,1.0788
8.384,0.52241,0.42033,-0.12693,1.2129,1.0788
8.392,0.53941,0.40762,-0.13158,1.2327,1.0788
8.4,0.55641,0.39589,-0.12074,1.2277,1.0739
8.408,0.57187,0.38807,-0.11146,1.2525,1.064
8.416,0.58733,0.38221,-0.10681,1.2475,1.0591
8.424,0.60124,0.3783,-0.095975,1.2723,1.0542
8.432,0.61515,0.37634,-0.091331,1.2723,1.0443
8.44,0.62906,0.37537,-0.075851,1.2921,1.0345
8.448,0.64451,0.37537,-0.055728,1.3069,1.0246
8.456,0.65842,0.37634,-0.051084,1.3317,1.0246
8.464,0.67388,0.37732,-0.035604,1.3366,1.0099
8.472,0.68934,0.3783,-0.026316,1.3564,1.0049
8.48,0.70479,0.3783,-0.0061919,1.3614,0.99015
8.488,0.7187,0.37928,0.004644,1.3713,0.98522
8.496,0.73416,0.37928,0.0092879,1.3564,0.9803
8.504,0.74807,0.37928,0.02322,1.3614,0.97044
8.512,0.76198,0.37928,0.0387,1.3663,0.96059
8.52,0.77434,0.37928,0.049536,1.3416,0.95074
8.528,0.78825,0.37928,0.063467,1.3218,0.93596
8.536,0.80216,0.3783,0.083591,1.302,0.91379
8.544,0.81607,0.37732,0.089783,1.2723,0.89409
8.552,0.82998,0.37634,0.10836,1.2376,0.87931
8.56,0.84389,0.37341,0.11455,1.2079,0.87438
8.568,0.85781,0.37048,0.099071,1.1733,0.86946
8.576,0.87172,0.36755,0.099071,1.1485,0.87438
8.584,0.88408,0.36364,0.083591,1.1238,0.87931
8.592,0.89645,0.3607,0.074303,1.1139,0.88916
8.6,0.90881,0.35777,0.069659,1.099,0.88916
8.608,0.92117,0.35582,0.063467,1.0941,0.89409
8.616,0.93354,0.35386,0.05418,1.0792,0.89409
8.624,0.9459,0.35093,0.043344,1.0941,0.89409
8.632,0.95672,0.348,0.043344,1.0842,0.89901
8.64,0.96754,0.34506,0.043344,1.099,0.90887
8.648,0.97836,0.34213,0.034056,1.0891,0.90887
8.656,0.98918,0.3392,0.034056,1.099,0.91379
8.664,0.99691,0.33724,0.034056,1.0941,0.90887
8.672,1.0062,0.33431,0.0387,1.1089,0.91379
8.68,1.0124,0.33333,0.034056,1.099,0.90887
8.688,1.0185,0.33138,0.02322,1.1089,0.91379
8.696,1.0232,0.3304,0.02322,1.1089,0.91379
8.704,1.0294,0.32942,0.029412,1.1139,0.91379
8.712,1.0325,0.32845,0.02322,1.104,0.91872
8.72,1.0371,0.32649,0.029412,1.104,0.90887
8.728,1.0402,0.32551,0.018576,1.099,0.91379
8.736,1.0433,0.32258,0.018576,1.099,0.92611
8.744,1.0464,0.32063,0.02322,1.0941,0.91379
8.752,1.0479,0.31867,0.034056,1.0891,0.91379
8.76,1.051,0.31672,0.049536,1.1139,0.90394
8.768,1.0526,0.31378,0.074303,1.1188,0.88916
8.776,1.0541,0.31183,0.089783,1.1089,0.87438
8.784,1.0556,0.30987,0.10372,1.099,0.86946
8.792,1.0572,0.30694,0.1548,1.1287,0.82512
8.8,1.0603,0.30401,0.21362,1.0941,0.77094
8.808,1.0618,0.30303,0.20433,1.0545,0.77586
8.816,1.0634,0.30303,0.17492,1.0198,0.79557
8.824,1.0665,0.30694,0.15944,1.0297,0.80542
8.832,1.068,0.31574,0.12848,1.0446,0.83005
8.84,1.0696,0.33431,0.074303,1.0495,0.87438
8.848,1.0711,0.36168,0.013932,1.0297,0.91872
8.856,1.0726,0.40078,-0.001548,1.0347,0.93596
8.864,1.0742,0.4477,-0.0061919,1.0248,0.93103
8.872,1.0757,0.50049,-0.001548,1.0347,0.93596
8.88,1.0788,0.55425,-0.001548,1.0297,0.93103
8.888,1.0804,0.60606,0.004644,1.0396,0.93103
8.896,1.0819,0.65298,0.013932,1.0297,0.91872
8.904,1.0835,0.68719,0.018576,1.0446,0.91872
8.912,1.085,0.71163,0.018576,1.0396,0.91379
8.92,1.0866,0.73118,0.02322,1.0347,0.91379
8.928,1.0881,0.74291,0.018576,1.0495,0.91379
8.936,1.0896,0.74682,-0.026316,1.0446,0.93596
8.944,1.0927,0.74389,-0.14087,1.2079,0.98522
8.952,1.0943,0.73607,-0.18111,1.401,0.93103
8.96,1.0974,0.72239,-0.04644,1.4752,0.76108
8.968,1.0989,0.70479,0.45975,0.42574,0.28079
8.976,1.102,0.68524,0.98142,-0.40594,-0.1601
8.984,1.1036,0.66373,1.1765,-0.57921,-0.22906
8.992,1.1051,0.64027,1.2121,-0.26733,0.091133
9,1.1066,0.61681,0.92105,0.029703,0.36453
9.008,1.1082,0.59531,0.56037,0.4703,0.65025
9.016,1.1082,0.57478,0.17492,0.84158,0.89901
9.024,1.1097,0.5523,-0.010836,1.0842,1.0099
9.032,1.1097,0.52981,-0.082043,1.1535,1.0443
9.04,1.1097,0.50635,-0.10062,1.203,1.064
9.048,1.1082,0.48485,-0.10062,1.2129,1.0542
9.056,1.1066,0.46041,-0.091331,1.2277,1.0542
9.064,1.1036,0.43597,-0.10062,1.2277,1.0591
9.072,1.1005,0.41642,-0.10062,1.2376,1.0591
9.08,1.0943,0.3998,-0.091331,1.2376,1.0493
9.088,1.0896,0.3871,-0.082043,1.2475,1.0443
9.096,1.0819,0.3783,-0.075851,1.2574,1.0394
9.104,1.0742,0.37146,-0.071207,1.2673,1.0345
9.112,1.0649,0.36755,-0.06192,1.2772,1.0246
9.12,1.0541,0.36559,-0.051084,1.297,1.0246
9.128,1.0433,0.36461,-0.035604,1.3069,1.0099
9.136,1.0325,0.36364,-0.026316,1.3267,1.0099
9.144,1.0216,0.36364,-0.010836,1.3416,0.99507
9.152,1.0093,0.36364,-0.001548,1.3614,0.98522
9.16,0.99845,0.36364,0.0092879,1.3812,0.98522
9.168,0.98609,0.36364,0.018576,1.3861,0.9803
9.176,0.97372,0.36364,0.034056,1.396,0.96552
9.184,0.96136,0.36364,0.0387,1.3812,0.95567
9.192,0.94745,0.36266,0.05418,1.3861,0.94581
9.2,0.93509,0.36168,0.063467,1.3614,0.93596
9.208,0.92272,0.3607,0.083591,1.3564,0.91872
9.216,0.91036,0.35973,0.094427,1.3267,0.90394
9.224,0.89799,0.35777,0.11455,1.3069,0.88916
9.232,0.88563,0.35582,0.12848,1.2723,0.86946
9.24,0.87481,0.35191,0.13467,1.2475,0.85468
9.248,0.86244,0.34897,0.13467,1.2079,0.84483
9.256,0.85162,0.34409,0.13467,1.1832,0.84975
9.264,0.83926,0.3392,0.12848,1.1436,0.84483
9.272,0.82689,0.33333,0.11455,1.1337,0.85468
9.28,0.81453,0.32747,0.10372,1.1139,0.85961
9.288,0.80216,0.32258,0.099071,1.1188,0.86946
9.296,0.78825,0.31672,0.089783,1.1089,0.86946
9.304,0.77589,0.31281,0.083591,1.104,0.88424
9.312,0.76352,0.30987,0.074303,1.1139,0.88916
9.32,0.7527,0.30694,0.074303,1.104,0.88916
9.328,0.74034,0.30401,0.069659,1.1089,0.88916
9.336,0.72643,0.30108,0.074303,1.099,0.88424
9.344,0.71252,0.29814,0.069659,1.1139,0.88916
9.352,0.69861,0.29521,0.063467,1.104,0.88916
9.36,0.68315,0.29228,0.063467,1.1188,0.88916
9.368,0.66924,0.28935,0.063467,1.1089,0.89409
9.376,0.65379,0.28641,0.058824,1.1188,0.89409
9.384,0.63988,0.28348,0.058824,1.1139,0.89409
9.392,0.62751,0.27957,0.058824,1.1238,0.89901
9.4,0.61206,0.27664,0.058824,1.1188,0.89409
9.408,0.5966,0.2737,0.063467,1.1139,0.88916
9.416,0.5796,0.27175,0.058824,1.099,0.88424
9.424,0.56414,0.26882,0.063467,1.104,0.88916
9.432,0.5456,0.26588,0.058824,1.099,0.88424
9.44,0.52859,0.26393,0.069659,1.104,0.87931
9.448,0.51005,0.261,0.094427,1.1188,0.86946
9.456,0.49304,0.25806,0.1192,1.1337,0.84975
9.464,0.47604,0.25611,0.12848,1.104,0.84483
9.472,0.46059,0.25318,0.14396,1.1337,0.84483
9.48,0.44513,0.24927,0.19505,1.1386,0.79064
9.488,0.42968,0.24633,0.25387,1.099,0.74384
9.496,0.41267,0.2434,0.2291,1.0446,0.74877
9.504,0.39722,0.2434,0.20433,1.0248,0.77586
9.512,0.38022,0.24633,0.17957,1.0248,0.79064
9.52,0.36321,0.25611,0.14396,1.0545,0.82512
9.528,0.34776,0.27566,0.078947,1.0396,0.87438
9.536,0.3323,0.30499,0.034056,1.0297,0.90887
9.544,0.31994,0.34409,0.018576,1.0396,0.91379
9.552,0.30603,0.39394,0.02322,1.0297,0.91872
9.56,0.29212,0.44868,0.029412,1.0396,0.91379
9.568,0.27821,0.50538,0.02322,1.0297,0.91379
9.576,0.2643,0.55914,0.034056,1.0495,0.91379
9.584,0.25039,0.60606,0.0387,1.0396,0.90887
9.592,0.23648,0.64418,0.0387,1.0495,0.91379
9.6,0.22257,0.67253,0.0387,1.0495,0.90887
9.608,0.2102,0.69013,0.0387,1.0545,0.91379
9.616,0.19629,0.69697,0.029412,1.0495,0.90887
9.624,0.18393,0.69892,-0.066563,1.1436,0.95567
9.632,0.17311,0.69404,-0.17647,1.297,0.9803
9.64,0.16229,0.68426,-0.19659,1.4554,0.90887
9.648,0.15147,0.6696,0.094427,0.92079,0.58621
9.656,0.14219,0.65103,0.61455,-0.089109,0.091133
9.664,0.13292,0.6305,0.99536,-0.62376,-0.20936
9.672,0.12365,0.60899,1.1718,-0.65347,-0.22906
9.68,0.11592,0.58553,1.0464,-0.21287,0.18473
9.688,0.10819,0.56207,0.85139,0.17327,0.43103
9.696,0.10201,0.53861,0.43034,0.63366,0.73892
9.704,0.095827,0.51808,0.12384,0.9604,0.94089
9.712,0.089645,0.49756,-0.026316,1.1287,1.0197
9.72,0.083462,0.47605,-0.075851,1.1832,1.0493
9.728,0.078825,0.45455,-0.095975,1.2129,1.0591
9.736,0.074189,0.43304,-0.091331,1.2327,1.064
9.744,0.069552,0.41349,-0.095975,1.2376,1.064
9.752,0.066461,0.39589,-0.091331,1.2475,1.0591
9.76,0.061824,0.38123,-0.086687,1.2525,1.0591
9.768,0.058733,0.37048,-0.086687,1.2574,1.0542
9.776,0.057187,0.36168,-0.075851,1.2723,1.0542
9.784,0.054096,0.35582,-0.071207,1.2772,1.0443
9.792,0.05255,0.35093,-0.071207,1.297,1.0443
9.8,0.051005,0.348,-0.06192,1.2921,1.0394
9.808,0.049459,0.34702,-0.051084,1.3218,1.0345
9.816,0.047913,0.34702,-0.041796,1.3317,1.0246
9.824,0.046368,0.34702,-0.026316,1.3614,1.0148
9.832,0.044822,0.348,-0.01548,1.3713,1.0099
9.84,0.044822,0.34897,-0.001548,1.401,1
9.848,0.043277,0.34995,0.013932,1.401,0.98522
9.856,0.041731,0.34995,0.02322,1.4208,0.98522
9.864,0.040185,0.34995,0.029412,1.4059,0.97044
9.872,0.040185,0.34995,0.0387,1.4109,0.96552
9.88,0.03864,0.34897,0.049536,1.396,0.95567
9.888,0.03864,0.348,0.069659,1.396,0.94581
9.896,0.037094,0.34702,0.083591,1.3713,0.92611
9.904,0.037094,0.34604,0.10372,1.3564,0.91379
9.912,0.037094,0.34506,0.11455,1.3119,0.89409
9.92,0.037094,0.34409,0.1192,1.2822,0.87931
9.928,0.035549,0.34115,0.12384,1.2426,0.86946
9.936,0.035549,0.33822,0.12848,1.2129,0.86946
9.944,0.035549,0.33529,0.11455,1.1733,0.86946
9.952,0.035549,0.33138,0.11455,1.1485,0.86453
9.96,0.035549,0.32845,0.099071,1.1287,0.86946
9.968,0.035549,0.32551,0.089783,1.1139,0.86946
9.976,0.034003,0.32063,0.074303,1.104,0.88424
9.984,0.034003,0.31672,0.063467,1.0941,0.88916
9.992,0.032458,0.31183,0.063467,1.099,0.89409
10,0.030912,0.30792,0.063467,1.0842,0.89409
10.008,0.029366,0.30499,0.058824,1.0891,0.89409
10.016,0.027821,0.30205,0.05418,1.0792,0.89409
10.024,0.026275,0.29912,0.05418,1.099,0.89901
10.032,0.026275,0.29619,0.043344,1.099,0.89901
10.04,0.023184,0.29423,0.0387,1.1089,0.90887
10.048,0.020093,0.29228,0.0387,1.099,0.90887
10.056,0.015456,0.28935,0.0387,1.1188,0.91379
10.064,0.012365,0.28739,0.0387,1.1089,0.90887
10.072,0.0061824,0.28543,0.0387,1.1188,0.91379
10.08,0.0015456,0.2825,0.029412,1.1089,0.90887
10.088,-0.0046368,0.27957,0.0387,1.1188,0.91379
10.096,-0.010819,0.27566,0.034056,1.104,0.91379
10.104,-0.017002,0.2737,0.029412,1.099,0.91379
10.112,-0.021638,0.27175,0.029412,1.104,0.91379
10.12,-0.027821,0.26979,0.049536,1.099,0.90394
10.128,-0.032458,0.26784,0.074303,1.1337,0.88424
10.136,-0.037094,0.26491,0.094427,1.1188,0.87438
10.144,-0.041731,0.26197,0.094427,1.104,0.86946
10.152,-0.046368,0.25904,0.12848,1.1287,0.84975
10.16,-0.049459,0.25611,0.19505,1.1337,0.79064
10.168,-0.054096,0.25318,0.21362,1.0693,0.76601
10.176,-0.057187,0.25122,0.19505,1.0297,0.78079
10.184,-0.061824,0.25122,0.17492,1,0.79064
10.192,-0.064915,0.25415,0.14396,1.0248,0.81034
10.2,-0.068006,0.26393,0.094427,1.0396,0.85961
10.208,-0.069552,0.27761,0.0387,1.0248,0.90394
10.216,-0.072643,0.29912,0.004644,1.0248,0.93103
10.224,-0.075734,0.33333,-0.001548,1.0297,0.94089
10.232,-0.07728,0.37928,-0.001548,1.0248,0.93596
10.24,-0.080371,0.43206,0.004644,1.0248,0.94089
10.248,-0.081917,0.48876,-0.001548,1.0198,0.93103
10.256,-0.085008,0.54448,0.0092879,1.0347,0.93103
10.264,-0.086553,0.59629,0.0092879,1.0248,0.93103
10.272,-0.086553,0.64027,0.013932,1.0347,0.92611
10.28,-0.088099,0.67449,0.013932,1.0248,0.92611
10.288,-0.089645,0.69892,0.018576,1.0396,0.92611
10.296,-0.089645,0.71359,-0.0061919,1.0446,0.93103
10.304,-0.089645,0.71848,-0.12074,1.1683,0.98522
10.312,-0.09119,0.7175,-0.20124,1.3317,0.99015
10.32,-0.09119,0.71065,-0.21672,1.4208,0.85961
10.328,-0.09119,0.69892,0.21981,0.57921,0.44089
10.336,-0.09119,0.68231,0.73065,-0.36634,-0.034483
10.344,-0.089645,0.66373,1.031,-0.69307,-0.21429
10.352,-0.089645,0.64223,1.1207,-0.43069,-0.019704
10.36,-0.089645,0.62072,0.9613,-0.14356,0.27586
10.368,-0.089645,0.59726,0.71981,0.30693,0.52956
10.376,-0.088099,0.5738,0.30031,0.74257,0.82512
10.384,-0.088099,0.54936,0.0387,1.0297,0.98522
10.392,-0.086553,0.52493,-0.066563,1.1485,1.0493
10.4,-0.085008,0.50049,-0.10681,1.1931,1.069
10.408,-0.081917,0.47898,-0.11146,1.2277,1.0788
10.416,-0.080371,0.45943,-0.10681,1.2327,1.0788
10.424,-0.07728,0.43891,-0.11146,1.2475,1.0788
10.432,-0.075734,0.41935,-0.11146,1.2426,1.0788
10.44,-0.072643,0.40274,-0.10681,1.2624,1.0788
10.448,-0.069552,0.38807,-0.10062,1.2574,1.069
10.456,-0.066461,0.37537,-0.10062,1.2822,1.069
10.464,-0.063369,0.36657,-0.095975,1.2822,1.0591
10.472,-0.060278,0.3607,-0.082043,1.302,1.0542
10.48,-0.057187,0.35582,-0.075851,1.3069,1.0443
10.488,-0.054096,0.35288,-0.06192,1.3317,1.0394
10.496,-0.049459,0.35093,-0.051084,1.3416,1.0296
10.504,-0.046368,0.35093,-0.03096,1.3762,1.0246
10.512,-0.041731,0.35093,-0.026316,1.3812,1.0148
10.52,-0.03864,0.35191,-0.0061919,1.401,1.0099
10.528,-0.034003,0.35191,-0.001548,1.4059,0.99507
10.536,-0.030912,0.35288,0.0092879,1.401,0.99015
10.544,-0.026275,0.35288,0.02322,1.4158,0.9803
10.552,-0.021638,0.35386,0.0387,1.401,0.97044
10.56,-0.017002,0.35288,0.043344,1.396,0.96059
10.568,-0.012365,0.35191,0.058824,1.3812,0.94581
10.576,-0.007728,0.35093,0.074303,1.3713,0.93103
10.584,-0.0030912,0.348,0.089783,1.3317,0.91379
10.592,0.0015456,0.34506,0.099071,1.3069,0.89409
10.6,0.0061824,0.34213,0.10372,1.2673,0.88424
10.608,0.010819,0.3392,0.11455,1.2426,0.86946
10.616,0.01391,0.33627,0.11455,1.203,0.86946
10.624,0.017002,0.33333,0.10836,1.1733,0.86946
10.632,0.020093,0.3304,0.094427,1.1386,0.86946
10.64,0.023184,0.32747,0.083591,1.1287,0.87931
10.648,0.026275,0.32356,0.069659,1.099,0.88424
10.656,0.027821,0.31965,0.063467,1.104,0.89409
10.664,0.030912,0.31476,0.05418,1.0891,0.89409
10.672,0.032458,0.31085,0.049536,1.0941,0.90394
10.68,0.034003,0.30792,0.043344,1.0891,0.90394
10.688,0.035549,0.30401,0.049536,1.099,0.90887
10.696,0.035549,0.30108,0.0387,1.0941,0.91379
10.704,0.037094,0.29814,0.043344,1.104,0.91379
10.712,0.035549,0.29521,0.0387,1.1089,0.90887
10.72,0.035549,0.29326,0.0387,1.104,0.91379
10.728,0.035549,0.2913,0.034056,1.1188,0.91379
10.736,0.034003,0.28837,0.0387,1.1139,0.91379
10.744,0.032458,0.28641,0.0387,1.1238,0.91379
10.752,0.030912,0.28348,0.0387,1.1188,0.91379
10.76,0.029366,0.28055,0.029412,1.1238,0.91379
10.768,0.027821,0.27761,0.029412,1.1089,0.91872
10.776,0.02473,0.27468,0.029412,1.1188,0.91379
10.784,0.023184,0.27175,0.02322,1.099,0.91379
10.792,0.020093,0.26882,0.043344,1.1188,0.90887
10.8,0.017002,0.26588,0.069659,1.1287,0.89409
10.808,0.015456,0.26491,0.089783,1.1386,0.87931
10.816,0.012365,0.26197,0.099071,1.1089,0.86946
10.824,0.0092736,0.25904,0.12384,1.1386,0.85961
10.832,0.0061824,0.25611,0.17957,1.1238,0.80049
10.84,0.0046368,0.25318,0.20898,1.0891,0.77586
10.848,0.0015456,0.25024,0.18421,1.0347,0.78079
10.856,-0.0015456,0.24829,0.16409,1.0248,0.80049
10.864,-0.0046368,0.24927,0.14396,1.0198,0.81527
10.872,-0.0061824,0.25415,0.10372,1.0545,0.85961
10.88,-0.0092736,0.26588,0.0387,1.0347,0.90394
10.888,-0.012365,0.28837,-0.001548,1.0396,0.94089
10.896,-0.01391,0.32258,-0.01548,1.0248,0.94581
10.904,-0.017002,0.35973,-0.0061919,1.0347,0.94089
10.912,-0.018547,0.40078,-0.010836,1.0248,0.94581
10.92,-0.018547,0.45357,-0.0061919,1.0347,0.94089
10.928,-0.020093,0.51026,-0.010836,1.0248,0.94581
10.936,-0.020093,0.56696,-0.001548,1.0297,0.94089
10.944,-0.020093,0.61877,0.004644,1.0396,0.93596
10.952,-0.020093,0.66178,0.004644,1.0297,0.94089
10.96,-0.021638,0.69501,0.013932,1.0495,0.93596
10.968,-0.021638,0.7175,-0.001548,1.0396,0.93596
10.976,-0.021638,0.72923,-0.12074,1.1485,0.99015
10.984,-0.020093,0.73216,-0.21207,1.3119,1.0049
10.992,-0.020093,0.72825,-0.22136,1.4307,0.89901
11,-0.018547,0.71945,0.18421,0.73762,0.5
11.008,-0.017002,0.70577,0.71053,-0.22277,0.014778
11.016,-0.015456,0.69013,1.0263,-0.64851,-0.19951
11.024,-0.012365,0.67058,1.1362,-0.43564,-0.034483
11.032,-0.010819,0.65005,0.98142,-0.16832,0.26601
11.04,-0.007728,0.62757,0.73065,0.26733,0.52956
11.048,-0.0030912,0.60411,0.30031,0.70297,0.8399
11.056,0,0.58065,0.029412,1.0099,1
11.064,0.0046368,0.55621,-0.086687,1.1337,1.064
11.072,0.007728,0.53177,-0.12693,1.1832,1.0911
11.08,0.010819,0.50733,-0.13158,1.203,1.0961
11.088,0.015456,0.48289,-0.12074,1.2277,1.0961
11.096,0.020093,0.46041,-0.12693,1.2376,1.0911
11.104,0.02473,0.44282,-0.12693,1.2327,1.0911
11.112,0.029366,0.43011,-0.12693,1.2426,1.0911
11.12,0.035549,0.41447,-0.12074,1.2574,1.0911
11.128,0.041731,0.40078,-0.12693,1.2574,1.0788
11.136,0.047913,0.38905,-0.10681,1.2673,1.0739
11.144,0.054096,0.37928,-0.095975,1.2822,1.0591
11.152,0.060278,0.37243,-0.091331,1.2921,1.0542
11.16,0.068006,0.36755,-0.082043,1.3069,1.0493
11.168,0.07728,0.36364,-0.06192,1.3218,1.0394
11.176,0.086553,0.36168,-0.051084,1.3416,1.0296
11.184,0.095827,0.3607,-0.035604,1.3564,1.0246
11.192,0.10819,0.36168,-0.021672,1.3812,1.0148
11.2,0.12056,0.36168,-0.010836,1.3812,1.0049
11.208,0.13601,0.36266,0.004644,1.3911,1
11.216,0.14992,0.36364,0.0092879,1.3812,0.98522
11.224,0.16538,0.36461,0.018576,1.3812,0.98522
11.232,0.17929,0.36461,0.034056,1.3663,0.97044
11.24,0.19474,0.36461,0.05418,1.3614,0.96059
11.248,0.2102,0.36364,0.069659,1.3317,0.94089
11.256,0.2272,0.36168,0.083591,1.3168,0.91872
11.264,0.24575,0.35875,0.078947,1.2822,0.90394
11.272,0.26584,0.35582,0.094427,1.2574,0.89901
11.28,0.28594,0.35191,0.099071,1.2178,0.88916
11.288,0.30448,0.348,0.094427,1.1881,0.88916
11.296,0.32457,0.34409,0.083591,1.1535,0.88916
11.304,0.34312,0.34115,0.078947,1.1386,0.89409
11.312,0.36167,0.33724,0.069659,1.1139,0.89409
11.32,0.38176,0.33431,0.058824,1.104,0.89901
11.328,0.40185,0.33236,0.049536,1.0941,0.90887
11.336,0.42195,0.32845,0.043344,1.0891,0.91379
11.344,0.44359,0.32551,0.0387,1.0941,0.91379
11.352,0.46522,0.3216,0.034056,1.0842,0.91872
11.36,0.48686,0.31769,0.0387,1.099,0.91379
11.368,0.5085,0.31378,0.0387,1.0891,0.91379
11.376,0.52859,0.3089,0.034056,1.099,0.91872
11.384,0.54714,0.30499,0.018576,1.0891,0.93103
11.392,0.56414,0.30108,0.018576,1.099,0.93103
11.4,0.5796,0.29912,0.018576,1.0941,0.92611
11.408,0.59505,0.29717,0.018576,1.104,0.93103
11.416,0.61051,0.29521,0.018576,1.099,0.92611
11.424,0.62442,0.29228,0.02322,1.1089,0.93103
11.432,0.63833,0.29032,0.018576,1.099,0.92611
11.44,0.65379,0.28739,0.018576,1.1089,0.93596
11.448,0.66461,0.28348,0.018576,1.099,0.93103
11.456,0.67697,0.28055,0.018576,1.099,0.93596
11.464,0.68779,0.27761,0.029412,1.099,0.91872
11.472,0.69706,0.27468,0.05418,1.1287,0.91379
11.48,0.70788,0.27273,0.063467,1.1188,0.89901
11.488,0.7187,0.26979,0.083591,1.104,0.89409
11.496,0.72798,0.26784,0.099071,1.104,0.88424
11.504,0.73879,0.26686,0.1548,1.1287,0.83498
11.512,0.74961,0.26491,0.20898,1.0891,0.78079
11.52,0.76043,0.26295,0.18885,1.0495,0.79557
11.528,0.7728,0.261,0.18421,1.0198,0.80049
11.536,0.78362,0.261,0.1548,1.0149,0.8202
11.544,0.79444,0.26491,0.11455,1.0347,0.84975
11.552,0.80526,0.2737,0.058824,1.0446,0.89901
11.56,0.81453,0.29228,0.004644,1.0297,0.93596
11.568,0.8238,0.3216,-0.010836,1.0198,0.95074
11.576,0.83462,0.36168,-0.0061919,1.0248,0.94089
11.584,0.84389,0.41153,-0.010836,1.0149,0.94089
11.592,0.85471,0.46725,-0.0061919,1.0248,0.94581
11.6,0.86553,0.51808,-0.001548,1.0248,0.93103
11.608,0.87481,0.56305,0.004644,1.0297,0.94089
11.616,0.88563,0.60997,-0.0061919,1.0248,0.94089
11.624,0.89335,0.65298,-0.001548,1.0396,0.94089
11.632,0.90263,0.68915,0.013932,1.0297,0.93103
11.64,0.9119,0.71554,-0.001548,1.0297,0.94089
11.648,0.92272,0.73216,-0.055728,1.0644,0.95567
11.656,0.93354,0.73998,-0.16099,1.198,0.99507
11.664,0.94436,0.739,-0.18111,1.3713,0.93596
11.672,0.95518,0.73118,-0.001548,1.4505,0.73892
11.68,0.96754,0.71945,0.50929,0.44059,0.27094
11.688,0.97991,0.70381,1.0108,-0.38119,-0.14532
11.696,0.99227,0.68524,1.1873,-0.56436,-0.19951
11.704,1.0031,0.66667,1.2059,-0.25743,0.13547
11.712,1.0139,0.64809,0.87152,0.049505,0.40887
11.72,1.0232,0.62659,0.49536,0.4901,0.69951
11.728,1.034,0.60313,0.1192,0.83168,0.94089
11.736,1.0448,0.57967,-0.051084,1.0644,1.0394
11.744,1.0572,0.55621,-0.10062,1.1337,1.0591
11.752,1.0696,0.53177,-0.12074,1.1782,1.0739
11.76,1.0819,0.50733,-0.13158,1.198,1.0788
11.768,1.0927,0.48485,-0.12693,1.2079,1.0788
11.776,1.1051,0.46334,-0.12693,1.2129,1.0788
11.784,1.1144,0.44282,-0.12693,1.2129,1.0788
11.792,1.1252,0.42522,-0.12074,1.2228,1.069
11.8,1.136,0.41153,-0.11146,1.2277,1.064
11.808,1.1468,0.40078,-0.10062,1.2426,1.0542
11.816,1.1592,0.39101,-0.10062,1.2376,1.0542
11.824,1.17,0.38319,-0.095975,1.2624,1.0542
11.832,1.1824,0.3783,-0.075851,1.2624,1.0345
11.84,1.1947,0.37537,-0.066563,1.2822,1.0296
11.848,1.2071,0.37439,-0.051084,1.2921,1.0197
11.856,1.2195,0.37341,-0.041796,1.3218,1.0148
11.864,1.2303,0.37341,-0.03096,1.3267,1.0049
11.872,1.2396,0.37243,-0.010836,1.3564,0.99507
11.88,1.2504,0.37243,0.004644,1.3515,0.98522
11.888,1.2597,0.37243,0.013932,1.3614,0.9803
11.896,1.2689,0.37243,0.018576,1.3416,0.96552
11.904,1.2798,0.37243,0.0387,1.3416,0.95567
11.912,1.2844,0.37243,0.05418,1.3267,0.94089
11.92,1.2906,0.37146,0.063467,1.3218,0.93596
11.928,1.2906,0.37048,0.078947,1.2921,0.91379
11.936,1.2906,0.36755,0.094427,1.2723,0.89901
11.944,1.2906,0.36461,0.10372,1.2426,0.88916
11.952,1.2906,0.36168,0.11455,1.2079,0.86946
11.96,1.2906,0.35777,0.1192,1.1832,0.86946
11.968,1.2906,0.35484,0.1192,1.1584,0.86453
11.976,1.2906,0.35093,0.11455,1.1337,0.86453
11.984,1.2906,0.34702,0.10372,1.1139,0.86453
11.992,1.2906,0.34311,0.094427,1.1188,0.86946
12,1.2906,0.34018,0.083591,1.099,0.87931
12.008,1.2906,0.33724,0.074303,1.104,0.88916
12.016,1.2906,0.33333,0.069659,1.0941,0.89409
12.024,1.2906,0.3304,0.074303,1.099,0.89409
12.032,1.2906,0.32649,0.069659,1.0891,0.89409
12.04,1.2906,0.32356,0.063467,1.099,0.89409
12.048,1.2906,0.32063,0.058824,1.0941,0.89409
12.056,1.2906,0.31769,0.063467,1.104,0.89409
12.064,1.2906,0.31378,0.063467,1.099,0.89409
12.072,1.2906,0.30987,0.063467,1.1139,0.89409
12.08,1.2906,0.30596,0.063467,1.1139,0.89409
12.088,1.2906,0.30303,0.063467,1.1188,0.89901
12.096,1.2906,0.29912,0.063467,1.1089,0.89409
12.104,1.2906,0.29717,0.063467,1.1188,0.89409
12.112,1.2906,0.29521,0.05418,1.1139,0.89409
12.12,1.2906,0.29326,0.05418,1.1188,0.89409
12.128,1.2906,0.2913,0.05418,1.1089,0.89409
12.136,1.2906,0.28935,0.069659,1.1139,0.88916
12.144,1.2906,0.28739,0.089783,1.1386,0.87438
12.152,1.2906,0.28543,0.11455,1.1436,0.85961
12.16,1.2906,0.2825,0.12848,1.1287,0.84483
12.168,1.2906,0.27957,0.14396,1.1188,0.8399
12.176,1.2906,0.27664,0.19505,1.1584,0.79557
12.184,1.2906,0.27273,0.24923,1.1089,0.74384
12.192,1.2906,0.26882,0.2291,1.0693,0.76108
12.2,1.2906,0.26588,0.21362,1.0347,0.77094
12.208,1.2906,0.26393,0.18885,1.0396,0.78571
12.216,1.2906,0.26295,0.1548,1.0594,0.81527
12.224,1.2906,0.26491,0.099071,1.0693,0.85961
12.232,1.2906,0.2737,0.0387,1.0396,0.90394
12.24,1.2906,0.29326,0.018576,1.0495,0.91872
12.248,1.2906,0.32356,0.018576,1.0396,0.91872
12.256,1.2906,0.36559,0.018576,1.0495,0.91872
12.264,1.2906,0.41642,0.018576,1.0396,0.91379
12.272,1.2906,0.47312,0.029412,1.0495,0.91379
12.28,1.2906,0.53275,0.02322,1.0396,0.91379
12.288,1.2906,0.59042,0.029412,1.0495,0.91379
12.296,1.2844,0.64125,0.034056,1.0495,0.90394
12.304,1.2798,0.6784,0.0387,1.0545,0.90394
12.312,1.2612,0.70577,0.029412,1.0495,0.90394
12.32,1.2427,0.72727,-0.026316,1.1089,0.93103
12.328,1.2226,0.74096,-0.14706,1.2426,0.97537
12.336,1.2025,0.74585,-0.18731,1.4406,0.92611
12.344,1.1839,0.74291,0.013932,1.4653,0.69458
12.352,1.1654,0.73412,0.52012,0.25743,0.20936
12.36,1.1468,0.71945,0.99071,-0.47525,-0.16995
12.368,1.1298,0.6999,1.192,-0.58416,-0.21921
12.376,1.1113,0.6784,1.2059,-0.23267,0.11576
12.384,1.0943,0.65396,0.91641,0.084158,0.37438
12.392,1.0757,0.62952,0.5356,0.5297,0.66995
12.4,1.0572,0.60606,0.16873,0.88614,0.90394
12.408,1.0386,0.58358,-0.010836,1.104,1.0049
12.416,1.0216,0.55816,-0.066563,1.1683,1.0345
12.424,1.0046,0.53177,-0.091331,1.2129,1.0542
12.432,0.98764,0.50635,-0.095975,1.2277,1.0542
12.44,0.97063,0.48192,-0.091331,1.2426,1.0542
12.448,0.95209,0.45846,-0.091331,1.2376,1.0542
12.456,0.93509,0.43695,-0.095975,1.2525,1.0542
12.464,0.91654,0.41642,-0.095975,1.2475,1.0542
12.472,0.89954,0.3998,-0.075851,1.2673,1.0443
12.48,0.88253,0.38514,-0.075851,1.2624,1.0345
12.488,0.86553,0.37439,-0.066563,1.2871,1.0345
12.496,0.84853,0.36559,-0.06192,1.2871,1.0296
12.504,0.83462,0.35973,-0.051084,1.3119,1.0197
12.512,0.82071,0.35582,-0.03096,1.3218,1.0099
12.52,0.8068,0.35288,-0.026316,1.3515,1.0099
12.528,0.79444,0.35093,-0.01548,1.3663,0.99507
12.536,0.78207,0.35093,-0.001548,1.3911,0.99015
12.544,0.76816,0.35093,0.013932,1.401,0.9803
12.552,0.7558,0.35093,0.018576,1.4059,0.97537
12.56,0.74343,0.35191,0.034056,1.4109,0.96552
12.568,0.73107,0.35191,0.043344,1.401,0.96059
12.576,0.7187,0.35093,0.063467,1.396,0.94089
12.584,0.70788,0.35093,0.078947,1.3861,0.93596
12.592,0.69552,0.34995,0.094427,1.3762,0.91872
12.6,0.68315,0.34897,0.10836,1.3515,0.90887
12.608,0.66924,0.348,0.1192,1.3218,0.88916
12.616,0.65379,0.34702,0.13467,1.2822,0.86946
12.624,0.63833,0.34409,0.13467,1.2525,0.85961
12.632,0.62133,0.34115,0.13467,1.2079,0.85468
12.64,0.60433,0.33724,0.13467,1.1832,0.84975
12.648,0.58733,0.33236,0.1192,1.1436,0.84975
12.656,0.56878,0.32845,0.11455,1.1386,0.85961
12.664,0.55178,0.32356,0.099071,1.1188,0.86453
12.672,0.53478,0.31867,0.089783,1.1188,0.87438
12.68,0.51932,0.31378,0.089783,1.099,0.87438
12.688,0.50386,0.30987,0.074303,1.099,0.87931
12.696,0.48686,0.30596,0.074303,1.0891,0.88916
12.704,0.46986,0.30303,0.078947,1.099,0.88424
12.712,0.45131,0.3001,0.069659,1.0941,0.88916
12.72,0.43431,0.29717,0.074303,1.099,0.88916
12.728,0.41731,0.29326,0.078947,1.099,0.88916
12.736,0.40031,0.29032,0.063467,1.104,0.89409
12.744,0.38485,0.28739,0.063467,1.1139,0.89409
12.752,0.3694,0.28446,0.063467,1.104,0.88916
12.76,0.35549,0.2825,0.063467,1.1139,0.88916
12.768,0.34003,0.28152,0.063467,1.104,0.88916
12.776,0.32457,0.27957,0.063467,1.1188,0.89409
12.784,0.30912,0.27859,0.058824,1.1089,0.89409
12.792,0.29521,0.27761,0.05418,1.1188,0.89901
12.8,0.2813,0.27664,0.069659,1.1089,0.88916
12.808,0.26893,0.27664,0.074303,1.1287,0.88916
12.816,0.25502,0.27468,0.10836,1.1386,0.86453
12.824,0.2442,0.27273,0.13467,1.1436,0.84483
12.832,0.23338,0.27077,0.13932,1.1188,0.84483
12.84,0.22257,0.26882,0.13467,1.1485,0.82512
12.848,0.21329,0.26588,0.2291,1.1188,0.75616
12.856,0.20402,0.26393,0.23994,1.0891,0.74877
12.864,0.19474,0.261,0.20898,1.0347,0.76601
12.872,0.18547,0.25904,0.19505,1.0297,0.77586
12.88,0.17774,0.25806,0.17492,1.0347,0.79557
12.888,0.17002,0.26002,0.1192,1.0644,0.84975
12.896,0.16229,0.26491,0.058824,1.0396,0.88424
12.904,0.15611,0.27664,0.02322,1.0446,0.91379
12.912,0.14992,0.29717,0.013932,1.0297,0.91379
12.92,0.14529,0.32845,0.013932,1.0347,0.91872
12.928,0.14065,0.37146,0.029412,1.0347,0.91379
12.936,0.13756,0.42326,0.029412,1.0396,0.90887
12.944,0.13292,0.48094,0.029412,1.0446,0.91379
12.952,0.13138,0.53861,0.02322,1.0347,0.90887
12.96,0.12828,0.59433,0.0387,1.0446,0.90394
12.968,0.12828,0.64223,0.043344,1.0347,0.89901
12.976,0.12674,0.68133,0.0387,1.0446,0.90394
12.984,0.12674,0.71065,0.004644,1.0396,0.91872
12.992,0.12519,0.72923,-0.1161,1.198,0.97044
13,0.12519,0.73803,-0.17647,1.3762,0.93103
13.008,0.12519,0.739,-0.091331,1.4406,0.79064
13.016,0.12519,0.73412,0.34985,0.37129,0.32512
13.024,0.12519,0.72336,0.85604,-0.4802,-0.12069
13.032,0.12365,0.7087,1.1006,-0.69307,-0.23399
13.04,0.12365,0.6911,1.1672,-0.33663,0.044335
13.048,0.1221,0.67155,0.95666,-0.064356,0.30049
13.056,0.12056,0.65005,0.6904,0.40594,0.55419
13.064,0.11901,0.62757,0.26935,0.81683,0.84483
13.072,0.11747,0.60411,0.049536,1.0792,0.97537
13.08,0.11592,0.57869,-0.04644,1.1634,1.0296
13.088,0.11283,0.55425,-0.075851,1.2079,1.0542
13.096,0.10974,0.53177,-0.091331,1.2277,1.0591
13.104,0.10819,0.51026,-0.082043,1.2426,1.0591
13.112,0.10355,0.48876,-0.086687,1.2376,1.0542
13.12,0.10046,0.46628,-0.091331,1.2574,1.0591
13.128,0.097372,0.44575,-0.082043,1.2574,1.0542
13.136,0.094281,0.42717,-0.075851,1.2624,1.0493
13.144,0.092736,0.41056,-0.066563,1.2723,1.0394
13.152,0.089645,0.39589,-0.055728,1.2871,1.0394
13.16,0.089645,0.38319,-0.051084,1.302,1.0345
13.168,0.088099,0.37439,-0.041796,1.3168,1.0246
13.176,0.088099,0.36852,-0.03096,1.3317,1.0148
13.184,0.088099,0.36461,-0.026316,1.3515,1.0099
13.192,0.088099,0.36266,-0.010836,1.3713,1.0049
13.2,0.088099,0.36168,-0.001548,1.3861,0.99015
13.208,0.089645,0.36168,0.018576,1.401,0.98522
13.216,0.089645,0.36266,0.029412,1.401,0.97044
13.224,0.089645,0.36364,0.043344,1.4158,0.96552
13.232,0.089645,0.36461,0.05418,1.401,0.95567
13.24,0.089645,0.36559,0.063467,1.401,0.94089
13.248,0.088099,0.36657,0.083591,1.3812,0.92611
13.256,0.086553,0.36657,0.099071,1.3713,0.91379
13.264,0.085008,0.36657,0.11455,1.3366,0.89901
13.272,0.080371,0.36559,0.12848,1.3218,0.88424
13.28,0.07728,0.36364,0.13467,1.2772,0.86946
13.288,0.072643,0.3607,0.13932,1.2525,0.86453
13.296,0.066461,0.35875,0.13467,1.2079,0.85468
13.304,0.061824,0.35582,0.13467,1.1832,0.85468
13.312,0.055641,0.35191,0.12384,1.1485,0.85468
13.32,0.049459,0.34897,0.11455,1.1238,0.85961
13.328,0.043277,0.34409,0.10372,1.099,0.86453
13.336,0.037094,0.34018,0.089783,1.099,0.86946
13.344,0.030912,0.33627,0.089783,1.0842,0.87438
13.352,0.023184,0.33138,0.083591,1.0842,0.87931
13.36,0.015456,0.32747,0.069659,1.0792,0.88424
13.368,0.0092736,0.32258,0.069659,1.0743,0.88916
13.376,0.0015456,0.31769,0.063467,1.0842,0.88916
13.384,-0.0046368,0.31378,0.069659,1.0743,0.88916
13.392,-0.010819,0.30987,0.063467,1.0891,0.89409
13.4,-0.017002,0.30694,0.058824,1.0941,0.89901
13.408,-0.02473,0.30499,0.058824,1.1089,0.89409
13.416,-0.030912,0.30108,0.063467,1.104,0.89409
13.424,-0.037094,0.29717,0.05418,1.1188,0.89409
13.432,-0.043277,0.29423,0.049536,1.1139,0.89409
13.44,-0.051005,0.29032,0.049536,1.1238,0.89901
13.448,-0.057187,0.28641,0.05418,1.1188,0.89409
13.456,-0.063369,0.28348,0.05418,1.1188,0.89409
13.464,-0.068006,0.28055,0.05418,1.1089,0.89901
13.472,-0.072643,0.27761,0.058824,1.1238,0.89409
13.48,-0.075734,0.27468,0.083591,1.1436,0.87438
13.488,-0.078825,0.27273,0.10372,1.1436,0.86453
13.496,-0.083462,0.27077,0.11455,1.1188,0.84483
13.504,-0.086553,0.26979,0.13467,1.1485,0.84975
13.512,-0.089645,0.26686,0.18421,1.1535,0.79557
13.52,-0.092736,0.26393,0.23994,1.099,0.74877
13.528,-0.095827,0.25904,0.20898,1.0495,0.76108
13.536,-0.098918,0.25611,0.19505,1.0248,0.77586
13.544,-0.10201,0.25318,0.17957,1.0248,0.78079
13.552,-0.1051,0.25513,0.14861,1.0545,0.81527
13.56,-0.10819,0.26197,0.078947,1.0347,0.86453
13.568,-0.11128,0.27761,0.034056,1.0297,0.90887
13.576,-0.11437,0.32258,0.018576,1.0396,0.91872
13.584,-0.11901,0.36559,0.013932,1.0248,0.91872
13.592,-0.12365,0.41349,0.018576,1.0297,0.91379
13.6,-0.12674,0.48387,0.018576,1.0248,0.91379
13.608,-0.13138,0.53763,0.018576,1.0297,0.91872
13.616,-0.13601,0.59238,0.02322,1.0248,0.91379
13.624,-0.1391,0.64027,0.034056,1.0347,0.91379
13.632,-0.14065,0.67937,0.029412,1.0248,0.90887
13.64,-0.14219,0.70968,0.0387,1.0396,0.90887
13.648,-0.14219,0.72923,0.013932,1.0347,0.91379
13.656,-0.14219,0.739,-0.086687,1.1436,0.96552
13.664,-0.14219,0.73998,-0.17647,1.297,0.9803
13.672,-0.14065,0.73314,-0.19195,1.4109,0.86946
13.68,-0.14065,0.72239,0.14861,0.75248,0.51478
13.688,-0.13756,0.7087,0.67492,-0.26733,0.019704
13.696,-0.13601,0.69306,1.0155,-0.71287,-0.22906
13.704,-0.13292,0.67449,1.1471,-0.5,-0.096059
13.712,-0.12983,0.65396,1.0062,-0.18812,0.21921
13.72,-0.12519,0.63245,0.80495,0.23267,0.47044
13.728,-0.12056,0.61095,0.37926,0.67327,0.77586
13.736,-0.11592,0.58749,0.089783,0.99505,0.95567
13.744,-0.10974,0.56403,-0.026316,1.1337,1.0246
13.752,-0.10355,0.53959,-0.082043,1.1881,1.0493
13.76,-0.097372,0.51515,-0.091331,1.2129,1.0591
13.768,-0.09119,0.49169,-0.091331,1.2327,1.0542
13.776,-0.083462,0.46921,-0.086687,1.2426,1.0591
13.784,-0.078825,0.44868,-0.082043,1.2376,1.0542
13.792,-0.072643,0.43109,-0.086687,1.2574,1.0542
13.8,-0.066461,0.41544,-0.075851,1.2574,1.0542
13.808,-0.061824,0.40078,-0.075851,1.2723,1.0542
13.816,-0.055641,0.38807,-0.075851,1.2772,1.0493
13.824,-0.051005,0.37634,-0.06192,1.297,1.0345
13.832,-0.044822,0.36852,-0.055728,1.302,1.0345
13.84,-0.03864,0.36364,-0.04644,1.3267,1.0246
13.848,-0.034003,0.35973,-0.03096,1.3366,1.0099
13.856,-0.027821,0.35679,-0.0061919,1.3663,1.0049
13.864,-0.023184,0.35582,0.004644,1.3812,0.99015
13.872,-0.018547,0.35582,0.0092879,1.401,0.99507
13.88,-0.012365,0.35679,0.02322,1.401,0.97044
13.888,-0.0061824,0.35777,0.0387,1.4109,0.97044
13.896,0,0.35777,0.043344,1.401,0.96552
13.904,0.0061824,0.35777,0.058824,1.401,0.95567
13.912,0.012365,0.35777,0.074303,1.3812,0.93596
13.92,0.020093,0.35679,0.089783,1.3812,0.91872
13.928,0.026275,0.35582,0.094427,1.3515,0.90887
13.936,0.034003,0.35484,0.10372,1.3267,0.89409
13.944,0.03864,0.35191,0.12384,1.2921,0.87438
13.952,0.044822,0.348,0.13932,1.2624,0.85961
13.96,0.051005,0.34409,0.13467,1.2228,0.85468
13.968,0.055641,0.34115,0.12848,1.1832,0.85961
13.976,0.060278,0.33431,0.1192,1.1535,0.85961
13.984,0.064915,0.3304,0.10372,1.1238,0.86453
13.992,0.069552,0.32649,0.078947,1.1089,0.87931
14,0.072643,0.32258,0.083591,1.0941,0.87931
14.008,0.075734,0.31672,0.069659,1.099,0.88424
14.016,0.080371,0.31183,0.05418,1.0743,0.89409
14.024,0.081917,0.30694,0.049536,1.0792,0.89901
14.032,0.085008,0.29814,0.0387,1.0693,0.90394
14.04,0.086553,0.29423,0.0387,1.0743,0.91379
14.048,0.088099,0.2913,0.0387,1.0693,0.91379
14.056,0.088099,0.28543,0.043344,1.0891,0.90887
14.064,0.088099,0.2825,0.0387,1.0842,0.91379
14.072,0.088099,0.28055,0.0387,1.099,0.91872
14.08,0.088099,0.27761,0.0387,1.099,0.91379
14.088,0.088099,0.27468,0.0387,1.1139,0.91379
14.096,0.086553,0.27175,0.029412,1.1188,0.91872
14.104,0.086553,0.26882,0.02322,1.1139,0.93103
14.112,0.085008,0.26588,0.018576,1.1188,0.92611
14.12,0.085008,0.26393,0.018576,1.1139,0.93596
14.128,0.083462,0.26197,0.029412,1.1089,0.91872
14.136,0.083462,0.26002,0.043344,1.1337,0.91379
14.144,0.085008,0.25806,0.063467,1.1436,0.90394
14.152,0.085008,0.25611,0.078947,1.1287,0.89409
14.16,0.086553,0.25415,0.089783,1.1188,0.88424
14.168,0.088099,0.25318,0.12384,1.1436,0.85961
14.176,0.089645,0.2522,0.17957,1.1188,0.80542
14.184,0.092736,0.2522,0.19969,1.0743,0.78571
14.192,0.094281,0.25611,0.17957,1.0347,0.80049
14.2,0.097372,0.26686,0.16409,1.0149,0.80542
14.208,0.10046,0.28739,0.13467,1.0297,0.82512
14.216,0.1051,0.31867,0.094427,1.0446,0.86453
14.224,0.10974,0.35973,0.029412,1.0347,0.90887
14.232,0.11437,0.41056,-0.001548,1.0248,0.94089
14.24,0.12056,0.46628,-0.01548,1.0297,0.95074
14.248,0.12828,0.52395,-0.010836,1.0248,0.94581
14.256,0.13601,0.57869,-0.021672,1.0248,0.94581
14.264,0.14374,0.62268,-0.0061919,1.0198,0.94089
14.272,0.15147,0.65591,0.004644,1.0297,0.93103
14.28,0.16074,0.68524,-0.0061919,1.0248,0.93596
14.288,0.16847,0.70772,-0.001548,1.0347,0.94089
14.296,0.18083,0.72043,-0.0061919,1.0248,0.93596
14.304,0.19165,0.72434,0.004644,1.0347,0.94089
14.312,0.20556,0.72141,0.0092879,1.0495,0.93103
14.32,0.21947,0.71261,-0.1517,1.1683,0.99507
14.328,0.23338,0.6999,-0.20124,1.3267,0.96059
14.336,0.2473,0.68328,-0.11146,1.4257,0.83498
14.344,0.25966,0.66471,0.34985,0.54455,0.37931
14.352,0.27357,0.64516,0.89164,-0.33663,-0.078818
14.36,0.29212,0.62659,1.1362,-0.61386,-0.20936
14.368,0.30912,0.60802,1.2012,-0.32673,0.049261
14.376,0.32921,0.58651,0.9613,-0.064356,0.3202
14.384,0.35085,0.56403,0.61455,0.38614,0.61576
14.392,0.37249,0.54057,0.19969,0.78218,0.89409
14.4,0.39567,0.51613,-0.01548,1.0297,1.0197
14.408,0.41886,0.49169,-0.095975,1.1337,1.064
14.416,0.44359,0.46823,-0.12074,1.1733,1.0788
14.424,0.46368,0.44575,-0.12693,1.2129,1.0837
14.432,0.48532,0.42424,-0.13158,1.2129,1.0788
14.44,0.50386,0.40371,-0.12074,1.2277,1.0788
14.448,0.52396,0.3871,-0.12074,1.2228,1.0739
14.456,0.54405,0.37243,-0.1161,1.2376,1.069
14.464,0.56414,0.36168,-0.12074,1.2277,1.0591
14.472,0.58578,0.35386,-0.11146,1.2525,1.069
14.48,0.60742,0.348,-0.12074,1.2426,1.0542
14.488,0.62597,0.34311,-0.095975,1.2624,1.0493
14.496,0.64451,0.34018,-0.086687,1.2723,1.0443
14.504,0.66151,0.3392,-0.066563,1.297,1.0345
14.512,0.67852,0.33822,-0.06192,1.3069,1.0296
14.52,0.69552,0.3392,-0.055728,1.3267,1.0246
14.528,0.71406,0.34018,-0.04644,1.3317,1.0099
14.536,0.73107,0.34018,-0.026316,1.3564,1.0049
14.544,0.74961,0.34115,-0.010836,1.3564,0.99507
14.552,0.76662,0.34115,-0.001548,1.3663,0.98522
14.56,0.78516,0.34115,0.018576,1.3515,0.97044
14.568,0.80216,0.34115,0.02322,1.3515,0.96552
14.576,0.81917,0.34018,0.043344,1.3366,0.94581
14.584,0.83462,0.3392,0.063467,1.3218,0.93103
14.592,0.84853,0.33822,0.069659,1.302,0.91872
14.6,0.86244,0.33627,0.083591,1.2772,0.90394
14.608,0.87635,0.33431,0.089783,1.2475,0.89409
14.616,0.89181,0.33138,0.11455,1.2129,0.86946
14.624,0.90572,0.32942,0.11455,1.1832,0.86946
14.632,0.92117,0.32649,0.10836,1.1436,0.86453
14.64,0.93663,0.32258,0.089783,1.1287,0.87438
14.648,0.95054,0.31867,0.069659,1.099,0.88424
14.656,0.96445,0.31378,0.074303,1.099,0.88916
14.664,0.97836,0.31085,0.069659,1.0792,0.88424
14.672,0.99227,0.30694,0.05418,1.0891,0.89901
14.68,1.0062,0.30401,0.043344,1.0743,0.90394
14.688,1.0216,0.30108,0.058824,1.0792,0.89409
14.696,1.0355,0.29814,0.043344,1.0693,0.90887
14.704,1.051,0.29521,0.0387,1.0842,0.91379
14.712,1.0665,0.29228,0.0387,1.0743,0.90887
14.72,1.0819,0.29032,0.049536,1.0842,0.90394
14.728,1.0974,0.28739,0.043344,1.0743,0.90887
14.736,1.1113,0.28543,0.034056,1.0891,0.91379
14.744,1.1252,0.28348,0.034056,1.0941,0.91872
14.752,1.1391,0.28152,0.043344,1.104,0.90887
14.76,1.1515,0.27957,0.034056,1.1089,0.91379
14.768,1.1638,0.27859,0.018576,1.0941,0.91379
14.776,1.1762,0.27664,0.018576,1.104,0.91379
14.784,1.1886,0.2737,0.02322,1.0941,0.91379
14.792,1.1994,0.27077,0.043344,1.1139,0.90887
14.8,1.2117,0.26784,0.05418,1.1287,0.89901
14.808,1.2226,0.26393,0.074303,1.1337,0.88916
14.816,1.2318,0.26002,0.089783,1.1089,0.87438
14.824,1.2396,0.25611,0.094427,1.1238,0.86946
14.832,1.2488,0.2522,0.1548,1.1287,0.8202
14.84,1.2566,0.24927,0.20898,1.0941,0.77586
14.848,1.2643,0.24829,0.19505,1.0495,0.78571
14.856,1.272,0.2522,0.16409,1.0248,0.80049
14.864,1.2813,0.261,0.14861,1.0149,0.81527
14.872,1.2859,0.27664,0.10836,1.0495,0.85468
14.88,1.2906,0.30401,0.049536,1.0396,0.89409
14.888,1.2906,0.34213,0.004644,1.0347,0.93103
14.896,1.2906,0.39101,-0.010836,1.0149,0.93596
14.904,1.2906,0.44673,-0.01548,1.0248,0.94089
14.912,1.2906,0.50635,-0.010836,1.0099,0.94089
14.92,1.2906,0.56403,-0.0061919,1.0198,0.93596
14.928,1.2906,0.61584,-0.001548,1.0149,0.93103
14.936,1.2906,0.6608,0.004644,1.0248,0.93103
14.944,1.2906,0.69599,0.013932,1.0248,0.91872
14.952,1.2906,0.72043,0.018576,1.0347,0.91872
14.96,1.2906,0.73314,0.018576,1.0297,0.91379
14.968,1.2906,0.73705,0.013932,1.0248,0.91872
14.976,1.2906,0.73412,-0.071207,1.0941,0.95567
14.984,1.2906,0.7263,-0.16099,1.2327,0.9803
14.992,1.2906,0.71261,-0.17183,1.4356,0.89901
15,1.2906,0.69501,0.13932,1.1584,0.62562
15.008,1.2906,0.67449,0.67028,0.25248,0.15517
15.016,1.2906,0.652,1.1068,-0.43564,-0.18473
15.024,1.2906,0.62952,1.2415,-0.52475,-0.18966
15.032,1.2906,0.60606,1.082,-0.16337,0.19951
15.04,1.2906,0.5826,0.7709,0.20297,0.5
15.048,1.2906,0.55816,0.36533,0.59406,0.78079
15.056,1.2906,0.53275,0.063467,0.91584,0.97044
15.064,1.2906,0.50929,-0.06192,1.0891,1.0296
15.072,1.2906,0.48778,-0.10062,1.1584,1.0542
15.08,1.2906,0.46334,-0.11146,1.1881,1.0542
15.088,1.2906,0.43988,-0.10062,1.2129,1.0591
15.096,1.2906,0.4174,-0.11146,1.2079,1.0542
15.104,1.2906,0.39687,-0.10681,1.2178,1.0542
15.112,1.2906,0.3783,-0.10062,1.2129,1.0542
15.12,1.2906,0.36266,-0.10062,1.2327,1.0493
15.128,1.2906,0.35093,-0.091331,1.2376,1.0394
15.136,1.2906,0.34213,-0.075851,1.2475,1.0345
15.144,1.2906,0.33529,-0.071207,1.2525,1.0296
15.152,1.2906,0.33236,-0.06192,1.2673,1.0246
15.16,1.2906,0.3304,-0.051084,1.2772,1.0099
15.168,1.2906,0.33138,-0.041796,1.297,1.0099
15.176,1.2906,0.33333,-0.026316,1.3069,0.99015
15.184,1.2906,0.33431,-0.010836,1.3267,0.98522
15.192,1.2906,0.33627,0.0092879,1.3515,0.97537
15.2,1.2906,0.33724,0.02322,1.3614,0.96552
15.208,1.2906,0.33822,0.0387,1.3762,0.96059
15.216,1.2906,0.3392,0.043344,1.3713,0.95074
15.224,1.2906,0.3392,0.063467,1.3762,0.94089
15.232,1.2906,0.3392,0.074303,1.3564,0.93103
15.24,1.2906,0.33822,0.089783,1.3515,0.91872
15.248,1.2906,0.33627,0.10372,1.3267,0.90394
15.256,1.2906,0.33431,0.1192,1.3119,0.88916
15.264,1.2906,0.33236,0.13467,1.2772,0.86946
15.272,1.2906,0.33138,0.13932,1.2525,0.86453
15.28,1.2906,0.32942,0.14396,1.2079,0.84483
15.288,1.2906,0.32747,0.14396,1.1881,0.84483
15.296,1.2906,0.32551,0.12848,1.1535,0.84483
15.304,1.2906,0.32258,0.1192,1.1436,0.84975
15.312,1.2906,0.32063,0.10836,1.1188,0.85961
15.32,1.2906,0.31867,0.10372,1.1188,0.85961
15.328,1.2906,0.31574,0.094427,1.1089,0.86453
15.336,1.2906,0.31378,0.089783,1.1188,0.87438
15.344,1.2906,0.31085,0.083591,1.104,0.87438
15.352,1.2906,0.3089,0.078947,1.1188,0.88424
15.36,1.2906,0.30694,0.074303,1.1089,0.88916
15.368,1.2906,0.30596,0.069659,1.1139,0.88424
15.376,1.2906,0.30303,0.069659,1.1188,0.88916
15.384,1.2906,0.3001,0.074303,1.1139,0.88424
15.392,1.2906,0.29814,0.078947,1.1188,0.88916
15.4,1.2906,0.29619,0.074303,1.1139,0.88916
15.408,1.2906,0.29521,0.078947,1.1188,0.88916
15.416,1.2906,0.29326,0.074303,1.1139,0.88916
15.424,1.2906,0.29228,0.069659,1.1188,0.89409
15.432,1.2906,0.2913,0.074303,1.1139,0.89409
15.44,1.2906,0.29032,0.074303,1.1188,0.88916
15.448,1.2859,0.28935,0.083591,1.1089,0.87931
15.456,1.2813,0.28837,0.10836,1.1485,0.86946
15.464,1.2581,0.28837,0.12848,1.1436,0.85468
15.472,1.2349,0.28739,0.14396,1.1337,0.84483
15.48,1.2102,0.28543,0.1548,1.1436,0.8399
15.488,1.1855,0.2825,0.20898,1.1584,0.79064
15.496,1.1592,0.27957,0.25387,1.104,0.74384
15.504,1.1329,0.27664,0.24458,1.0743,0.74877
15.512,1.1066,0.27566,0.21362,1.0396,0.76601
15.52,1.0804,0.27957,0.19969,1.0347,0.77586
15.528,1.0556,0.2913,0.16409,1.0693,0.81034
15.536,1.0309,0.31281,0.10372,1.0644,0.85961
15.544,1.0077,0.34506,0.043344,1.0446,0.89901
15.552,0.98609,0.3871,0.029412,1.0495,0.91379
15.56,0.966,0.42913,0.02322,1.0446,0.91379
15.568,0.9459,0.47214,0.029412,1.0446,0.91379
15.576,0.92736,0.52102,0.029412,1.0495,0.90887
15.584,0.90726,0.57185,0.0387,1.0446,0.91379
15.592,0.88872,0.61779,0.0387,1.0495,0.90887
15.6,0.87017,0.65689,0.0387,1.0446,0.90394
15.608,0.85317,0.68622,0.043344,1.0545,0.90394
15.616,0.83617,0.70479,0.049536,1.0495,0.89901
15.624,0.82071,0.71457,0.05418,1.0594,0.89901
15.632,0.80526,0.71457,-0.04644,1.1337,0.93596
15.64,0.79134,0.70772,-0.1517,1.3069,0.96059
15.648,0.77589,0.69599,-0.17183,1.4505,0.88424
15.656,0.76198,0.67937,0.14396,0.9505,0.56897
15.664,0.74807,0.6608,0.67492,-0.079208,0.073892
15.672,0.73261,0.64223,1.0511,-0.57921,-0.20936
15.68,0.7187,0.62072,1.2214,-0.59901,-0.23399
15.688,0.70479,0.59629,1.1006,-0.16337,0.1601
15.696,0.69088,0.57185,0.89164,0.19802,0.40394
15.704,0.67852,0.54643,0.47988,0.64356,0.71429
15.712,0.66615,0.52004,0.13932,0.96535,0.91379
15.72,0.65379,0.49365,-0.01548,1.1386,1.0099
15.728,0.64142,0.46823,-0.071207,1.1832,1.0394
15.736,0.6306,0.44379,-0.086687,1.2277,1.0542
15.744,0.61824,0.41935,-0.091331,1.2376,1.0542
15.752,0.60587,0.39785,-0.086687,1.2327,1.0542
15.76,0.59351,0.38025,-0.086687,1.2426,1.0542
15.768,0.58114,0.36657,-0.075851,1.2525,1.0493
15.776,0.56878,0.35288,-0.075851,1.2574,1.0394
15.784,0.55796,0.34213,-0.075851,1.2723,1.0443
15.792,0.5456,0.33333,-0.071207,1.2822,1.0345
15.8,0.53323,0.32747,-0.055728,1.297,1.0345
15.808,0.52241,0.32454,-0.051084,1.3119,1.0246
15.816,0.51005,0.32258,-0.035604,1.3218,1.0148
15.824,0.49768,0.3216,-0.026316,1.3564,1.0099
15.832,0.48532,0.32063,-0.01548,1.3663,1.0049
15.84,0.47295,0.32063,-0.001548,1.3911,0.99507
15.848,0.46213,0.32063,0.0092879,1.401,0.98522
15.856,0.45131,0.3216,0.018576,1.4158,0.97537
15.864,0.44049,0.32258,0.0387,1.4158,0.96552
15.872,0.43122,0.32356,0.049536,1.4208,0.95567
15.88,0.42349,0.32356,0.063467,1.4109,0.94089
15.888,0.41422,0.32356,0.074303,1.4059,0.93596
15.896,0.40649,0.32356,0.089783,1.3861,0.91379
15.904,0.39722,0.32258,0.11455,1.3762,0.89409
15.912,0.38949,0.32063,0.13467,1.3416,0.87931
15.92,0.38022,0.31867,0.14396,1.3119,0.86946
15.928,0.37249,0.31672,0.14396,1.2772,0.85468
15.936,0.36476,0.31378,0.14861,1.2327,0.84975
15.944,0.35858,0.31085,0.13932,1.203,0.84483
15.952,0.3524,0.30694,0.13467,1.1683,0.84483
15.96,0.34467,0.30401,0.1192,1.1436,0.84975
15.968,0.33694,0.30108,0.11455,1.1188,0.85468
15.976,0.32921,0.29717,0.10372,1.104,0.85961
15.984,0.31994,0.29423,0.099071,1.0941,0.86453
15.992,0.31066,0.2913,0.089783,1.0891,0.86453
16,0.30139,0.28837,0.083591,1.0792,0.86946
16.008,0.29057,0.28641,0.078947,1.0842,0.87438
16.016,0.27975,0.28446,0.078947,1.0792,0.87931
16.024,0.26893,0.2825,0.074303,1.0941,0.87931
16.032,0.25811,0.28055,0.074303,1.099,0.87931
16.04,0.2473,0.27761,0.074303,1.1089,0.88424
16.048,0.23648,0.27468,0.063467,1.1139,0.88916
16.056,0.22257,0.27077,0.069659,1.1188,0.88916
16.064,0.2102,0.26882,0.063467,1.1188,0.89409
16.072,0.19629,0.26784,0.063467,1.1287,0.89409
16.08,0.18238,0.26588,0.058824,1.1287,0.89409
16.088,0.17002,0.26393,0.058824,1.1287,0.89409
16.096,0.15611,0.26295,0.058824,1.1188,0.89409
16.104,0.14529,0.26197,0.063467,1.1238,0.88916
16.112,0.13447,0.26002,0.089783,1.1485,0.87438
16.12,0.1221,0.25806,0.11455,1.1584,0.85961
16.128,0.10974,0.25513,0.12848,1.1386,0.84975
16.136,0.098918,0.2522,0.13467,1.1287,0.84975
16.144,0.086553,0.24829,0.16409,1.1535,0.8202
16.152,0.074189,0.24633,0.23375,1.1188,0.75616
16.16,0.063369,0.24536,0.22446,1.0743,0.74877
16.168,0.05255,0.24927,0.20433,1.0297,0.76601
16.176,0.040185,0.25709,0.19505,1.0248,0.77586
16.184,0.030912,0.27468,0.16873,1.0446,0.79557
16.192,0.021638,0.30108,0.10372,1.0545,0.84975
16.2,0.012365,0.33822,0.043344,1.0347,0.89409
16.208,0.0030912,0.38514,0.018576,1.0297,0.91379
16.216,-0.0046368,0.43793,0.013932,1.0248,0.91872
16.224,-0.01391,0.49365,0.018576,1.0297,0.91872
16.232,-0.023184,0.54936,0.02322,1.0248,0.91379
16.24,-0.030912,0.59922,0.02322,1.0297,0.91379
16.248,-0.037094,0.64027,0.029412,1.0248,0.90887
16.256,-0.044822,0.66764,0.034056,1.0347,0.91379
16.264,-0.049459,0.68524,0.0387,1.0347,0.90394
16.272,-0.054096,0.69697,0.043344,1.0396,0.90394
16.28,-0.060278,0.70186,0.043344,1.0297,0.89901
16.288,-0.064915,0.6999,-0.010836,1.0842,0.91872
16.296,-0.071097,0.69306,-0.13622,1.2277,0.96552
16.304,-0.075734,0.68035,-0.18111,1.401,0.91379
16.312,-0.081917,0.66471,-0.010836,1.1287,0.69951
16.32,-0.086553,0.64712,0.48452,0.10396,0.20443
16.328,-0.092736,0.62757,0.94118,-0.59406,-0.1798
16.336,-0.097372,0.60704,1.1471,-0.69307,-0.23399
16.344,-0.10201,0.58456,1.161,-0.29208,0.10099
16.352,-0.1051,0.56207,0.93034,0.029703,0.34975
16.36,-0.10819,0.54057,0.59598,0.50495,0.63054
16.368,-0.11128,0.52102,0.20433,0.88119,0.87931
16.376,-0.11437,0.49853,0.0092879,1.099,1
16.384,-0.11592,0.47507,-0.06192,1.1634,1.0394
16.392,-0.11747,0.45064,-0.091331,1.203,1.0591
16.4,-0.11901,0.42815,-0.091331,1.2178,1.0591
16.408,-0.12056,0.40665,-0.091331,1.2376,1.0591
16.416,-0.12056,0.3871,-0.095975,1.2376,1.0591
16.424,-0.12056,0.37048,-0.095975,1.2475,1.0591
16.432,-0.12056,0.35679,-0.091331,1.2525,1.0542
16.44,-0.11901,0.34506,-0.082043,1.2624,1.0542
16.448,-0.11901,0.33529,-0.075851,1.2723,1.0493
16.456,-0.11747,0.32942,-0.06192,1.2871,1.0394
16.464,-0.11437,0.32551,-0.055728,1.302,1.0345
16.472,-0.11283,0.32356,-0.04644,1.3218,1.0246
16.48,-0.11128,0.3216,-0.035604,1.3317,1.0148
16.488,-0.10819,0.3216,-0.021672,1.3564,1.0099
16.496,-0.10665,0.3216,-0.0061919,1.3713,1
16.504,-0.10355,0.32258,-0.001548,1.3861,0.99015
16.512,-0.10046,0.32454,0.018576,1.396,0.9803
16.52,-0.098918,0.32551,0.029412,1.4059,0.97537
16.528,-0.095827,0.32551,0.0387,1.4109,0.96552
16.536,-0.092736,0.32551,0.05418,1.401,0.95567
16.544,-0.089645,0.32454,0.069659,1.3911,0.94089
16.552,-0.088099,0.32258,0.089783,1.3812,0.92611
16.56,-0.085008,0.31965,0.094427,1.3663,0.91379
16.568,-0.081917,0.31769,0.11455,1.3317,0.89409
16.576,-0.078825,0.31476,0.12384,1.3119,0.88424
16.584,-0.07728,0.31085,0.12848,1.2772,0.86946
16.592,-0.074189,0.30596,0.13467,1.2426,0.86453
16.6,-0.071097,0.30205,0.12848,1.2079,0.85468
16.608,-0.068006,0.29814,0.1192,1.1733,0.85961
16.616,-0.063369,0.29423,0.11455,1.1386,0.85961
16.624,-0.060278,0.2913,0.099071,1.1188,0.86453
16.632,-0.057187,0.28739,0.089783,1.099,0.86946
16.64,-0.054096,0.28446,0.078947,1.0941,0.87931
16.648,-0.051005,0.28055,0.074303,1.0792,0.88424
16.656,-0.047913,0.27761,0.063467,1.0792,0.88916
16.664,-0.044822,0.27566,0.063467,1.0743,0.89409
16.672,-0.041731,0.27273,0.05418,1.0792,0.89901
16.68,-0.040185,0.26979,0.049536,1.0842,0.90394
16.688,-0.037094,0.26686,0.049536,1.0941,0.90887
16.696,-0.037094,0.26393,0.043344,1.099,0.90887
16.704,-0.035549,0.26002,0.049536,1.104,0.90394
16.712,-0.035549,0.25611,0.049536,1.1089,0.90394
16.72,-0.035549,0.25318,0.049536,1.1188,0.90887
16.728,-0.037094,0.24927,0.0387,1.1188,0.91379
16.736,-0.037094,0.24633,0.0387,1.1238,0.91379
16.744,-0.037094,0.2434,0.0387,1.1287,0.91379
16.752,-0.037094,0.24047,0.0387,1.1188,0.91379
16.76,-0.03864,0.23851,0.0387,1.1188,0.91379
16.768,-0.040185,0.23656,0.034056,1.1139,0.91379
16.776,-0.043277,0.23363,0.0387,1.1188,0.91379
16.784,-0.044822,0.22972,0.069659,1.1386,0.89901
16.792,-0.047913,0.22581,0.089783,1.1436,0.87931
16.8,-0.051005,0.22287,0.10836,1.1188,0.86946
16.808,-0.055641,0.21994,0.11455,1.1386,0.86453
16.816,-0.058733,0.21799,0.17492,1.1436,0.81034
16.824,-0.061824,0.22092,0.22446,1.0891,0.76601
16.832,-0.064915,0.22874,0.20433,1.0446,0.77586
16.84,-0.066461,0.24536,0.18421,1.0198,0.79064
16.848,-0.069552,0.27175,0.15944,1.0149,0.80049
16.856,-0.072643,0.30205,0.12384,1.0495,0.83498
16.864,-0.074189,0.33724,0.058824,1.0297,0.88916
16.872,-0.07728,0.38319,0.013932,1.0248,0.91872
16.88,-0.080371,0.435,-0.001548,1.0248,0.93596
16.888,-0.081917,0.48778,0.004644,1.0248,0.93103
16.896,-0.083462,0.53666,0.004644,1.0248,0.93596
16.904,-0.083462,0.57967,0.0092879,1.0248,0.92611
16.912,-0.083462,0.61388,0.0092879,1.0248,0.92611
16.92,-0.083462,0.63832,0.018576,1.0248,0.92611
16.928,-0.083462,0.65298,0.018576,1.0297,0.92611
16.936,-0.081917,0.65885,0.02322,1.0297,0.91872
16.944,-0.080371,0.65787,0.029412,1.0347,0.91872
16.952,-0.080371,0.65005,0.018576,1.0347,0.91379
16.96,-0.078825,0.64027,-0.066563,1.1188,0.95567
16.968,-0.078825,0.62757,-0.17183,1.2723,0.9803
16.976,-0.07728,0.6129,-0.19659,1.4257,0.90887
16.984,-0.075734,0.59531,0.074303,0.92574,0.60591
16.992,-0.074189,0.57771,0.58978,-0.12376,0.10099
17,-0.071097,0.55816,0.98142,-0.66337,-0.20936
17.008,-0.069552,0.53763,1.1471,-0.69802,-0.23399
17.016,-0.066461,0.51613,1.031,-0.23267,0.18473
17.024,-0.063369,0.49365,0.85139,0.14851,0.42611
17.032,-0.060278,0.47116,0.45511,0.60396,0.72906
17.04,-0.058733,0.4477,0.1192,0.9505,0.93103
17.048,-0.055641,0.42424,-0.03096,1.1139,1.0246
17.056,-0.05255,0.40469,-0.082043,1.1782,1.0542
17.064,-0.049459,0.3871,-0.10062,1.2079,1.0739
17.072,-0.046368,0.37048,-0.10681,1.2327,1.0788
17.08,-0.041731,0.35386,-0.10062,1.2327,1.069
17.088,-0.037094,0.34018,-0.10681,1.2376,1.0739
17.096,-0.032458,0.32845,-0.10062,1.2475,1.069
17.104,-0.027821,0.31867,-0.10062,1.2574,1.064
17.112,-0.023184,0.31085,-0.095975,1.2673,1.0591
17.12,-0.017002,0.30596,-0.082043,1.2772,1.0542
17.128,-0.010819,0.30303,-0.075851,1.2871,1.0443
17.136,-0.0046368,0.30108,-0.066563,1.302,1.0394
17.144,0.0015456,0.30108,-0.051084,1.3168,1.0345
17.152,0.0061824,0.30205,-0.04644,1.3317,1.0296
17.16,0.012365,0.30401,-0.03096,1.3564,1.0197
17.168,0.017002,0.30499,-0.021672,1.3713,1.0099
17.176,0.021638,0.30596,-0.0061919,1.3911,1.0049
17.184,0.027821,0.30596,0.004644,1.396,0.98522
17.192,0.032458,0.30596,0.018576,1.401,0.9803
17.2,0.03864,0.30499,0.034056,1.3911,0.96552
17.208,0.041731,0.30401,0.043344,1.3911,0.96059
17.216,0.046368,0.30987,0.058824,1.3812,0.94581
17.224,0.049459,0.31965,0.074303,1.3713,0.93596
17.232,0.05255,0.32258,0.089783,1.3515,0.91379
17.24,0.057187,0.32258,0.10836,1.3267,0.89901
17.248,0.060278,0.32063,0.11455,1.302,0.88424
17.256,0.064915,0.31867,0.12384,1.2673,0.86946
17.264,0.068006,0.31672,0.1192,1.2327,0.86946
17.272,0.071097,0.31378,0.11455,1.203,0.86453
17.28,0.075734,0.31085,0.10836,1.1683,0.86946
17.288,0.078825,0.30694,0.094427,1.1436,0.86946
17.296,0.081917,0.30401,0.083591,1.1188,0.87438
17.304,0.085008,0.30108,0.074303,1.104,0.88424
17.312,0.088099,0.29814,0.063467,1.0891,0.88916
17.32,0.09119,0.29521,0.063467,1.0842,0.88916
17.328,0.094281,0.29326,0.05418,1.0792,0.89409
17.336,0.095827,0.29032,0.058824,1.0792,0.89409
17.344,0.098918,0.28837,0.05418,1.0743,0.89409
17.352,0.10046,0.28543,0.05418,1.0792,0.89901
17.36,0.10201,0.28348,0.043344,1.0941,0.90394
17.368,0.10201,0.2825,0.043344,1.099,0.90887
17.376,0.10355,0.27957,0.0387,1.1089,0.91379
17.384,0.10355,0.27664,0.0387,1.1139,0.90887
17.392,0.10355,0.2737,0.0387,1.1188,0.90887
17.4,0.10046,0.26979,0.0387,1.1188,0.91379
17.408,0.098918,0.26686,0.0387,1.1238,0.91379
17.416,0.095827,0.26393,0.0387,1.1188,0.91379
17.424,0.094281,0.261,0.0387,1.1188,0.91379
17.432,0.089645,0.25904,0.034056,1.1089,0.91379
17.44,0.086553,0.25611,0.0387,1.1139,0.90887
17.448,0.081917,0.25318,0.043344,1.104,0.90394
17.456,0.07728,0.25122,0.063467,1.1386,0.89409
17.464,0.072643,0.24927,0.089783,1.1337,0.87931
17.472,0.068006,0.24731,0.10372,1.1188,0.86946
17.48,0.064915,0.24438,0.10836,1.1139,0.86453
17.488,0.060278,0.2434,0.1548,1.1386,0.82512
17.496,0.055641,0.24633,0.21362,1.0941,0.77094
17.504,0.05255,0.25513,0.20433,1.0545,0.77586
17.512,0.047913,0.27273,0.18421,1.0149,0.78079
17.52,0.044822,0.30108,0.16873,1.0099,0.80049
17.528,0.041731,0.33822,0.13932,1.0297,0.8202
17.536,0.03864,0.38416,0.078947,1.0446,0.87438
17.544,0.035549,0.435,0.029412,1.0297,0.91379
17.552,0.032458,0.4868,-0.001548,1.0248,0.93596
17.56,0.030912,0.53079,0.004644,1.0198,0.94089
17.568,0.029366,0.56794,0.004644,1.0248,0.93596
17.576,0.027821,0.60215,0.0092879,1.0248,0.93596
17.584,0.027821,0.6305,0.0092879,1.0248,0.93103
17.592,0.027821,0.65005,0.013932,1.0297,0.92611
17.6,0.026275,0.66178,0.018576,1.0347,0.91872
17.608,0.026275,0.66569,0.018576,1.0396,0.92611
17.616,0.026275,0.66373,0.018576,1.0297,0.92611
17.624,0.027821,0.65591,0.018576,1.0347,0.91872
17.632,0.027821,0.64321,-0.035604,1.0842,0.94581
17.64,0.027821,0.62854,-0.15635,1.2228,0.99015
17.648,0.027821,0.61193,-0.20588,1.3911,0.93596
17.656,0.029366,0.59629,-0.04644,1.396,0.72414
17.664,0.029366,0.58065,0.43498,0.16337,0.24384
17.672,0.030912,0.56207,0.91641,-0.57921,-0.16502
17.68,0.030912,0.5435,1.1161,-0.70792,-0.22414
17.688,0.032458,0.52297,1.1471,-0.32178,0.11084
17.696,0.034003,0.50342,0.90093,0.024752,0.36946
17.704,0.035549,0.48289,0.56966,0.49505,0.65517
17.712,0.03864,0.46237,0.18421,0.86634,0.89901
17.72,0.040185,0.44086,-0.0061919,1.0891,1.0197
17.728,0.041731,0.42131,-0.082043,1.1683,1.0591
17.736,0.044822,0.40176,-0.10062,1.2079,1.0739
17.744,0.046368,0.38416,-0.10681,1.2228,1.0788
17.752,0.049459,0.3695,-0.10062,1.2277,1.0788
17.76,0.05255,0.35875,-0.10681,1.2376,1.0788
17.768,0.054096,0.34995,-0.10062,1.2376,1.0788
17.776,0.057187,0.34409,-0.10062,1.2525,1.0739
17.784,0.060278,0.3392,-0.10062,1.2574,1.069
17.792,0.063369,0.33627,-0.095975,1.2723,1.064
17.8,0.064915,0.33431,-0.082043,1.2772,1.0542
17.808,0.068006,0.33333,-0.082043,1.2921,1.0542
17.816,0.071097,0.33236,-0.066563,1.302,1.0394
17.824,0.074189,0.33236,-0.051084,1.3218,1.0345
17.832,0.075734,0.33236,-0.035604,1.3317,1.0246
17.84,0.078825,0.33236,-0.026316,1.3564,1.0197
17.848,0.080371,0.33236,-0.021672,1.3713,1.0099
17.856,0.083462,0.33236,-0.001548,1.3812,1
17.864,0.085008,0.33236,0.004644,1.3861,0.98522
17.872,0.086553,0.33236,0.018576,1.3861,0.9803
17.88,0.088099,0.33138,0.029412,1.3812,0.97044
17.888,0.09119,0.3304,0.049536,1.3812,0.96059
17.896,0.094281,0.32942,0.058824,1.3614,0.95074
17.904,0.097372,0.32649,0.074303,1.3515,0.94089
17.912,0.10046,0.32356,0.089783,1.3218,0.91379
17.92,0.1051,0.32063,0.10836,1.297,0.89409
17.928,0.10974,0.31769,0.11455,1.2624,0.88424
17.936,0.11437,0.31378,0.11455,1.2277,0.87931
17.944,0.11901,0.31085,0.11455,1.1931,0.87438
17.952,0.12365,0.30792,0.099071,1.1634,0.87931
17.96,0.12828,0.30596,0.089783,1.1386,0.88424
17.968,0.13292,0.30303,0.083591,1.1188,0.88916
17.976,0.1391,0.3001,0.063467,1.099,0.89409
17.984,0.14529,0.29717,0.058824,1.0891,0.89409
17.992,0.15147,0.29423,0.049536,1.0842,0.90394
18,0.15765,0.2913,0.0387,1.0743,0.90887
18.008,0.16538,0.28739,0.0387,1.0842,0.91379
18.016,0.17156,0.28446,0.0387,1.0792,0.91379
18.024,0.17929,0.28152,0.029412,1.0842,0.91872
18.032,0.18702,0.27859,0.018576,1.0891,0.91872
18.04,0.19474,0.27566,0.029412,1.099,0.92611
18.048,0.20247,0.27175,0.02322,1.099,0.92611
18.056,0.21175,0.26882,0.018576,1.1139,0.93103
18.064,0.22102,0.26588,0.018576,1.1139,0.93103
18.072,0.23029,0.26295,0.018576,1.1188,0.93596
18.08,0.23957,0.261,0.013932,1.1188,0.94089
18.088,0.25039,0.25806,0.0092879,1.1188,0.93596
18.096,0.25966,0.25709,0.004644,1.1139,0.93596
18.104,0.27048,0.25513,0.013932,1.1188,0.94089
18.112,0.27975,0.25318,0.013932,1.1089,0.93596
18.12,0.29057,0.25024,0.013932,1.1089,0.94089
18.128,0.30139,0.24731,0.018576,1.104,0.93596
18.136,0.31221,0.24438,0.049536,1.1337,0.91379
18.144,0.32457,0.24145,0.074303,1.1386,0.89901
18.152,0.33849,0.23851,0.089783,1.1139,0.89409
18.16,0.3524,0.23851,0.094427,1.1188,0.88424
18.168,0.36476,0.23851,0.14861,1.1287,0.83498
18.176,0.37713,0.2434,0.20433,1.0842,0.79064
18.184,0.38949,0.25415,0.18421,1.0446,0.80049
18.192,0.40185,0.27468,0.15944,1.0198,0.8202
18.2,0.41577,0.30401,0.14396,1.0149,0.82512
18.208,0.42968,0.34115,0.10372,1.0495,0.85961
18.216,0.44513,0.38612,0.0387,1.0297,0.90394
18.224,0.46059,0.43402,-0.0061919,1.0248,0.94581
18.232,0.47913,0.48192,-0.021672,1.0248,0.95567
18.24,0.49614,0.52688,-0.026316,1.0248,0.95567
18.248,0.51468,0.565,-0.026316,1.0149,0.95567
18.256,0.53478,0.59335,-0.01548,1.0198,0.94581
18.264,0.55023,0.61193,-0.010836,1.0198,0.94089
18.272,0.56723,0.62659,-0.0061919,1.0297,0.94581
18.28,0.58269,0.63441,-0.010836,1.0248,0.94089
18.288,0.59815,0.63636,-0.001548,1.0297,0.93596
18.296,0.61515,0.63148,-0.001548,1.0248,0.94089
18.304,0.63215,0.62268,-0.001548,1.0347,0.93596
18.312,0.6507,0.61095,-0.066563,1.0891,0.96059
18.32,0.6677,0.59629,-0.18111,1.2327,0.99507
18.328,0.6847,0.58065,-0.20124,1.4208,0.93103
18.336,0.70015,0.56403,0.034056,1.4257,0.68966
18.344,0.71561,0.54643,0.58514,0.18812,0.18966
18.352,0.72952,0.53079,1.031,-0.5,-0.16995
18.36,0.74652,0.51417,1.192,-0.59406,-0.19458
18.368,0.76198,0.4956,1.0712,-0.22772,0.1798
18.376,0.77898,0.47605,0.8452,0.11386,0.43596
18.384,0.79598,0.45552,0.43963,0.55941,0.73892
18.392,0.81453,0.43597,0.099071,0.90594,0.95567
18.4,0.83153,0.4174,-0.055728,1.0941,1.0394
18.408,0.85008,0.40078,-0.12074,1.1584,1.0739
18.416,0.86862,0.38514,-0.13158,1.1931,1.0837
18.424,0.88408,0.37243,-0.12693,1.2129,1.0788
18.432,0.90108,0.36266,-0.12693,1.2129,1.0788
18.44,0.91499,0.35484,-0.13622,1.2178,1.0788
18.448,0.9289,0.34897,-0.13158,1.2178,1.0788
18.456,0.94436,0.34506,-0.12074,1.2376,1.0788
18.464,0.95981,0.34311,-0.12693,1.2327,1.069
18.472,0.97527,0.34213,-0.11146,1.2426,1.0591
18.48,0.99073,0.34115,-0.091331,1.2525,1.0443
18.488,1.0046,0.34213,-0.086687,1.2723,1.0394
18.496,1.0185,0.34311,-0.075851,1.2822,1.0345
18.504,1.0309,0.34506,-0.06192,1.302,1.0246
18.512,1.0448,0.34702,-0.055728,1.3119,1.0197
18.52,1.0572,0.34897,-0.04644,1.3317,1.0148
18.528,1.0711,0.35093,-0.026316,1.3416,1
18.536,1.0866,0.35191,-0.010836,1.3564,0.99507
18.544,1.1005,0.35191,-0.0061919,1.3614,0.98522
18.552,1.1159,0.35288,0.013932,1.3564,0.97044
18.56,1.1298,0.35288,0.02322,1.3614,0.96552
18.568,1.1453,0.35191,0.0387,1.3416,0.94581
18.576,1.1592,0.35093,0.05418,1.3267,0.94089
18.584,1.1716,0.34897,0.069659,1.3119,0.91872
18.592,1.1855,0.34604,0.089783,1.302,0.90887
18.6,1.1963,0.34311,0.099071,1.2723,0.89409
18.608,1.2071,0.34018,0.11455,1.2475,0.87438
18.616,1.2179,0.33627,0.11455,1.2129,0.86946
18.624,1.2287,0.33236,0.11455,1.1881,0.86946
18.632,1.2411,0.32942,0.10372,1.1584,0.86453
18.64,1.2519,0.32551,0.099071,1.1386,0.86946
18.648,1.2628,0.32356,0.089783,1.1188,0.86946
18.656,1.272,0.3216,0.083591,1.1139,0.87438
18.664,1.2813,0.31965,0.069659,1.099,0.88424
18.672,1.2906,0.31867,0.063467,1.099,0.89409
18.68,1.2906,0.31672,0.063467,1.0941,0.89409
18.688,1.2906,0.31476,0.058824,1.099,0.89901
18.696,1.2906,0.31183,0.05418,1.099,0.89901
18.704,1.2906,0.3089,0.05418,1.104,0.90394
18.712,1.2906,0.30694,0.049536,1.099,0.90394
18.72,1.2906,0.30401,0.05418,1.1089,0.90887
18.728,1.2906,0.30205,0.049536,1.1188,0.90887
18.736,1.2906,0.29912,0.049536,1.1139,0.90887
18.744,1.2906,0.29717,0.043344,1.1188,0.90394
18.752,1.2906,0.29619,0.043344,1.1188,0.90394
18.76,1.2906,0.29521,0.049536,1.1188,0.90394
18.768,1.2906,0.29326,0.049536,1.1238,0.90887
18.776,1.2906,0.2913,0.049536,1.1139,0.89901
18.784,1.2906,0.28935,0.049536,1.1188,0.90394
18.792,1.2906,0.28739,0.049536,1.1089,0.89409
18.8,1.2906,0.28543,0.05418,1.1089,0.89901
18.808,1.2906,0.2825,0.074303,1.1238,0.88916
18.816,1.2906,0.28055,0.10372,1.1436,0.87438
18.824,1.2906,0.27859,0.1192,1.1337,0.86453
18.832,1.2906,0.27566,0.12848,1.1139,0.85468
18.84,1.2906,0.27468,0.14861,1.1485,0.83498
18.848,1.2906,0.27468,0.21981,1.1238,0.77586
18.856,1.2906,0.27859,0.24458,1.0842,0.74877
18.864,1.2906,0.28641,0.21981,1.0396,0.77094
18.872,1.2906,0.30303,0.19969,1.0347,0.78079
18.88,1.2906,0.32747,0.17492,1.0396,0.80049
18.888,1.2906,0.36168,0.12384,1.0644,0.84483
18.896,1.2906,0.40371,0.05418,1.0347,0.88916
18.904,1.2828,0.44966,0.02322,1.0347,0.91379
18.912,1.2736,0.49658,0.013932,1.0248,0.92611
18.92,1.2628,0.54154,0.013932,1.0396,0.92611
18.928,1.2519,0.58162,0.018576,1.0248,0.91379
18.936,1.238,0.6129,0.02322,1.0347,0.91872
18.944,1.2241,0.63539,0.02322,1.0248,0.91379
18.952,1.2087,0.64907,0.034056,1.0396,0.90887
18.96,1.1932,0.65396,0.034056,1.0297,0.90887
18.968,1.1793,0.65396,0.034056,1.0446,0.91379
18.976,1.1638,0.64809,0.0387,1.0396,0.90887
18.984,1.1499,0.63734,0.02322,1.0545,0.91379
18.992,1.136,0.62268,-0.091331,1.1584,0.96059
19,1.1206,0.60606,-0.17647,1.3317,0.97044
19.008,1.1036,0.58749,-0.19195,1.4307,0.85961
19.016,1.0866,0.56794,0.25387,0.68812,0.45074
19.024,1.0696,0.54643,0.81115,-0.28713,-0.049261
19.032,1.0526,0.5259,1.096,-0.61881,-0.22414
19.04,1.0355,0.5044,1.1873,-0.37624,-0.034483
19.048,1.0185,0.48289,1.0217,-0.11881,0.25123
19.056,1.0031,0.46432,0.76625,0.31188,0.50493
19.064,0.98764,0.44673,0.32508,0.74257,0.81527
19.072,0.97218,0.42913,0.063467,1.0297,0.96552
19.08,0.95827,0.41153,-0.041796,1.1337,1.0246
19.088,0.94436,0.39394,-0.082043,1.1931,1.0493
19.096,0.93045,0.37928,-0.086687,1.2129,1.0542
19.104,0.91654,0.36559,-0.082043,1.2327,1.0542
19.112,0.90108,0.35484,-0.082043,1.2277,1.0493
19.12,0.88717,0.34604,-0.082043,1.2426,1.0493
19.128,0.87481,0.34018,-0.075851,1.2426,1.0443
19.136,0.8609,0.33529,-0.075851,1.2574,1.0443
19.144,0.85008,0.33333,-0.075851,1.2624,1.0345
19.152,0.83771,0.33236,-0.06192,1.2822,1.0345
19.16,0.82535,0.33236,-0.055728,1.2871,1.0296
19.168,0.81298,0.33236,-0.051084,1.302,1.0246
19.176,0.79907,0.33236,-0.035604,1.3119,1.0099
19.184,0.78671,0.33236,-0.026316,1.3317,1.0099
19.192,0.7728,0.33236,-0.01548,1.3564,0.99507
19.2,0.75889,0.33236,-0.001548,1.3762,0.99015
19.208,0.74652,0.33236,0.0092879,1.3861,0.98522
19.216,0.73261,0.33236,0.02322,1.401,0.97044
19.224,0.72179,0.33138,0.034056,1.401,0.96552
19.232,0.70943,0.3304,0.049536,1.396,0.95567
19.24,0.69861,0.32942,0.063467,1.401,0.94581
19.248,0.68934,0.32845,0.074303,1.3812,0.94089
19.256,0.67852,0.32845,0.089783,1.3762,0.92611
19.264,0.6677,0.33333,0.10372,1.3515,0.90394
19.272,0.65688,0.34018,0.12384,1.3267,0.88916
19.28,0.6476,0.34213,0.13467,1.2921,0.86946
19.288,0.63679,0.34115,0.14396,1.2673,0.85961
19.296,0.62751,0.33822,0.13932,1.2228,0.85468
19.304,0.61978,0.33431,0.13932,1.198,0.84975
19.312,0.61051,0.3304,0.12384,1.1584,0.85468
19.32,0.60124,0.32747,0.1192,1.1436,0.86453
19.328,0.59042,0.32356,0.10836,1.1188,0.86453
19.336,0.5796,0.31965,0.099071,1.1188,0.87438
19.344,0.56878,0.31574,0.089783,1.099,0.87931
19.352,0.55641,0.31378,0.083591,1.099,0.88916
19.36,0.54405,0.31183,0.074303,1.0941,0.89409
19.368,0.53168,0.30987,0.074303,1.099,0.89409
19.376,0.51777,0.30792,0.069659,1.099,0.89409
19.384,0.50386,0.30596,0.069659,1.099,0.89409
19.392,0.4915,0.30401,0.063467,1.1089,0.89409
19.4,0.47913,0.30303,0.063467,1.104,0.89409
19.408,0.46677,0.30108,0.069659,1.1188,0.89409
19.416,0.45286,0.29912,0.069659,1.1089,0.89409
19.424,0.4374,0.29619,0.063467,1.1188,0.89409
19.432,0.42195,0.29423,0.05418,1.1188,0.89409
19.44,0.40649,0.2913,0.058824,1.1238,0.89409
19.448,0.39258,0.28837,0.049536,1.1188,0.89901
19.456,0.37867,0.28739,0.049536,1.1238,0.90394
19.464,0.36476,0.28641,0.049536,1.1139,0.90394
19.472,0.35085,0.28543,0.049536,1.1188,0.90887
19.48,0.33694,0.28348,0.05418,1.1089,0.90394
19.488,0.32303,0.28152,0.074303,1.1287,0.89409
19.496,0.30912,0.27957,0.099071,1.1386,0.87438
19.504,0.29521,0.27761,0.11455,1.1436,0.86946
19.512,0.2813,0.27566,0.12384,1.1188,0.85468
19.52,0.26739,0.27468,0.15944,1.1485,0.83498
19.528,0.25348,0.27761,0.22446,1.1139,0.76601
19.536,0.23957,0.28446,0.23994,1.0743,0.74877
19.544,0.22875,0.30108,0.21362,1.0297,0.76601
19.552,0.21638,0.3216,0.19969,1.0198,0.77586
19.56,0.20711,0.34897,0.16409,1.0396,0.80049
19.568,0.19629,0.3871,0.11455,1.0545,0.84975
19.576,0.18702,0.43402,0.049536,1.0347,0.89409
19.584,0.1762,0.48485,0.018576,1.0297,0.91379
19.592,0.16692,0.53568,0.018576,1.0396,0.91872
19.6,0.15765,0.58358,0.018576,1.0248,0.92611
19.608,0.14838,0.62366,0.018576,1.0446,0.91379
19.616,0.14065,0.65689,0.029412,1.0297,0.91379
19.624,0.13447,0.67937,0.029412,1.0446,0.91379
19.632,0.12674,0.69404,0.029412,1.0347,0.91379
19.64,0.12056,0.6999,0.0387,1.0495,0.90887
19.648,0.11437,0.69795,0.0387,1.0396,0.90394
19.656,0.10819,0.6911,0.0387,1.0495,0.90887
19.664,0.10046,0.68133,0.004644,1.0446,0.91872
19.672,0.094281,0.66764,-0.12074,1.1931,0.97044
19.68,0.089645,0.65005,-0.19195,1.3614,0.94581
19.688,0.083462,0.63148,-0.11146,1.4356,0.80542
19.696,0.07728,0.61193,0.32972,0.40594,0.34483
19.704,0.072643,0.5914,0.82508,-0.4505,-0.10099
19.712,0.069552,0.56891,1.082,-0.69307,-0.23399
19.72,0.064915,0.54643,1.1517,-0.36139,0.029557
19.728,0.061824,0.52395,0.96594,-0.084158,0.29064
19.736,0.058733,0.50147,0.6904,0.38614,0.55419
19.744,0.055641,0.47996,0.27399,0.79208,0.8399
19.752,0.05255,0.46139,0.0387,1.0594,0.98522
19.76,0.049459,0.44575,-0.055728,1.1535,1.0345
19.768,0.047913,0.43011,-0.086687,1.203,1.0591
19.776,0.046368,0.41544,-0.091331,1.2228,1.064
19.784,0.044822,0.40371,-0.086687,1.2376,1.0591
19.792,0.044822,0.39394,-0.086687,1.2426,1.0591
19.8,0.043277,0.38612,-0.082043,1.2525,1.0542
19.808,0.043277,0.38025,-0.075851,1.2574,1.0542
19.816,0.043277,0.37732,-0.075851,1.2673,1.0493
19.824,0.043277,0.37537,-0.071207,1.2822,1.0394
19.832,0.043277,0.37439,-0.055728,1.2871,1.0345
19.84,0.043277,0.37439,-0.051084,1.3069,1.0296
19.848,0.043277,0.37439,-0.035604,1.3168,1.0197
19.856,0.043277,0.37537,-0.03096,1.3366,1.0099
19.864,0.044822,0.37537,-0.021672,1.3515,1.0099
19.872,0.044822,0.37537,-0.0061919,1.3762,1.0049
19.88,0.046368,0.37537,-0.001548,1.3861,0.99015
19.888,0.047913,0.37537,0.013932,1.4059,0.99015
19.896,0.049459,0.37537,0.02322,1.4059,0.97537
19.904,0.051005,0.37537,0.0387,1.4208,0.96552
19.912,0.05255,0.37341,0.049536,1.401,0.96059
19.92,0.05255,0.37146,0.063467,1.4059,0.94581
19.928,0.054096,0.3695,0.078947,1.3861,0.93596
19.936,0.055641,0.36657,0.089783,1.3812,0.91872
19.944,0.058733,0.36364,0.10836,1.3515,0.89901
19.952,0.060278,0.36168,0.12384,1.3317,0.88916
19.96,0.061824,0.35875,0.13467,1.2921,0.86946
19.968,0.063369,0.35582,0.13467,1.2624,0.86453
19.976,0.064915,0.35288,0.13467,1.2277,0.84975
19.984,0.066461,0.34995,0.13467,1.198,0.84975
19.992,0.066461,0.34604,0.12384,1.1634,0.84975
20,0.068006,0.34311,0.10836,1.1436,0.85961
20.008,0.069552,0.3392,0.099071,1.1188,0.86453
20.016,0.069552,0.33627,0.089783,1.1139,0.86946
20.024,0.071097,0.33333,0.083591,1.1188,0.87931
20.032,0.071097,0.3304,0.074303,1.099,0.88424
20.04,0.071097,0.32747,0.069659,1.104,0.88916
20.048,0.071097,0.32551,0.063467,1.0941,0.89409
20.056,0.069552,0.32356,0.063467,1.099,0.89409
20.064,0.068006,0.3216,0.063467,1.0941,0.89409
20.072,0.066461,0.31867,0.058824,1.1139,0.89901
20.08,0.064915,0.31574,0.05418,1.1089,0.89409
20.088,0.063369,0.31378,0.058824,1.1188,0.89901
20.096,0.061824,0.31183,0.05418,1.1188,0.89901
20.104,0.060278,0.3089,0.058824,1.1287,0.89901
20.112,0.058733,0.30694,0.05418,1.1188,0.89901
20.12,0.055641,0.30499,0.05418,1.1287,0.89901
20.128,0.05255,0.30303,0.049536,1.1188,0.89901
20.136,0.049459,0.3001,0.049536,1.1238,0.89901
20.144,0.046368,0.29814,0.05418,1.1139,0.89409
20.152,0.041731,0.29619,0.058824,1.1188,0.89409
20.16,0.037094,0.29521,0.058824,1.104,0.89409
20.168,0.034003,0.29228,0.074303,1.1337,0.89409
20.176,0.029366,0.28935,0.099071,1.1436,0.86946
20.184,0.02473,0.28641,0.1192,1.1287,0.85961
20.192,0.021638,0.28348,0.12384,1.1238,0.85468
20.2,0.018547,0.2825,0.15944,1.1535,0.82512
20.208,0.015456,0.28543,0.23375,1.1188,0.76108
20.216,0.01391,0.29521,0.23994,1.0743,0.74877
20.224,0.010819,0.31378,0.20898,1.0396,0.77094
20.232,0.007728,0.34213,0.18421,1.0248,0.78079
20.24,0.0046368,0.38025,0.15944,1.0495,0.80542
20.248,0.0030912,0.41935,0.094427,1.0545,0.85961
20.256,0,0.46041,0.0387,1.0446,0.89901
20.264,-0.0015456,0.50831,0.018576,1.0347,0.91872
20.272,-0.0030912,0.55816,0.0092879,1.0396,0.93103
20.28,-0.0046368,0.60508,0.013932,1.0297,0.93103
20.288,-0.0046368,0.64516,0.018576,1.0396,0.91872
20.296,-0.0046368,0.67742,0.018576,1.0347,0.91379
20.304,-0.0061824,0.6999,0.029412,1.0446,0.91872
20.312,-0.0061824,0.71261,0.029412,1.0396,0.91379
20.32,-0.0061824,0.7175,0.034056,1.0495,0.91379
20.328,-0.0061824,0.71554,0.029412,1.0396,0.90887
20.336,-0.007728,0.70674,0.0387,1.0495,0.90887
20.344,-0.007728,0.69404,-0.010836,1.0792,0.91872
20.352,-0.0061824,0.67937,-0.13622,1.2178,0.9803
20.36,-0.0061824,0.66373,-0.19659,1.3911,0.94089
20.368,-0.0061824,0.64516,-0.075851,1.4356,0.76601
20.376,-0.0046368,0.62659,0.36533,0.30198,0.30542
20.384,-0.0030912,0.60606,0.86068,-0.5198,-0.13054
20.392,-0.0015456,0.58456,1.096,-0.68812,-0.22414
20.4,0.0015456,0.56305,1.1471,-0.35149,0.068966
20.408,0.0030912,0.54154,0.93653,-0.039604,0.3202
20.416,0.0046368,0.51906,0.64087,0.44059,0.59113
20.424,0.0061824,0.49658,0.23375,0.84158,0.86453
20.432,0.0092736,0.47507,0.013932,1.0842,0.99507
20.44,0.010819,0.45552,-0.066563,1.1683,1.0443
20.448,0.01391,0.43891,-0.091331,1.203,1.0591
20.456,0.017002,0.4262,-0.091331,1.2376,1.064
20.464,0.021638,0.41447,-0.091331,1.2426,1.064
20.472,0.02473,0.40469,-0.091331,1.2525,1.0591
20.48,0.027821,0.39589,-0.091331,1.2574,1.0542
20.488,0.030912,0.39003,-0.086687,1.2673,1.0591
20.496,0.034003,0.38612,-0.075851,1.2673,1.0542
20.504,0.037094,0.38416,-0.071207,1.2921,1.0493
20.512,0.040185,0.38416,-0.066563,1.2921,1.0345
20.52,0.041731,0.38514,-0.055728,1.3119,1.0345
20.528,0.044822,0.3871,-0.051084,1.3119,1.0246
20.536,0.047913,0.38905,-0.035604,1.3416,1.0197
20.544,0.051005,0.39003,-0.03096,1.3564,1.0099
20.552,0.054096,0.39198,-0.010836,1.3812,1.0049
20.56,0.057187,0.39296,-0.001548,1.3911,0.99015
20.568,0.060278,0.39394,0.018576,1.4109,0.98522
20.576,0.063369,0.39394,0.029412,1.4158,0.97537
20.584,0.066461,0.39394,0.0387,1.4109,0.96552
20.592,0.069552,0.39394,0.049536,1.4257,0.96552
20.6,0.072643,0.39394,0.063467,1.401,0.95567
20.608,0.075734,0.39296,0.074303,1.396,0.94089
20.616,0.078825,0.39101,0.089783,1.3812,0.91872
20.624,0.081917,0.38807,0.10372,1.3663,0.90394
20.632,0.085008,0.38416,0.11455,1.3267,0.88916
20.64,0.089645,0.38025,0.12384,1.302,0.86946
20.648,0.092736,0.37634,0.13467,1.2574,0.86453
20.656,0.095827,0.37243,0.13467,1.2327,0.85961
20.664,0.098918,0.36852,0.12848,1.1931,0.85468
20.672,0.10201,0.36364,0.1192,1.1683,0.85961
20.68,0.1051,0.35973,0.10836,1.1436,0.86946
20.688,0.10819,0.35679,0.10372,1.1287,0.86946
20.696,0.11128,0.35386,0.094427,1.1139,0.86946
20.704,0.11437,0.35093,0.089783,1.1089,0.87931
20.712,0.11747,0.348,0.083591,1.099,0.88424
20.72,0.11901,0.34506,0.074303,1.104,0.88916
20.728,0.12056,0.34213,0.063467,1.099,0.89409
20.736,0.1221,0.3392,0.063467,1.1089,0.89901
20.744,0.12365,0.33724,0.058824,1.1139,0.89901
20.752,0.12365,0.33529,0.058824,1.1089,0.89901
20.76,0.12365,0.33333,0.049536,1.1188,0.90394
20.768,0.1221,0.3304,0.05418,1.1238,0.90887
20.776,0.12056,0.32747,0.043344,1.1386,0.90887
20.784,0.11901,0.32454,0.043344,1.1386,0.90887
20.792,0.11592,0.32063,0.0387,1.1436,0.91379
20.8,0.11283,0.31867,0.0387,1.1386,0.91379
20.808,0.10819,0.31672,0.043344,1.1337,0.91379
20.816,0.1051,0.31476,0.0387,1.1337,0.90887
20.824,0.10201,0.31378,0.0387,1.1287,0.90887
20.832,0.097372,0.31183,0.0387,1.1188,0.90887
20.84,0.094281,0.3089,0.043344,1.1188,0.90887
20.848,0.09119,0.30792,0.069659,1.1386,0.89409
20.856,0.088099,0.30694,0.094427,1.1485,0.87931
