Time [s], RESP, ABP, CVP, PLETH, II, V, AVR
0,1,85.072,21.395,0.30499,0.43529,0.57031,0.72157
0.008,1,83.703,20.965,0.30694,0.42941,0.57031,0.7098
0.016,1,82.529,20.769,0.30987,0.4451,0.56445,0.7098
0.024,1,81.356,20.847,0.31183,0.43529,0.57031,0.71569
0.032,1,80.183,21.004,0.31476,0.44902,0.56445,0.70588
0.04,1,79.009,21.121,0.31672,0.43922,0.57031,0.71569
0.048,1,77.836,21.082,0.31672,0.4451,0.56445,0.7098
0.056,1,76.271,20.691,0.31672,0.43922,0.57031,0.71569
0.064,1,74.707,20.261,0.31476,0.44902,0.57031,0.7098
0.072,1,73.142,20.026,0.31378,0.44902,0.58008,0.7098
0.08,1,71.186,20.026,0.31476,0.44902,0.58008,0.7098
0.088,1,69.426,20.339,0.31867,0.4451,0.58398,0.71569
0.096,1,67.666,20.691,0.32747,0.44902,0.58398,0.70588
0.104,0.99609,66.102,20.887,0.34409,0.4451,0.58984,0.7098
0.112,0.9912,64.928,20.847,0.37048,0.44902,0.58398,0.70588
0.12,0.97458,63.95,20.574,0.40665,0.4451,0.59961,0.7098
0.128,0.95797,63.168,20.261,0.45161,0.44902,0.59961,0.70588
0.136,0.94233,62.582,20.222,0.50049,0.46471,0.60547,0.70588
0.144,0.92669,61.995,20.456,0.55132,0.48431,0.61523,0.68627
0.152,0.91202,61.799,20.847,0.6002,0.49412,0.625,0.6902
0.16,0.89638,61.604,21.004,0.64321,0.5,0.62891,0.68627
0.168,0.8827,61.604,21.004,0.67937,0.51569,0.65039,0.67647
0.176,0.86804,61.799,20.847,0.70772,0.56471,0.67969,0.6451
0.184,0.85533,61.995,20.652,0.72532,0.57059,0.68555,0.63529
0.192,0.84262,62.19,20.691,0.73509,0.5549,0.67578,0.65098
0.2,0.83089,62.386,20.847,0.73998,0.5451,0.67578,0.6451
0.208,0.82014,62.582,20.965,0.73998,0.52941,0.67578,0.66078
0.216,0.80841,62.777,20.965,0.73607,0.50588,0.6543,0.67647
0.224,0.79668,62.777,20.769,0.72825,0.47451,0.63477,0.69608
0.232,0.78495,62.777,20.535,0.71652,0.44902,0.60938,0.7098
0.24,0.77322,62.582,20.456,0.70381,0.43922,0.59961,0.72157
0.248,0.76051,62.386,20.456,0.69013,0.43529,0.58984,0.71569
0.256,0.7478,62.19,20.456,0.67449,0.42941,0.58984,0.72549
0.264,0.73607,61.799,20.456,0.65982,0.43529,0.58984,0.72157
0.272,0.72336,61.408,20.339,0.64418,0.43529,0.58984,0.71569
0.28,0.71261,61.017,20.261,0.62952,0.42941,0.58398,0.71569
0.288,0.70186,60.626,20.339,0.61486,0.42549,0.58398,0.72549
0.296,0.69208,60.039,20.535,0.60215,0.43922,0.58984,0.71569
0.304,0.68231,59.648,20.691,0.58749,0.43922,0.5957,0.72157
0.312,0.67253,59.257,20.847,0.57283,0.44902,0.61523,0.70588
0.32,0.66276,58.67,20.769,0.55816,0.4451,0.66406,0.68039
0.328,0.652,58.279,20.652,0.54252,0.50588,0.78906,0.6
0.336,0.64223,57.692,20.535,0.5259,0.59608,0.97461,0.5
0.344,0.63343,57.301,20.456,0.50831,0.67059,1.1191,0.40392
0.352,0.62463,56.91,20.535,0.49071,0.5549,0.93945,0.49412
0.36,0.61584,56.323,20.769,0.47312,0.48039,0.71484,0.64118
0.368,0.60802,55.932,21.004,0.45455,0.43922,0.58984,0.7098
0.376,0.6002,55.541,21.278,0.43695,0.43529,0.56445,0.72157
0.384,0.5914,55.15,21.317,0.42131,0.42941,0.57031,0.72157
0.392,0.58358,54.759,21.278,0.40762,0.4451,0.57422,0.72157
0.4,0.57576,54.368,21.121,0.39394,0.44902,0.57422,0.72549
0.408,0.56794,53.977,21.199,0.38025,0.43922,0.58008,0.72549
0.416,0.56109,53.585,21.395,0.36755,0.44902,0.57422,0.72157
0.424,0.55425,53.194,21.63,0.35679,0.46078,0.58008,0.71569
0.432,0.54741,52.999,21.825,0.34702,0.46471,0.58008,0.70588
0.44,0.54154,52.608,21.903,0.3392,0.46078,0.58398,0.70588
0.448,0.53568,52.216,21.903,0.33236,0.47451,0.58008,0.70588
0.456,0.53079,52.021,21.943,0.32747,0.47059,0.58984,0.70588
0.464,0.52688,51.825,21.943,0.32356,0.47451,0.5957,0.7
0.472,0.52199,51.63,21.943,0.3216,0.47059,0.59961,0.70588
0.48,0.51711,51.434,21.943,0.31965,0.47451,0.59961,0.69608
0.488,0.51222,51.239,22.021,0.31867,0.47451,0.60547,0.7
0.496,0.50831,50.847,22.06,0.31769,0.48039,0.60547,0.6902
0.504,0.5044,50.652,22.138,0.31672,0.48431,0.61523,0.6902
0.512,0.50049,50.261,22.216,0.31574,0.49412,0.61914,0.68039
0.52,0.49756,50.065,22.256,0.31476,0.4902,0.61523,0.68039
0.528,0.49462,49.674,22.373,0.31281,0.50588,0.63477,0.66471
0.536,0.49169,49.283,22.451,0.31183,0.5098,0.6543,0.66471
0.544,0.48974,49.087,22.451,0.30987,0.50588,0.66406,0.6549
0.552,0.48778,48.892,22.373,0.30694,0.51961,0.67969,0.65098
0.56,0.48583,49.283,22.256,0.30401,0.53922,0.69922,0.62941
0.568,0.48289,51.434,22.06,0.30205,0.5451,0.71484,0.62941
0.576,0.48094,56.323,21.943,0.29912,0.55098,0.72461,0.61569
0.584,0.47898,63.95,21.903,0.29619,0.5549,0.73438,0.61569
0.592,0.47605,73.142,21.747,0.29423,0.55098,0.73047,0.6098
0.6,0.4741,81.943,21.708,0.2913,0.5451,0.72461,0.61569
0.608,0.47116,89.765,21.512,0.28837,0.5451,0.70508,0.62549
0.616,0.46823,96.61,21.395,0.28446,0.52549,0.68555,0.64118
0.624,0.46628,102.28,21.199,0.28152,0.5098,0.66016,0.6549
0.632,0.46237,106.39,20.965,0.27761,0.49412,0.63477,0.67059
0.64,0.45846,108.54,20.691,0.2737,0.47451,0.60547,0.68627
0.648,0.45357,108.74,20.456,0.27077,0.46471,0.58398,0.69608
0.656,0.44868,107.56,20.222,0.26686,0.44902,0.57031,0.70588
0.664,0.44379,105.61,20.026,0.26393,0.4451,0.56445,0.7098
0.672,0.43891,102.87,19.83,0.26002,0.43922,0.57031,0.71569
0.68,0.43402,100.33,19.713,0.25806,0.4451,0.56055,0.70588
0.688,0.42913,97.588,19.518,0.25611,0.43922,0.56055,0.71569
0.696,0.42131,95.046,19.283,0.25513,0.4451,0.56055,0.7098
0.704,0.41447,92.894,19.009,0.25318,0.43529,0.56055,0.72157
0.712,0.40469,90.743,18.774,0.2522,0.4451,0.56445,0.71569
0.72,0.39589,88.788,18.462,0.25122,0.43922,0.57031,0.72157
0.728,0.38612,87.027,18.188,0.25024,0.44902,0.57031,0.70588
0.736,0.37634,85.267,18.031,0.25024,0.4451,0.57031,0.71569
0.744,0.36559,83.703,17.836,0.25024,0.4451,0.57031,0.70588
0.752,0.35582,82.334,17.718,0.25122,0.4451,0.56445,0.7098
0.76,0.34506,80.769,17.562,0.2522,0.44902,0.56445,0.71569
0.768,0.33529,79.4,17.445,0.25318,0.44902,0.56445,0.7098
0.776,0.32649,78.031,17.327,0.25513,0.44902,0.56445,0.71569
0.784,0.31672,76.662,17.21,0.25709,0.44902,0.57031,0.72157
0.792,0.30694,75.098,17.132,0.25806,0.44902,0.58008,0.7098
0.8,0.29814,73.533,17.093,0.25806,0.44902,0.58008,0.7098
0.808,0.28837,71.773,17.093,0.25806,0.4549,0.58008,0.70588
0.816,0.27957,70.013,17.093,0.25806,0.46078,0.58008,0.70588
0.824,0.27077,68.253,17.014,0.261,0.44902,0.57422,0.7098
0.832,0.26295,66.688,17.014,0.26882,0.4549,0.58398,0.70588
0.84,0.25513,65.124,16.936,0.28446,0.46078,0.58984,0.71569
0.848,0.24829,63.95,16.936,0.30987,0.46471,0.58984,0.7098
0.856,0.24242,62.973,17.093,0.34604,0.46078,0.59961,0.70588
0.864,0.23656,61.995,17.327,0.39101,0.46471,0.60547,0.70588
0.872,0.23167,61.408,17.64,0.44184,0.46078,0.59961,0.7
0.88,0.22678,61.017,17.836,0.49658,0.4902,0.625,0.68627
0.888,0.22287,60.626,17.875,0.54448,0.5,0.65039,0.68039
0.896,0.21896,60.626,17.875,0.58553,0.5,0.64453,0.68039
0.904,0.21505,60.626,17.836,0.62659,0.5098,0.65039,0.67647
0.912,0.21212,60.821,17.836,0.66373,0.53922,0.66992,0.6549
0.92,0.20919,61.017,17.875,0.69306,0.57059,0.69922,0.6451
0.928,0.20723,61.213,17.953,0.71359,0.56078,0.68945,0.64118
0.936,0.20528,61.604,18.031,0.72727,0.5451,0.68555,0.6549
0.944,0.20332,61.799,18.07,0.73314,0.5451,0.67969,0.6549
0.952,0.20235,62.19,18.07,0.73314,0.51961,0.66992,0.66471
0.96,0.20039,62.386,18.07,0.72825,0.5,0.65039,0.68039
0.968,0.19844,62.386,18.07,0.72043,0.46471,0.625,0.7
0.976,0.19746,62.582,18.07,0.70968,0.44902,0.60547,0.7098
0.984,0.19648,62.386,18.149,0.69795,0.4451,0.5957,0.72549
0.992,0.1955,62.19,18.188,0.68524,0.43529,0.5957,0.72157
1,0.19453,61.995,18.344,0.67253,0.42941,0.58984,0.72549
1.008,0.19453,61.604,18.344,0.65885,0.43529,0.5957,0.72157
1.016,0.19355,61.213,18.344,0.64418,0.42941,0.58984,0.72549
1.024,0.19257,60.821,18.188,0.6305,0.42941,0.5957,0.72157
1.032,0.19159,60.43,18.149,0.61584,0.42549,0.58984,0.72549
1.04,0.19159,59.844,18.188,0.60215,0.42941,0.59961,0.72549
1.048,0.19062,59.452,18.462,0.58749,0.43922,0.60547,0.72157
1.056,0.18964,58.866,18.774,0.57185,0.43922,0.62891,0.70588
1.064,0.18866,58.279,19.087,0.55621,0.44902,0.69531,0.66078
1.072,0.18768,57.888,19.126,0.53959,0.51569,0.84961,0.58039
1.08,0.18573,57.301,19.126,0.52199,0.6098,1.0293,0.46078
1.088,0.18475,56.91,19.087,0.50635,0.6451,1.0996,0.42549
1.096,0.18377,56.323,19.205,0.49071,0.50588,0.83984,0.56078
1.104,0.1828,55.932,19.439,0.4741,0.4549,0.66992,0.68627
1.112,0.18182,55.346,19.752,0.45552,0.42549,0.57422,0.72549
1.12,0.18182,54.954,20.026,0.43793,0.42549,0.56055,0.72549
1.128,0.18182,54.563,20.222,0.42033,0.43529,0.56055,0.72157
1.136,0.18084,54.172,20.339,0.40371,0.43529,0.57031,0.72549
1.144,0.18084,53.781,20.378,0.38905,0.43922,0.57422,0.72549
1.152,0.18084,53.39,20.339,0.37537,0.43922,0.56445,0.73137
1.16,0.17986,53.194,20.261,0.36364,0.4451,0.58008,0.72157
1.168,0.17986,52.803,20.065,0.35386,0.4451,0.58008,0.72549
1.176,0.17986,52.412,19.83,0.34506,0.4451,0.58984,0.72157
1.184,0.17986,52.216,19.518,0.34018,0.44902,0.58398,0.71569
1.192,0.18084,52.021,19.205,0.33627,0.4549,0.5957,0.7098
1.2,0.1828,51.63,18.892,0.33333,0.46078,0.58984,0.7098
1.208,0.18377,51.434,18.657,0.3304,0.46471,0.59961,0.70588
1.216,0.18573,51.434,18.462,0.32942,0.46078,0.59961,0.70588
1.224,0.18768,51.239,18.266,0.32845,0.46471,0.60547,0.70588
1.232,0.18964,51.043,18.149,0.32845,0.46471,0.60547,0.7
1.24,0.19159,50.652,18.07,0.32845,0.47059,0.61523,0.70588
1.248,0.19257,50.456,17.953,0.32845,0.47451,0.61523,0.69608
1.256,0.19453,50.261,17.875,0.32845,0.47451,0.625,0.68627
1.264,0.1955,49.87,17.757,0.32747,0.48039,0.62891,0.68039
1.272,0.19746,49.479,17.64,0.32747,0.4902,0.64062,0.67647
1.28,0.19844,49.283,17.523,0.32551,0.5,0.6543,0.66471
1.288,0.19941,49.087,17.327,0.32454,0.50588,0.67578,0.6549
1.296,0.20039,49.087,17.132,0.32356,0.51961,0.68945,0.6451
1.304,0.20235,50.261,17.014,0.32258,0.52549,0.69922,0.64118
1.312,0.2043,53.194,16.936,0.31965,0.53922,0.70898,0.62549
1.32,0.20528,59.061,16.819,0.31769,0.5451,0.7207,0.61961
1.328,0.20723,67.471,16.623,0.31378,0.55098,0.7207,0.61569
1.336,0.20821,76.662,16.506,0.31085,0.5451,0.72461,0.61961
1.344,0.20919,84.876,16.31,0.30694,0.53529,0.70898,0.62549
1.352,0.20919,91.917,16.154,0.30303,0.51961,0.68945,0.63529
1.36,0.21017,98.37,15.88,0.29912,0.50588,0.66406,0.6549
1.368,0.20919,103.65,15.684,0.29521,0.48039,0.63477,0.67647
1.376,0.20821,106.98,15.567,0.2913,0.47451,0.60938,0.68627
1.384,0.20723,108.54,15.372,0.28837,0.4549,0.58008,0.7
1.392,0.20626,108.15,15.254,0.28543,0.44902,0.57422,0.70588
1.4,0.2043,106.78,15.137,0.28152,0.43922,0.56055,0.7098
1.408,0.20332,104.43,15.02,0.27859,0.4451,0.56055,0.70588
1.416,0.20137,101.89,14.902,0.27468,0.43529,0.56055,0.7098
1.424,0.19941,99.348,14.746,0.27077,0.43922,0.55469,0.71569
1.432,0.19648,96.61,14.628,0.26784,0.4451,0.55078,0.7098
1.44,0.19355,94.068,14.511,0.26588,0.4451,0.56055,0.71569
1.448,0.18964,91.917,14.394,0.26295,0.4451,0.56055,0.7098
1.456,0.18573,89.765,14.276,0.26197,0.4451,0.55469,0.70588
1.464,0.18084,87.81,14.198,0.26002,0.44902,0.56055,0.70588
1.472,0.17693,86.245,14.12,0.26002,0.43922,0.56445,0.7098
1.48,0.17302,84.485,14.081,0.26002,0.4451,0.56445,0.7098
1.488,0.16911,83.116,14.081,0.26197,0.43922,0.57031,0.7098
1.496,0.1652,81.552,14.081,0.26295,0.44902,0.56445,0.7098
1.504,0.16129,80.183,14.081,0.26491,0.4451,0.57031,0.71569
1.512,0.1564,78.814,14.12,0.26588,0.44902,0.56445,0.70588
1.52,0.15249,77.445,14.198,0.26784,0.44902,0.56445,0.70588
1.528,0.14663,76.076,14.276,0.26882,0.44902,0.56445,0.70588
1.536,0.14174,74.511,14.394,0.26882,0.44902,0.57031,0.7098
1.544,0.13587,72.947,14.511,0.26882,0.4549,0.57422,0.70588
1.552,0.13099,71.186,14.707,0.26784,0.44902,0.57031,0.70588
1.56,0.1261,69.622,14.824,0.26979,0.46078,0.57422,0.70588
1.568,0.12219,67.862,14.902,0.27566,0.44902,0.57422,0.7098
1.576,0.11926,66.297,15.02,0.28837,0.46471,0.58008,0.70588
1.584,0.11535,64.928,15.059,0.30499,0.46471,0.58008,0.70588
1.592,0.11241,63.95,15.215,0.32942,0.47059,0.58008,0.69608
1.6,0.10948,62.973,15.254,0.36461,0.46471,0.58008,0.70588
1.608,0.10655,62.19,15.332,0.40958,0.47451,0.58984,0.69608
1.616,0.10362,61.799,15.372,0.46237,0.48039,0.59961,0.6902
1.624,0.10166,61.408,15.372,0.51711,0.5,0.61914,0.68039
1.632,0.099707,61.213,15.45,0.57087,0.5098,0.62891,0.67647
1.64,0.098729,61.213,15.372,0.62072,0.50588,0.62891,0.68039
1.648,0.096774,61.408,15.372,0.66276,0.52549,0.64453,0.6549
1.656,0.096774,61.408,15.332,0.69697,0.57451,0.68555,0.63529
1.664,0.095797,61.799,15.254,0.72141,0.5902,0.69531,0.62941
1.672,0.095797,61.995,15.215,0.73803,0.5549,0.67578,0.64118
1.68,0.095797,62.386,15.137,0.74585,0.55098,0.67578,0.64118
1.688,0.096774,62.582,15.059,0.7478,0.52941,0.66406,0.65098
1.696,0.097752,62.973,15.02,0.74487,0.50588,0.6543,0.66078
1.704,0.098729,62.973,15.02,0.739,0.47451,0.63477,0.68039
1.712,0.099707,62.973,14.941,0.73021,0.4549,0.60547,0.7
1.72,0.10068,62.973,14.902,0.71848,0.43529,0.59961,0.71569
1.728,0.10264,62.777,14.746,0.70577,0.43922,0.58984,0.71569
1.736,0.10362,62.582,14.707,0.69208,0.43529,0.5957,0.72157
1.744,0.10557,62.19,14.628,0.6784,0.43922,0.58398,0.71569
1.752,0.10753,61.799,14.628,0.66373,0.42941,0.58984,0.72549
1.76,0.1085,61.408,14.589,0.64907,0.43529,0.58398,0.72157
1.768,0.11046,61.017,14.589,0.63441,0.42941,0.58984,0.72549
1.776,0.11241,60.43,14.511,0.61975,0.43529,0.5957,0.71569
1.784,0.11339,60.039,14.511,0.60606,0.43529,0.60547,0.72157
1.792,0.11535,59.452,14.589,0.59238,0.44902,0.61914,0.70588
1.8,0.11535,58.866,14.628,0.57771,0.4451,0.6543,0.6902
1.808,0.11632,58.279,14.707,0.56207,0.48431,0.75977,0.61961
1.816,0.1173,57.888,14.824,0.54545,0.57059,0.92969,0.51569
1.824,0.11828,57.301,14.902,0.52884,0.6549,1.0996,0.4098
1.832,0.11828,56.715,15.02,0.51124,0.58431,0.98438,0.40392
1.84,0.11926,56.323,15.137,0.49267,0.49412,0.75977,0.61569
1.848,0.11926,55.737,15.254,0.47507,0.4549,0.625,0.7
1.856,0.11926,55.346,15.332,0.4565,0.4451,0.57031,0.71569
1.864,0.11926,54.759,15.45,0.43988,0.4451,0.57422,0.70588
1.872,0.11926,54.368,15.567,0.42326,0.44902,0.58984,0.7098
1.88,0.11926,53.977,15.645,0.41056,0.4549,0.58008,0.7098
1.888,0.11926,53.585,15.763,0.3998,0.46078,0.58008,0.71569
1.896,0.11926,53.194,15.841,0.38905,0.46471,0.58008,0.7098
1.904,0.12023,52.803,15.958,0.37928,0.47059,0.58984,0.7098
1.912,0.12121,52.412,15.997,0.37048,0.47451,0.58008,0.70588
1.92,0.12219,52.216,16.076,0.36364,0.47059,0.58398,0.7098
1.928,0.12317,51.825,16.076,0.35875,0.47451,0.5957,0.7
1.936,0.12512,51.63,16.154,0.35484,0.47451,0.5957,0.7
1.944,0.12708,51.239,16.154,0.35191,0.48431,0.5957,0.6902
1.952,0.12903,51.239,16.154,0.35093,0.47451,0.59961,0.69608
1.96,0.13001,51.043,16.154,0.34995,0.48039,0.60547,0.69608
1.968,0.13196,50.847,16.154,0.34995,0.48039,0.60547,0.69608
1.976,0.1349,50.652,16.193,0.34995,0.48431,0.60547,0.6902
1.984,0.13685,50.456,16.193,0.35093,0.4902,0.60938,0.6902
1.992,0.13978,50.065,16.271,0.35191,0.5,0.61914,0.68039
2,0.14272,49.87,16.389,0.35191,0.5,0.62891,0.68039
2.008,0.14565,49.479,16.467,0.35191,0.5098,0.63477,0.66078
2.016,0.14858,49.283,16.467,0.35093,0.51961,0.65039,0.66078
2.024,0.15152,49.087,16.31,0.34897,0.52549,0.66992,0.6549
2.032,0.15445,48.892,16.271,0.34702,0.53529,0.67578,0.65098
2.04,0.1564,49.283,16.154,0.34506,0.5451,0.69922,0.62941
2.048,0.15934,50.847,16.076,0.34213,0.55098,0.70898,0.62941
2.056,0.16129,55.15,15.997,0.33822,0.5549,0.72461,0.61569
2.064,0.16422,62.19,15.958,0.33431,0.56471,0.73047,0.6098
2.072,0.16618,70.991,15.841,0.3304,0.56471,0.74023,0.6098
2.08,0.16813,79.791,15.645,0.32649,0.5549,0.73047,0.6098
2.088,0.17009,87.614,15.528,0.32356,0.5451,0.7207,0.62549
2.096,0.17204,94.655,15.332,0.31867,0.53922,0.69531,0.63529
2.104,0.17302,100.72,15.254,0.31378,0.51961,0.66406,0.65098
2.112,0.17498,105.22,15.137,0.3089,0.49412,0.64453,0.66471
2.12,0.17595,107.95,15.02,0.30401,0.48039,0.61914,0.68039
2.128,0.17791,108.74,14.902,0.29912,0.47451,0.59961,0.68627
2.136,0.17889,107.95,14.746,0.29423,0.47059,0.58008,0.69608
2.144,0.17986,106,14.628,0.28935,0.46471,0.57031,0.7
2.152,0.17986,103.65,14.511,0.28543,0.4549,0.57031,0.70588
2.16,0.17986,100.91,14.394,0.28152,0.47059,0.56445,0.70588
2.168,0.17986,98.175,14.315,0.27761,0.4549,0.57031,0.70588
2.176,0.17986,95.632,14.198,0.27468,0.46078,0.57031,0.70588
2.184,0.17986,93.286,14.12,0.27273,0.4549,0.57422,0.70588
2.192,0.17986,91.134,14.081,0.27175,0.4549,0.57422,0.7
2.2,0.17889,88.983,14.003,0.26979,0.44902,0.57422,0.70588
2.208,0.17889,87.223,14.003,0.26882,0.44902,0.58008,0.7098
2.216,0.17791,85.658,14.003,0.26784,0.44902,0.58008,0.70588
2.224,0.17791,84.094,14.003,0.26686,0.46078,0.57422,0.70588
2.232,0.17791,82.529,14.003,0.26686,0.46471,0.57422,0.70588
2.24,0.17791,81.16,14.081,0.26784,0.46078,0.58008,0.70588
2.248,0.17889,79.791,14.081,0.26882,0.46471,0.58008,0.70588
2.256,0.18084,78.422,14.198,0.26882,0.46078,0.58008,0.70588
2.264,0.1828,77.054,14.276,0.26979,0.46471,0.58008,0.70588
2.272,0.18475,75.489,14.394,0.26882,0.46078,0.58398,0.70588
2.28,0.18768,73.924,14.511,0.26882,0.46471,0.58984,0.70588
2.288,0.19062,72.36,14.628,0.26882,0.46078,0.5957,0.70588
2.296,0.1955,70.6,14.824,0.26784,0.46078,0.58984,0.70588
2.304,0.20039,68.84,14.941,0.26882,0.46471,0.58984,0.70588
2.312,0.20626,67.08,15.137,0.27468,0.47451,0.5957,0.70588
2.32,0.21212,65.515,15.254,0.28739,0.47451,0.59961,0.7
2.328,0.21994,64.146,15.372,0.3089,0.47451,0.60547,0.69608
2.336,0.22776,62.973,15.45,0.34018,0.47451,0.60938,0.7
2.344,0.23656,62.19,15.567,0.38221,0.47451,0.61523,0.6902
2.352,0.24633,61.604,15.567,0.43109,0.47451,0.60938,0.69608
2.36,0.25513,61.213,15.645,0.48485,0.49412,0.62891,0.68039
2.368,0.26393,61.017,15.645,0.54057,0.50588,0.65039,0.68039
2.376,0.2737,61.017,15.645,0.59238,0.51569,0.6543,0.67647
2.384,0.2825,61.017,15.684,0.63343,0.5098,0.6543,0.67059
2.392,0.29521,61.408,15.684,0.66569,0.5549,0.67578,0.6451
2.4,0.30694,61.604,15.684,0.69404,0.5902,0.69922,0.62941
2.408,0.3216,61.995,15.684,0.71652,0.58039,0.68945,0.62941
2.416,0.33724,62.386,15.763,0.73216,0.56471,0.68555,0.63529
2.424,0.35093,62.777,15.763,0.74096,0.5549,0.69531,0.64118
2.432,0.36559,63.168,15.684,0.74291,0.53529,0.67969,0.6549
2.44,0.38025,63.364,15.645,0.73998,0.51569,0.66992,0.66471
2.448,0.39394,63.559,15.567,0.73314,0.4902,0.64453,0.68627
2.456,0.41056,63.755,15.528,0.72336,0.47059,0.625,0.70588
2.464,0.4262,63.559,15.45,0.71163,0.4549,0.60938,0.70588
2.472,0.44477,63.364,15.45,0.69892,0.44902,0.60547,0.70588
2.48,0.46334,63.168,15.372,0.68524,0.44902,0.59961,0.70588
2.488,0.48289,62.973,15.372,0.67253,0.44902,0.60547,0.70588
2.496,0.50244,62.386,15.372,0.65885,0.4451,0.60547,0.70588
2.504,0.52199,61.995,15.45,0.64418,0.43529,0.60938,0.71569
2.512,0.54252,61.408,15.45,0.6305,0.43922,0.60547,0.7098
2.52,0.56109,61.017,15.45,0.61584,0.43529,0.60547,0.71569
2.528,0.57967,60.43,15.528,0.60117,0.44902,0.60938,0.70588
2.536,0.59726,59.844,15.528,0.58553,0.4451,0.63477,0.69608
2.544,0.61486,59.257,15.528,0.56989,0.46078,0.70898,0.6549
2.552,0.63245,58.866,15.567,0.55327,0.52941,0.875,0.57451
2.56,0.65103,58.279,15.684,0.53666,0.63529,1.0801,0.46471
2.568,0.67058,57.888,15.841,0.51906,0.68039,1.1738,0.4098
2.576,0.69013,57.301,15.958,0.50147,0.53922,0.92969,0.52941
2.584,0.70772,56.91,16.076,0.48583,0.47059,0.70508,0.66078
2.592,0.72532,56.519,16.271,0.47019,0.42941,0.58984,0.70588
2.6,0.74194,56.128,16.506,0.45455,0.42549,0.57031,0.71569
2.608,0.75855,55.541,16.701,0.43891,0.43922,0.58008,0.71569
2.616,0.77615,55.346,16.897,0.42326,0.43922,0.58008,0.72157
2.624,0.79374,54.954,17.093,0.40958,0.44902,0.58008,0.7098
2.632,0.81232,54.563,17.249,0.39687,0.4451,0.58008,0.71569
2.64,0.82991,54.368,17.405,0.38612,0.44902,0.58008,0.7098
2.648,0.84946,53.977,17.562,0.37732,0.44902,0.58398,0.7098
2.656,0.86901,53.781,17.757,0.3695,0.4549,0.5957,0.70588
2.664,0.88856,53.585,17.875,0.36461,0.46078,0.5957,0.70588
2.672,0.90909,53.39,18.07,0.3607,0.4549,0.59961,0.7098
2.68,0.92669,53.194,18.188,0.35875,0.46471,0.59961,0.70588
2.688,0.94526,52.999,18.344,0.35777,0.4549,0.60547,0.7
2.696,0.96188,52.803,18.383,0.35777,0.47059,0.60547,0.7
2.704,0.97849,52.608,18.462,0.35875,0.47059,0.61523,0.7
2.712,0.98925,52.412,18.501,0.35973,0.47451,0.61914,0.69608
2.72,1,52.216,18.579,0.3607,0.47059,0.62891,0.69608
2.728,1,52.021,18.657,0.36168,0.48039,0.62891,0.68039
2.736,1,51.825,18.696,0.36266,0.48431,0.64453,0.68627
2.744,1,51.434,18.696,0.36266,0.49412,0.65039,0.68039
2.752,1,51.239,18.696,0.36266,0.5,0.66016,0.67059
2.76,1,50.847,18.696,0.36266,0.5098,0.67578,0.6549
2.768,1,50.652,18.657,0.36168,0.51569,0.68945,0.6549
2.776,1,50.847,18.579,0.35973,0.52549,0.69922,0.6451
2.784,1,52.021,18.501,0.35777,0.53529,0.72461,0.63529
2.792,1,55.346,18.501,0.35582,0.5451,0.74023,0.62549
2.8,1,61.604,18.462,0.35288,0.5451,0.75,0.62549
2.808,1,70.209,18.383,0.34995,0.5549,0.75977,0.6098
2.816,1,79.4,18.266,0.34604,0.56078,0.75391,0.61569
2.824,1,87.419,18.149,0.34213,0.55098,0.74414,0.61569
2.832,1,94.655,17.953,0.33822,0.52941,0.72461,0.63529
2.84,1,100.72,17.757,0.33431,0.51961,0.69531,0.65098
2.848,1,105.41,17.523,0.3304,0.50588,0.66992,0.66078
2.856,1,108.34,17.327,0.32649,0.4902,0.64453,0.68039
2.864,1,109.32,17.21,0.32258,0.47451,0.61523,0.68627
2.872,1,108.74,17.132,0.31867,0.46078,0.60547,0.7
2.88,1,107.17,17.014,0.31574,0.44902,0.58008,0.70588
2.888,1,104.82,16.897,0.31281,0.4451,0.58008,0.71569
2.896,1,102.28,16.701,0.31085,0.43529,0.57031,0.7098
2.904,1,99.544,16.584,0.30792,0.42941,0.56445,0.72157
2.912,1,97.001,16.389,0.30596,0.43529,0.56055,0.7098
2.92,1,94.655,16.193,0.30401,0.42941,0.56055,0.71569
2.928,1,92.308,16.076,0.30303,0.43529,0.55469,0.71569
2.936,1,90.157,15.88,0.30205,0.43529,0.56055,0.71569
2.944,1,88.396,15.763,0.30205,0.43922,0.55469,0.71569
2.952,1,86.636,15.567,0.30303,0.43529,0.55078,0.72157
2.96,1,84.876,15.45,0.30401,0.43922,0.55469,0.7098
2.968,1,83.507,15.332,0.30596,0.43529,0.55078,0.71569
2.976,1,82.138,15.215,0.3089,0.4451,0.55469,0.70588
2.984,1,80.769,15.059,0.31085,0.43922,0.56055,0.7098
2.992,1,79.596,14.941,0.31378,0.44902,0.55469,0.70588
3,1,78.227,14.824,0.31574,0.44902,0.56055,0.71569
3.008,1,77.054,14.707,0.31672,0.44902,0.56055,0.70588
3.016,1,75.489,14.628,0.31672,0.4451,0.56055,0.7098
3.024,1,74.12,14.589,0.31476,0.43922,0.56445,0.71569
3.032,1,72.36,14.511,0.31378,0.4451,0.57422,0.70588
3.04,1,70.6,14.511,0.31476,0.43922,0.58008,0.7098
3.048,1,69.035,14.511,0.31867,0.4451,0.57422,0.7098
3.056,1,67.275,14.511,0.32942,0.44902,0.58008,0.70588
3.064,1,65.906,14.511,0.34995,0.44902,0.58008,0.7098
3.072,1,64.733,14.511,0.37928,0.44902,0.58008,0.70588
3.08,1,63.755,14.589,0.41153,0.4549,0.57422,0.70588
3.088,1,62.973,14.628,0.4477,0.44902,0.58398,0.7098
3.096,1,62.386,14.707,0.49365,0.46471,0.58984,0.70588
3.104,1,61.995,14.746,0.5435,0.48431,0.60547,0.68627
3.112,1,61.799,14.824,0.59433,0.50588,0.61523,0.67647
3.12,1,61.604,14.902,0.64027,0.5,0.625,0.68039
3.128,0.98534,61.799,14.941,0.68035,0.52549,0.62891,0.66078
3.136,0.9697,61.799,14.941,0.71163,0.56471,0.66992,0.6451
3.144,0.95406,61.995,14.941,0.73509,0.58039,0.67969,0.63529
3.152,0.93842,62.19,14.941,0.74976,0.5451,0.66406,0.6549
3.16,0.92571,62.386,14.941,0.7566,0.5451,0.66992,0.65098
3.168,0.91202,62.777,14.902,0.75758,0.52549,0.66406,0.66078
3.176,0.90029,62.777,14.902,0.75367,0.51961,0.64453,0.66471
3.184,0.88759,62.973,14.902,0.74585,0.49412,0.61914,0.68039
3.192,0.87488,62.973,14.824,0.73607,0.46471,0.59961,0.69608
3.2,0.86217,62.777,14.746,0.72434,0.44902,0.58984,0.7098
3.208,0.84946,62.582,14.746,0.71065,0.44902,0.58008,0.7098
3.216,0.83675,62.386,14.707,0.69599,0.43529,0.57422,0.71569
3.224,0.82502,61.995,14.707,0.68133,0.42941,0.58008,0.72157
3.232,0.81329,61.604,14.628,0.66569,0.43529,0.57422,0.72549
3.24,0.80254,61.213,14.589,0.65005,0.42941,0.57422,0.72157
3.248,0.79179,60.626,14.589,0.63441,0.43529,0.57422,0.72157
3.256,0.78104,60.235,14.511,0.61975,0.42941,0.58008,0.71569
3.264,0.76931,59.648,14.511,0.60411,0.43922,0.58984,0.72157
3.272,0.75855,59.257,14.511,0.58847,0.44902,0.60547,0.70588
3.28,0.74682,58.67,14.511,0.5738,0.44902,0.64062,0.6902
3.288,0.73509,58.279,14.589,0.56012,0.4902,0.75391,0.61961
3.296,0.72434,57.692,14.628,0.54448,0.57059,0.93945,0.52549
3.304,0.71261,57.301,14.746,0.52688,0.65098,1.1094,0.42549
3.312,0.70186,56.91,14.902,0.50929,0.57451,0.98438,0.47451
3.32,0.69208,56.323,15.02,0.49071,0.48039,0.75,0.62549
3.328,0.68133,55.932,15.137,0.47214,0.44902,0.60547,0.7
3.336,0.67253,55.541,15.254,0.45357,0.43529,0.56055,0.72157
3.344,0.66373,55.15,15.45,0.43597,0.43922,0.56055,0.7098
3.352,0.65494,54.759,15.567,0.41838,0.4451,0.56445,0.71569
3.36,0.64712,54.368,15.763,0.40176,0.4549,0.57031,0.7098
3.368,0.6393,53.977,15.88,0.3871,0.4549,0.57031,0.71569
3.376,0.63245,53.781,15.958,0.37537,0.46471,0.57422,0.70588
3.384,0.62561,53.39,16.076,0.36657,0.46078,0.57422,0.7098
3.392,0.61975,52.999,16.154,0.35777,0.46471,0.58008,0.70588
3.4,0.61388,52.803,16.193,0.34897,0.4549,0.58008,0.7098
3.408,0.60802,52.412,16.193,0.34311,0.46078,0.58008,0.70588
3.416,0.60313,52.216,16.271,0.33724,0.46078,0.58984,0.70588
3.424,0.59824,51.825,16.31,0.33236,0.46471,0.58984,0.70588
3.432,0.59335,51.63,16.31,0.32942,0.46471,0.5957,0.70588
3.44,0.58847,51.434,16.389,0.32747,0.47451,0.60547,0.69608
3.448,0.58456,51.239,16.389,0.32551,0.47451,0.60547,0.69608
3.456,0.57967,51.043,16.389,0.32454,0.48431,0.60547,0.6902
3.464,0.57576,50.652,16.467,0.32356,0.4902,0.60547,0.6902
3.472,0.57185,50.456,16.506,0.32258,0.48431,0.61523,0.68627
3.48,0.56891,50.065,16.506,0.3216,0.5,0.61914,0.68039
3.488,0.56598,49.674,16.506,0.3216,0.5098,0.62891,0.67059
3.496,0.56305,49.283,16.467,0.31965,0.51569,0.63477,0.66471
3.504,0.56012,49.087,16.389,0.31769,0.5098,0.6543,0.6549
3.512,0.55718,48.892,16.271,0.31574,0.52549,0.66992,0.6451
3.52,0.55425,49.087,16.193,0.31281,0.53529,0.68945,0.63529
3.528,0.55034,50.847,16.076,0.30987,0.55098,0.70508,0.62941
3.536,0.54643,54.954,15.997,0.30694,0.5451,0.71484,0.61961
3.544,0.5435,61.995,15.88,0.30303,0.5549,0.7207,0.61569
3.552,0.54057,71.186,15.841,0.3001,0.5451,0.72461,0.61569
3.56,0.53763,80.183,15.645,0.29619,0.5451,0.7207,0.61569
3.568,0.5347,88.201,15.45,0.29228,0.53529,0.70508,0.62941
3.576,0.53177,95.241,15.332,0.28935,0.51961,0.67969,0.63529
3.584,0.52884,101.3,15.137,0.28739,0.5,0.65039,0.6549
3.592,0.52493,105.8,14.941,0.28348,0.48431,0.61914,0.66471
3.6,0.52102,108.34,14.824,0.28055,0.46471,0.59961,0.68627
3.608,0.51515,108.93,14.707,0.27664,0.46078,0.58008,0.69608
3.616,0.50929,107.95,14.511,0.27273,0.44902,0.57031,0.70588
3.624,0.50244,106,14.394,0.26588,0.4451,0.56055,0.70588
3.632,0.49462,103.46,14.081,0.25611,0.4451,0.55469,0.70588
3.64,0.4868,100.72,13.69,0.25024,0.43922,0.55078,0.7098
3.648,0.47996,97.784,13.338,0.24536,0.43529,0.55078,0.70588
3.656,0.47214,95.241,13.025,0.24242,0.43922,0.55469,0.71569
3.664,0.46432,92.894,12.751,0.23949,0.43529,0.55078,0.7098
3.672,0.45455,90.548,12.751,0.23851,0.43529,0.56055,0.72157
3.68,0.44477,88.788,13.025,0.23754,0.43529,0.55469,0.7098
3.688,0.435,87.027,13.142,0.23754,0.43922,0.56055,0.70588
3.696,0.42424,85.267,12.829,0.23754,0.4451,0.56055,0.70588
3.704,0.41447,83.898,12.008,0.23851,0.43922,0.56445,0.7098
3.712,0.40371,82.334,11.147,0.23949,0.4451,0.56055,0.70588
3.72,0.39394,80.965,10.521,0.24047,0.4451,0.56055,0.71569
3.728,0.38514,79.596,10.248,0.24145,0.43922,0.56055,0.7098
3.736,0.37439,78.227,10.326,0.2434,0.43922,0.56445,0.71569
3.744,0.36461,76.858,10.639,0.24438,0.4451,0.56445,0.70588
3.752,0.35386,75.489,10.952,0.24536,0.4451,0.57031,0.7098
3.76,0.34311,73.924,11.343,0.24536,0.4451,0.57031,0.7098
3.768,0.33236,72.164,11.695,0.24438,0.44902,0.57422,0.7098
3.776,0.3216,70.404,12.125,0.24536,0.4549,0.57031,0.70588
3.784,0.31183,68.644,12.712,0.24731,0.44902,0.57422,0.7098
3.792,0.30205,66.884,13.455,0.2522,0.4549,0.57422,0.70588
3.8,0.29326,65.319,14.315,0.26393,0.4451,0.58008,0.71569
3.808,0.28446,63.95,15.254,0.28348,0.44902,0.58008,0.70588
3.816,0.27761,62.777,16.31,0.31378,0.44902,0.58398,0.70588
3.824,0.27077,61.995,17.523,0.35484,0.44902,0.58984,0.70588
3.832,0.26393,61.213,18.814,0.40274,0.46471,0.58398,0.70588
3.84,0.25806,60.821,20.339,0.4565,0.48431,0.60938,0.68627
3.848,0.2522,60.43,22.021,0.51222,0.5,0.625,0.68039
3.856,0.24633,60.235,23.703,0.565,0.5,0.62891,0.68039
3.864,0.24145,60.235,25.15,0.61193,0.5098,0.63477,0.67647
3.872,0.23656,60.43,25.893,0.652,0.5549,0.66992,0.6451
3.88,0.23265,60.821,25.502,0.68035,0.58039,0.68555,0.62941
3.888,0.22874,61.017,24.094,0.69892,0.56078,0.67578,0.64118
3.896,0.22581,61.408,22.334,0.71261,0.55098,0.67578,0.65098
3.904,0.22287,61.799,20.965,0.72141,0.53529,0.67578,0.6549
3.912,0.22092,61.995,20.378,0.72336,0.51961,0.66016,0.66078
3.92,0.21896,62.19,20.535,0.72043,0.4902,0.64453,0.68039
3.928,0.21701,62.386,20.769,0.71359,0.46078,0.625,0.7
3.936,0.21505,62.386,20.769,0.70381,0.4451,0.60938,0.71569
3.944,0.2131,62.386,20.339,0.6911,0.43922,0.59961,0.7098
3.952,0.21114,62.19,19.713,0.6784,0.42941,0.5957,0.72157
3.96,0.20919,61.995,19.126,0.66373,0.42941,0.58398,0.71569
3.968,0.20723,61.604,18.657,0.64809,0.42941,0.58984,0.72157
3.976,0.20528,61.213,18.462,0.63441,0.43529,0.58984,0.7098
3.984,0.2043,60.821,18.462,0.62072,0.42549,0.59961,0.72157
3.992,0.20235,60.43,18.462,0.60606,0.42941,0.5957,0.72157
4,0.20039,59.844,18.383,0.5914,0.42941,0.59961,0.72549
4.008,0.19844,59.452,18.344,0.57674,0.44902,0.60547,0.7098
4.016,0.19746,58.866,18.266,0.56207,0.43529,0.63477,0.7
4.024,0.19648,58.279,18.188,0.54643,0.46078,0.71484,0.6451
4.032,0.1955,57.888,18.188,0.52981,0.53529,0.875,0.5549
4.04,0.19453,57.301,18.07,0.5132,0.62549,1.0586,0.43922
4.048,0.19453,56.91,17.953,0.4956,0.66078,1.1152,0.40392
4.056,0.19355,56.323,17.953,0.47703,0.50588,0.82031,0.57059
4.064,0.19257,55.932,18.188,0.45846,0.46471,0.66016,0.68039
4.072,0.19159,55.346,18.657,0.43891,0.43922,0.58398,0.7098
4.08,0.19159,54.954,19.087,0.42229,0.43529,0.57422,0.7098
4.088,0.19062,54.563,19.283,0.40762,0.43922,0.58008,0.72157
4.096,0.19062,53.977,19.4,0.39198,0.43529,0.58984,0.72549
4.104,0.19062,53.781,19.439,0.37732,0.4451,0.5957,0.72157
4.112,0.19062,53.39,19.518,0.36266,0.44902,0.59961,0.71569
4.12,0.19062,52.999,19.596,0.34995,0.44902,0.60547,0.72157
4.128,0.19062,52.608,19.635,0.3392,0.4549,0.59961,0.7098
4.136,0.19062,52.216,19.752,0.32942,0.46078,0.60547,0.71569
4.144,0.19159,52.021,20.026,0.32258,0.46471,0.59961,0.70588
4.152,0.19257,51.63,20.261,0.31672,0.46078,0.60547,0.70588
4.16,0.19355,51.434,20.339,0.31378,0.46078,0.60938,0.70588
4.168,0.19453,51.239,20.261,0.31085,0.4549,0.61523,0.7098
4.176,0.19648,50.847,20.143,0.31085,0.46078,0.61523,0.70588
4.184,0.19844,50.652,20.143,0.31085,0.47059,0.61914,0.70588
4.192,0.20039,50.456,20.339,0.31085,0.47451,0.61914,0.69608
4.2,0.20235,50.261,20.456,0.31183,0.47451,0.62891,0.69608
4.208,0.2043,49.87,20.535,0.31281,0.48431,0.63477,0.68627
4.216,0.20626,49.479,20.574,0.31281,0.48431,0.64062,0.6902
4.224,0.20919,49.283,20.652,0.31281,0.49412,0.65039,0.68039
4.232,0.21114,48.892,20.456,0.31281,0.5,0.6543,0.67059
4.24,0.21408,48.696,20.065,0.31183,0.5098,0.67578,0.6549
4.248,0.21603,48.501,19.752,0.31085,0.51961,0.68555,0.65098
4.256,0.21896,48.501,19.596,0.3089,0.52941,0.70508,0.64118
4.264,0.22092,49.479,19.596,0.30596,0.5451,0.7207,0.63529
4.272,0.22385,52.608,19.635,0.30401,0.53922,0.73438,0.62549
4.28,0.22581,58.475,19.635,0.30205,0.5451,0.74414,0.61961
4.288,0.22776,67.08,19.635,0.3001,0.5451,0.74414,0.61961
4.296,0.22874,76.076,19.635,0.29717,0.55098,0.74414,0.61569
4.304,0.23069,84.289,19.596,0.29326,0.53922,0.73047,0.62549
4.312,0.23167,91.721,19.283,0.28935,0.52941,0.70898,0.62941
4.32,0.23265,97.979,18.814,0.28543,0.51569,0.67969,0.65098
4.328,0.23363,103.06,18.501,0.28152,0.5,0.65039,0.66471
4.336,0.2346,106.58,18.383,0.27664,0.48039,0.625,0.68627
4.344,0.2346,107.95,18.462,0.27273,0.47059,0.60547,0.6902
4.352,0.2346,107.76,18.462,0.26784,0.4549,0.58398,0.70588
4.36,0.23265,106.39,18.462,0.26295,0.44902,0.57031,0.70588
4.368,0.23167,104.04,18.266,0.25904,0.44902,0.56445,0.7098
4.376,0.22874,101.5,18.031,0.25611,0.4451,0.57031,0.70588
4.384,0.22678,98.761,17.757,0.25415,0.42941,0.56055,0.72157
4.392,0.22287,96.024,17.718,0.25122,0.43529,0.56055,0.71569
4.4,0.21994,93.481,17.757,0.24829,0.43922,0.56445,0.72157
4.408,0.21505,91.134,17.875,0.24536,0.43922,0.56055,0.7098
4.416,0.21017,88.983,17.875,0.2434,0.43922,0.57031,0.71569
4.424,0.20528,87.027,17.757,0.24145,0.4451,0.57422,0.71569
4.432,0.19941,85.267,17.445,0.24047,0.43529,0.56445,0.71569
4.44,0.19453,83.703,17.132,0.24047,0.4451,0.57031,0.70588
4.448,0.18964,82.138,16.936,0.23949,0.44902,0.58008,0.7098
4.456,0.18475,80.769,16.936,0.24047,0.4451,0.58008,0.71569
4.464,0.17986,79.596,17.132,0.24047,0.44902,0.58008,0.7098
4.472,0.17498,78.227,17.327,0.24145,0.4451,0.58008,0.72157
4.48,0.17009,77.054,17.562,0.2434,0.43922,0.58008,0.71569
4.488,0.1652,75.685,17.757,0.24438,0.4451,0.58008,0.72157
4.496,0.16129,74.12,17.875,0.24438,0.44902,0.57422,0.7098
4.504,0.15738,72.36,18.07,0.2434,0.44902,0.57422,0.71569
4.512,0.15347,70.6,18.188,0.2434,0.4549,0.58008,0.70588
4.52,0.14956,69.035,18.188,0.2434,0.4549,0.58398,0.7098
4.528,0.14663,67.275,18.188,0.24731,0.46078,0.58984,0.70588
4.536,0.14467,65.515,18.266,0.25709,0.4549,0.58984,0.7098
4.544,0.14174,64.146,18.383,0.27566,0.4549,0.58984,0.70588
4.552,0.13978,62.973,18.462,0.30401,0.44902,0.59961,0.71569
4.56,0.13783,61.799,18.501,0.34213,0.46471,0.59961,0.70588
4.568,0.13685,61.213,18.696,0.39003,0.46471,0.60547,0.7
4.576,0.13587,60.626,18.696,0.43597,0.48039,0.60938,0.6902
4.584,0.13587,60.235,18.501,0.48094,0.5,0.61914,0.68039
4.592,0.13587,60.039,18.344,0.53177,0.5098,0.63477,0.67647
4.6,0.13587,60.039,18.383,0.58162,0.50588,0.63477,0.68039
4.608,0.13587,60.039,18.696,0.62659,0.51961,0.65039,0.66471
4.616,0.13587,60.43,18.97,0.66471,0.56471,0.68945,0.6451
4.624,0.13685,60.626,18.97,0.69404,0.57059,0.69922,0.64118
4.632,0.13783,61.017,18.696,0.71359,0.55098,0.67578,0.65098
4.64,0.13881,61.408,18.383,0.7263,0.5451,0.67578,0.6549
4.648,0.13978,61.604,18.344,0.73118,0.51961,0.67578,0.66471
4.656,0.14076,61.799,18.383,0.73021,0.5,0.66406,0.67059
4.664,0.14174,61.995,18.462,0.72434,0.47451,0.64453,0.6902
4.672,0.14272,62.19,18.149,0.71554,0.44902,0.61914,0.70588
4.68,0.14467,62.19,17.523,0.70479,0.43529,0.60547,0.72157
4.688,0.14565,61.995,17.014,0.69208,0.42549,0.59961,0.72549
4.696,0.14761,61.799,16.819,0.67937,0.41961,0.5957,0.72549
4.704,0.14956,61.408,17.014,0.66569,0.41569,0.5957,0.73137
4.712,0.15152,61.213,17.21,0.65103,0.41961,0.58398,0.72549
4.72,0.15347,60.821,17.327,0.63539,0.41569,0.5957,0.73137
4.728,0.15543,60.235,17.405,0.62072,0.42549,0.59961,0.72549
4.736,0.15836,59.844,17.405,0.60606,0.41569,0.60547,0.73137
4.744,0.16031,59.452,17.249,0.59042,0.42941,0.60547,0.72549
4.752,0.16227,58.866,17.21,0.57576,0.43922,0.61523,0.71569
4.76,0.16422,58.279,17.249,0.55914,0.43922,0.65039,0.69608
4.768,0.16618,57.888,17.523,0.54252,0.47059,0.75977,0.62941
4.776,0.16911,57.301,17.836,0.52688,0.5549,0.92969,0.52549
4.784,0.17107,56.91,18.07,0.51222,0.63529,1.1035,0.42941
4.792,0.17302,56.323,18.149,0.49462,0.56471,0.97461,0.42549
4.8,0.17595,55.737,17.953,0.47605,0.47059,0.76562,0.62941
4.808,0.17693,55.346,17.718,0.45748,0.43529,0.62891,0.7098
4.816,0.17889,54.759,17.562,0.43793,0.41569,0.57031,0.72549
4.824,0.18084,54.368,17.64,0.42033,0.42549,0.57031,0.72157
4.832,0.1828,53.977,18.031,0.40274,0.42549,0.58008,0.73137
4.84,0.18377,53.585,18.696,0.38612,0.42941,0.58398,0.72549
4.848,0.18573,53.194,19.4,0.37146,0.43529,0.58398,0.73137
4.856,0.18866,52.803,19.752,0.35875,0.43922,0.58008,0.72549
4.864,0.19062,52.412,19.909,0.348,0.43922,0.58008,0.72549
4.872,0.19355,52.216,19.83,0.3392,0.4451,0.58984,0.72549
4.88,0.19648,51.825,19.635,0.33236,0.4451,0.58984,0.72157
4.888,0.19941,51.434,19.439,0.32845,0.4451,0.5957,0.72549
4.896,0.20332,51.239,19.518,0.32454,0.44902,0.59961,0.71569
4.904,0.20626,51.043,19.909,0.3216,0.4549,0.60547,0.72157
4.912,0.20919,50.847,20.222,0.32063,0.46078,0.59961,0.7098
4.92,0.21114,50.652,20.456,0.31965,0.46078,0.60938,0.71569
4.928,0.2131,50.456,20.456,0.31965,0.46471,0.61523,0.70588
4.936,0.21505,50.261,20.261,0.31965,0.47451,0.625,0.69608
4.944,0.21799,50.065,20.026,0.32063,0.47451,0.625,0.6902
4.952,0.21994,49.674,19.948,0.32063,0.48039,0.62891,0.68627
4.96,0.22287,49.479,20.065,0.32063,0.4902,0.63477,0.68039
4.968,0.22581,49.087,20.339,0.32063,0.49412,0.6543,0.68039
4.976,0.22874,48.892,20.339,0.31965,0.5,0.66016,0.67059
4.984,0.23167,48.501,20.143,0.31965,0.50588,0.67578,0.66471
4.992,0.23363,48.501,19.752,0.31867,0.51961,0.68945,0.6549
5,0.23558,48.696,19.4,0.31672,0.51961,0.70898,0.6451
5.008,0.23754,50.261,19.126,0.31378,0.53529,0.72461,0.62549
5.016,0.24047,54.172,18.97,0.31085,0.5451,0.73047,0.61961
5.024,0.24242,61.213,18.892,0.30694,0.5451,0.73438,0.61569
5.032,0.24536,70.209,18.814,0.30401,0.53922,0.74023,0.61961
5.04,0.24829,79.205,18.696,0.3001,0.53922,0.74414,0.61569
5.048,0.25122,87.027,18.579,0.29521,0.52941,0.72461,0.62941
5.056,0.25318,94.068,18.462,0.2913,0.51961,0.70508,0.63529
5.064,0.25513,100.13,18.344,0.28641,0.50588,0.67578,0.6549
5.072,0.25709,104.82,18.188,0.2825,0.49412,0.6543,0.67059
5.08,0.25709,107.56,18.031,0.27957,0.47451,0.625,0.68039
5.088,0.25806,108.34,17.757,0.27566,0.46078,0.60547,0.7
5.096,0.25806,107.76,17.445,0.27175,0.44902,0.5957,0.70588
5.104,0.25806,105.8,17.249,0.26784,0.44902,0.58398,0.70588
5.112,0.25611,103.46,17.132,0.26295,0.44902,0.58008,0.7098
5.12,0.25513,100.72,17.014,0.25904,0.4451,0.57422,0.7098
5.128,0.2522,97.784,16.897,0.25513,0.43529,0.57031,0.7098
5.136,0.24927,95.046,16.936,0.2522,0.43529,0.57422,0.71569
5.144,0.24633,92.503,17.132,0.24927,0.43922,0.56445,0.7098
5.152,0.24438,90.352,17.445,0.24633,0.43529,0.57031,0.71569
5.16,0.24242,88.201,17.523,0.24438,0.4451,0.57031,0.7098
5.168,0.24145,86.245,17.327,0.24242,0.43529,0.57422,0.72157
5.176,0.23949,84.485,16.897,0.24242,0.43529,0.57031,0.71569
5.184,0.23754,83.116,16.623,0.2434,0.42941,0.57031,0.72157
5.192,0.23558,81.552,16.701,0.2434,0.43922,0.57422,0.7098
5.2,0.2346,80.378,17.014,0.2434,0.4451,0.58008,0.71569
5.208,0.23265,79.009,17.249,0.24438,0.4451,0.58008,0.7098
5.216,0.23167,77.836,17.405,0.24536,0.43922,0.58008,0.71569
5.224,0.23069,76.467,17.249,0.24633,0.4451,0.58398,0.7098
5.232,0.22972,75.098,17.132,0.24633,0.43922,0.58398,0.71569
5.24,0.22972,73.729,17.21,0.24633,0.4451,0.58984,0.70588
5.248,0.22972,72.164,17.562,0.24536,0.44902,0.5957,0.7098
5.256,0.23069,70.404,18.031,0.24438,0.44902,0.5957,0.70588
5.264,0.23167,68.644,18.383,0.24633,0.44902,0.60547,0.7098
5.272,0.2346,66.884,18.657,0.25122,0.44902,0.60547,0.70588
5.28,0.23656,65.319,18.814,0.26002,0.44902,0.60547,0.70588
5.288,0.24145,64.146,19.009,0.27859,0.4549,0.60938,0.7098
5.296,0.24536,62.973,19.009,0.30694,0.44902,0.60547,0.70588
5.304,0.24927,62.19,18.892,0.34604,0.44902,0.61523,0.7098
5.312,0.25415,61.408,18.892,0.39394,0.4549,0.61523,0.70588
5.32,0.25904,61.017,19.087,0.44868,0.47059,0.625,0.7
5.328,0.26393,60.821,19.4,0.50635,0.49412,0.63477,0.68039
5.336,0.27077,60.626,19.518,0.56109,0.50588,0.6543,0.67647
5.344,0.27859,60.821,19.596,0.61193,0.5,0.65039,0.67647
5.352,0.28837,61.017,19.518,0.65494,0.51569,0.66016,0.68039
5.36,0.29814,61.213,19.439,0.69013,0.56078,0.69531,0.64118
5.368,0.30987,61.604,19.4,0.71457,0.57059,0.70508,0.6451
5.376,0.3216,61.995,19.283,0.72923,0.5451,0.68555,0.6451
5.384,0.33333,62.386,19.283,0.73607,0.53529,0.68945,0.6549
5.392,0.34604,62.777,19.322,0.739,0.52549,0.69531,0.6549
5.4,0.35875,62.973,19.439,0.73705,0.50588,0.67969,0.67059
5.408,0.37048,63.168,19.322,0.73021,0.49412,0.66016,0.68039
5.416,0.38221,63.364,19.087,0.72141,0.47059,0.63477,0.69608
5.424,0.39394,63.364,18.892,0.70968,0.4549,0.61914,0.70588
5.432,0.40762,63.168,18.892,0.69697,0.4451,0.61523,0.71569
5.44,0.42131,62.973,19.009,0.68328,0.4451,0.60938,0.71569
5.448,0.43695,62.582,19.087,0.66862,0.43529,0.61523,0.72157
5.456,0.45161,62.19,19.087,0.65396,0.43922,0.60938,0.71569
5.464,0.4653,61.604,19.009,0.63832,0.43529,0.60938,0.71569
5.472,0.47898,61.213,18.97,0.62463,0.43529,0.61523,0.7098
5.48,0.49169,60.821,19.009,0.61095,0.43529,0.60938,0.71569
5.488,0.5044,60.235,19.126,0.59726,0.4451,0.625,0.7098
5.496,0.51808,59.648,19.205,0.58162,0.44902,0.62891,0.7098
5.504,0.53177,59.257,19.087,0.56696,0.44902,0.66992,0.6902
5.512,0.54643,58.67,18.97,0.55034,0.48039,0.78906,0.63529
5.52,0.56207,58.083,18.892,0.53372,0.57059,0.96875,0.53529
5.528,0.57771,57.692,19.009,0.51613,0.67059,1.1699,0.42941
5.536,0.59433,57.106,19.009,0.49756,0.67647,1.1836,0.41569
5.544,0.61193,56.715,18.97,0.47898,0.5,0.83398,0.6
5.552,0.62952,56.323,18.892,0.46041,0.4451,0.6543,0.69608
5.56,0.64516,55.932,19.205,0.44184,0.42549,0.58008,0.71569
5.568,0.66178,55.346,19.752,0.42424,0.42941,0.58398,0.72549
5.576,0.67742,55.15,20.378,0.40958,0.43922,0.58984,0.72157
5.584,0.69306,54.759,20.887,0.39687,0.42941,0.5957,0.73137
5.592,0.7087,54.368,21.121,0.38514,0.43529,0.59961,0.72549
5.6,0.72532,54.172,21.278,0.37341,0.43529,0.58984,0.72549
5.608,0.74291,53.781,21.199,0.36364,0.4451,0.59961,0.72157
5.616,0.76051,53.585,21.199,0.35582,0.4451,0.59961,0.72549
5.624,0.77615,53.39,21.278,0.34995,0.44902,0.60547,0.72157
5.632,0.79277,53.194,21.434,0.34506,0.44902,0.60547,0.72157
5.64,0.80743,52.999,21.708,0.34311,0.44902,0.60938,0.70588
5.648,0.82307,52.803,21.825,0.34115,0.44902,0.60938,0.7098
5.656,0.84066,52.608,21.943,0.34115,0.4549,0.61914,0.70588
5.664,0.85826,52.412,22.216,0.34213,0.44902,0.61914,0.70588
5.672,0.87781,52.216,22.529,0.34702,0.46078,0.625,0.7
5.68,0.89736,52.216,22.881,0.35288,0.47059,0.62891,0.70588
5.688,0.91691,52.021,23.077,0.35679,0.47451,0.63477,0.6902
5.696,0.93744,51.63,23.155,0.35973,0.48039,0.64062,0.68627
5.704,0.95797,51.434,23.077,0.36168,0.48431,0.6543,0.68039
5.712,0.97947,51.043,22.96,0.36168,0.4902,0.66016,0.68039
5.72,0.98925,50.847,22.881,0.36168,0.48431,0.67578,0.67647
5.728,1,50.652,22.881,0.3607,0.50588,0.68555,0.66078
5.736,1,50.456,22.96,0.35875,0.51569,0.70508,0.65098
5.744,1,50.847,22.96,0.35679,0.52941,0.7207,0.64118
5.752,1,52.803,22.842,0.35386,0.5451,0.74023,0.62941
5.76,1,57.301,22.529,0.35093,0.5451,0.75,0.62549
5.768,1,64.928,22.138,0.348,0.55098,0.75977,0.61961
5.776,1,74.12,21.747,0.34506,0.56078,0.76562,0.6098
5.784,1,82.921,21.591,0.34213,0.5549,0.76562,0.61961
5.792,1,90.743,21.591,0.33822,0.55098,0.74414,0.61569
5.8,1,97.588,21.63,0.33431,0.52941,0.72461,0.63529
5.808,1,103.26,21.591,0.3304,0.51569,0.69531,0.6451
5.816,1,107.37,21.395,0.32649,0.49412,0.66406,0.66471
5.824,1,109.52,21.004,0.3216,0.48039,0.63477,0.67059
5.832,1,110.1,20.574,0.31769,0.47059,0.60938,0.6902
5.84,1,108.93,20.065,0.31378,0.4549,0.59961,0.69608
5.848,1,106.78,19.752,0.30987,0.43922,0.5957,0.7098
5.856,1,104.24,19.713,0.30694,0.4451,0.58008,0.7098
5.864,1,101.11,19.83,0.30303,0.43529,0.58008,0.7098
5.872,1,98.175,19.948,0.30108,0.43922,0.58008,0.71569
5.88,1,95.437,19.909,0.3001,0.42941,0.58008,0.7098
5.888,1,93.09,19.635,0.29814,0.42549,0.58008,0.72157
5.896,1,90.743,19.283,0.29717,0.43922,0.57422,0.71569
5.904,1,88.788,18.892,0.29717,0.43922,0.57422,0.7098
5.912,1,86.832,18.657,0.29717,0.4451,0.57422,0.70588
5.92,1,85.267,18.657,0.29814,0.43922,0.57422,0.7098
5.928,1,83.703,18.696,0.29912,0.4451,0.57422,0.70588
5.936,1,82.334,18.696,0.30108,0.43529,0.57422,0.7098
5.944,1,81.16,18.579,0.30401,0.43922,0.57031,0.7098
5.952,1,79.987,18.383,0.30596,0.43922,0.57422,0.7098
5.96,1,78.814,18.188,0.3089,0.4451,0.57031,0.70588
5.968,1,77.64,18.149,0.30987,0.43922,0.57422,0.71569
5.976,1,76.271,18.149,0.31085,0.4451,0.57422,0.70588
5.984,1,74.707,18.266,0.31085,0.43922,0.58008,0.7098
5.992,1,73.142,18.344,0.3089,0.44902,0.57422,0.70588
6,1,71.382,18.266,0.30792,0.4451,0.58008,0.71569
6.008,1,69.622,18.149,0.30792,0.4549,0.58008,0.70588
6.016,1,68.057,17.953,0.31183,0.44902,0.58984,0.7098
6.024,1,66.297,17.836,0.32356,0.4549,0.58008,0.70588
6.032,1,64.928,17.757,0.34409,0.44902,0.58398,0.70588
6.04,1,63.755,17.875,0.37439,0.4549,0.58984,0.70588
6.048,1,62.973,18.031,0.41447,0.44902,0.5957,0.70588
6.056,1,62.19,18.149,0.46237,0.4549,0.5957,0.70588
6.064,1,61.604,18.188,0.51417,0.46471,0.59961,0.7
6.072,1,61.408,18.266,0.56012,0.48431,0.60938,0.68627
6.08,1,61.213,18.344,0.60117,0.5,0.625,0.68039
6.088,1,61.213,18.344,0.64223,0.5,0.625,0.68039
6.096,1,61.213,18.383,0.67937,0.5098,0.62891,0.67647
6.104,0.99902,61.408,18.462,0.70968,0.55098,0.66992,0.65098
6.112,0.99804,61.604,18.501,0.73216,0.56471,0.67969,0.64118
6.12,0.98534,61.799,18.501,0.74585,0.53922,0.66992,0.65098
6.128,0.97361,62.19,18.501,0.75269,0.53529,0.66406,0.6549
6.136,0.9609,62.386,18.501,0.75367,0.52549,0.66992,0.6549
6.144,0.94721,62.386,18.462,0.74878,0.50588,0.6543,0.67059
6.152,0.93353,62.582,18.462,0.73509,0.48039,0.63477,0.68039
6.16,0.91984,62.582,18.501,0.72336,0.46471,0.60547,0.69608
6.168,0.90518,62.386,18.579,0.70968,0.4451,0.5957,0.71569
6.176,0.8915,62.19,18.462,0.68915,0.42941,0.58398,0.71569
6.184,0.87683,61.799,18.266,0.67449,0.42549,0.58984,0.72549
6.192,0.86217,61.408,18.031,0.65982,0.42549,0.58398,0.72157
6.2,0.84946,61.017,17.875,0.64418,0.42549,0.58398,0.72549
6.208,0.83578,60.626,17.953,0.62854,0.42549,0.58984,0.72157
6.216,0.82405,60.039,18.149,0.6129,0.42549,0.58984,0.72549
6.224,0.81134,59.648,18.383,0.59726,0.42549,0.58984,0.71569
6.232,0.79863,59.061,18.501,0.58065,0.43529,0.5957,0.72157
6.24,0.7869,58.67,18.579,0.565,0.44902,0.60547,0.70588
6.248,0.77419,58.279,18.579,0.54741,0.42941,0.64453,0.7
6.256,0.76149,57.692,18.501,0.52981,0.46078,0.74023,0.64118
6.264,0.74976,57.301,18.501,0.51417,0.52941,0.91016,0.5549
6.272,0.739,56.715,18.501,0.49853,0.62549,1.0938,0.43922
6.28,0.72727,56.323,18.579,0.48094,0.65098,1.1289,0.41961
6.288,0.71652,55.932,18.579,0.46237,0.48431,0.80469,0.59608
6.296,0.70674,55.346,18.579,0.44379,0.4451,0.63477,0.7
6.304,0.69697,55.15,18.579,0.4262,0.42549,0.56445,0.72549
6.312,0.68719,54.563,18.814,0.40958,0.41569,0.56055,0.72549
6.32,0.67742,54.172,19.087,0.39394,0.41961,0.57422,0.73137
6.328,0.66862,53.781,19.4,0.38025,0.42549,0.57422,0.73137
6.336,0.65982,53.585,19.596,0.36755,0.42549,0.58008,0.73529
6.344,0.652,53.194,19.752,0.35679,0.42941,0.57422,0.72549
6.352,0.64418,52.999,19.83,0.348,0.43529,0.58008,0.72549
6.36,0.63734,52.608,19.752,0.34018,0.43529,0.58008,0.72549
6.368,0.63148,52.412,19.713,0.33529,0.43922,0.58008,0.72549
6.376,0.62561,52.216,19.596,0.33236,0.43922,0.58008,0.72157
6.384,0.62072,51.825,19.4,0.32942,0.4451,0.59961,0.71569
6.392,0.61584,51.63,19.322,0.32649,0.44902,0.59961,0.70588
6.4,0.61095,51.434,19.596,0.32454,0.4451,0.60547,0.71569
6.408,0.60508,51.239,20.065,0.32356,0.44902,0.59961,0.70588
6.416,0.6002,51.043,20.535,0.32258,0.44902,0.60547,0.70588
6.424,0.59531,50.847,20.691,0.3216,0.46471,0.61523,0.7
6.432,0.59042,50.652,20.574,0.31965,0.46471,0.61914,0.7
6.44,0.58651,50.261,20.261,0.31867,0.47451,0.625,0.6902
6.448,0.5826,49.87,20.143,0.31769,0.47451,0.62891,0.6902
6.456,0.57771,49.479,20.261,0.31574,0.4902,0.64062,0.68039
6.464,0.5738,49.283,20.535,0.31378,0.49412,0.6543,0.68039
6.472,0.56989,48.892,20.691,0.31281,0.5,0.66406,0.66078
6.48,0.56696,48.696,20.574,0.30987,0.5098,0.67578,0.6549
6.488,0.56305,48.892,20.261,0.30792,0.51961,0.69922,0.6451
6.496,0.55914,49.87,19.909,0.30499,0.52549,0.70898,0.64118
6.504,0.55523,53.194,19.635,0.30108,0.53922,0.72461,0.62941
6.512,0.5523,59.648,19.596,0.29814,0.5451,0.73438,0.62549
6.52,0.54839,68.253,19.596,0.29423,0.5451,0.74414,0.61569
6.528,0.54545,77.445,19.596,0.29032,0.55098,0.73438,0.61961
6.536,0.54154,85.658,19.4,0.28739,0.53922,0.72461,0.62549
6.544,0.53861,92.894,19.087,0.28348,0.52549,0.69531,0.63529
6.552,0.53372,99.153,18.657,0.27957,0.5098,0.66992,0.6549
6.56,0.52981,104.04,18.149,0.27566,0.5,0.64453,0.66471
6.568,0.52395,107.17,17.718,0.27273,0.48039,0.61914,0.68627
6.576,0.51906,108.34,17.523,0.27077,0.47059,0.5957,0.69608
6.584,0.51417,107.76,17.718,0.26784,0.4549,0.58398,0.70588
6.592,0.50929,106,18.031,0.26491,0.44902,0.57422,0.70588
6.6,0.50342,103.46,18.031,0.26197,0.43529,0.57031,0.7098
6.608,0.49756,100.72,17.64,0.25904,0.43529,0.56055,0.7098
6.616,0.49071,97.784,17.132,0.25611,0.43922,0.56055,0.71569
6.624,0.48387,95.046,16.897,0.25415,0.43529,0.56055,0.7098
6.632,0.47507,92.503,17.093,0.25318,0.43529,0.55469,0.72157
6.64,0.46725,90.157,17.445,0.25122,0.43922,0.56055,0.7098
6.648,0.45748,88.005,17.757,0.25024,0.43529,0.56445,0.71569
6.656,0.4477,86.245,17.718,0.25024,0.44902,0.56445,0.70588
6.664,0.43597,84.681,17.327,0.25024,0.4451,0.56445,0.7098
6.672,0.42522,83.312,17.093,0.2522,0.44902,0.56445,0.70588
6.68,0.41447,81.943,17.093,0.25318,0.4451,0.57031,0.71569
6.688,0.40469,80.769,17.249,0.25513,0.44902,0.57031,0.7098
6.696,0.39492,79.596,17.249,0.25709,0.44902,0.57031,0.7098
6.704,0.38416,78.227,16.897,0.25806,0.4451,0.57031,0.71569
6.712,0.37439,77.054,16.467,0.26002,0.44902,0.57422,0.70588
6.72,0.36364,75.685,16.389,0.25904,0.4451,0.57422,0.71569
6.728,0.35288,74.12,16.936,0.25904,0.4549,0.57422,0.70588
6.736,0.34311,72.555,17.836,0.25904,0.44902,0.57422,0.7098
6.744,0.33333,70.795,18.501,0.26393,0.4549,0.58008,0.70588
6.752,0.32454,69.035,18.579,0.2737,0.44902,0.58398,0.70588
6.76,0.31769,67.275,18.149,0.28935,0.46078,0.58008,0.70588
6.768,0.30987,65.711,17.562,0.31085,0.44902,0.58008,0.7098
6.776,0.30205,64.342,17.327,0.34506,0.46078,0.58008,0.70588
6.784,0.29521,62.973,17.718,0.38807,0.46078,0.58984,0.7098
6.792,0.28739,62.19,18.344,0.43988,0.46078,0.58398,0.70588
6.8,0.28055,61.408,18.696,0.49462,0.46078,0.58984,0.70588
6.808,0.27468,60.821,18.657,0.54936,0.47451,0.59961,0.6902
6.816,0.26784,60.43,18.266,0.6002,0.5,0.61914,0.68039
6.824,0.26295,60.235,18.149,0.64516,0.51569,0.62891,0.67647
6.832,0.25806,60.039,18.383,0.68133,0.5098,0.62891,0.68039
6.84,0.25415,60.039,18.97,0.7087,0.52549,0.65039,0.6549
6.848,0.25024,60.235,19.205,0.7263,0.56471,0.67969,0.6451
6.856,0.24731,60.43,19.009,0.73607,0.57451,0.68945,0.64118
6.864,0.24438,60.626,18.579,0.73803,0.55098,0.66992,0.6549
6.872,0.24242,61.017,18.266,0.73412,0.55098,0.67578,0.65098
6.88,0.23949,61.213,18.266,0.7263,0.52941,0.66992,0.66078
6.888,0.23851,61.408,18.501,0.71652,0.5098,0.6543,0.67059
6.896,0.23656,61.604,18.579,0.69795,0.48431,0.64062,0.68627
6.904,0.2346,61.604,18.344,0.68426,0.46471,0.61523,0.7
6.912,0.23363,61.604,17.836,0.6696,0.44902,0.59961,0.70588
6.92,0.23167,61.408,17.445,0.65396,0.44902,0.58984,0.72157
6.928,0.23069,61.408,17.405,0.63148,0.43922,0.58398,0.72157
6.936,0.22874,61.017,17.523,0.61779,0.43529,0.58398,0.72549
6.944,0.22776,60.821,17.562,0.60411,0.43922,0.58398,0.71569
6.952,0.22678,60.43,17.327,0.5826,0.43922,0.58398,0.72157
6.96,0.22581,60.039,17.014,0.56696,0.42941,0.58398,0.71569
6.968,0.22483,59.648,16.936,0.55132,0.42549,0.58984,0.72549
6.976,0.22287,59.257,17.21,0.5347,0.43529,0.59961,0.72157
6.984,0.22092,58.67,17.405,0.51711,0.43922,0.60938,0.71569
6.992,0.21896,58.279,17.405,0.49951,0.43922,0.64453,0.69608
7,0.21701,57.888,17.327,0.48094,0.46471,0.75,0.63529
7.008,0.21603,57.301,17.327,0.46237,0.5549,0.92383,0.52549
7.016,0.21505,56.91,17.718,0.44477,0.6451,1.0996,0.42549
7.024,0.21408,56.519,18.188,0.42717,0.58039,1.1035,0.41961
7.032,0.21212,55.932,18.696,0.40958,0.48039,0.76562,0.62549
7.04,0.21114,55.541,18.892,0.39589,0.4451,0.61914,0.70588
7.048,0.21017,55.15,18.814,0.38416,0.42549,0.56445,0.72549
7.056,0.20919,54.563,18.774,0.37341,0.42941,0.57031,0.72157
7.064,0.20821,54.172,19.009,0.36266,0.42941,0.58008,0.72549
7.072,0.20723,53.781,19.322,0.35288,0.43529,0.58008,0.73137
7.08,0.20723,53.39,19.4,0.34506,0.42941,0.58008,0.73137
7.088,0.20626,52.999,19.205,0.3392,0.43529,0.58008,0.73137
7.096,0.20723,52.608,18.97,0.33431,0.43529,0.58008,0.72549
7.104,0.20723,52.216,18.97,0.33138,0.44902,0.58984,0.72157
7.112,0.20821,52.021,19.4,0.32845,0.44902,0.58984,0.72157
7.12,0.20919,51.63,19.948,0.32747,0.44902,0.59961,0.7098
7.128,0.21114,51.434,20.261,0.32747,0.4549,0.5957,0.7098
7.136,0.21212,51.239,20.222,0.32747,0.44902,0.60547,0.71569
7.144,0.21408,51.043,19.909,0.32845,0.4549,0.60547,0.7098
7.152,0.21603,50.847,19.752,0.32845,0.44902,0.60547,0.72157
7.16,0.21799,50.652,19.83,0.32845,0.46471,0.60938,0.70588
7.168,0.21994,50.456,19.948,0.32845,0.47059,0.61523,0.7
7.176,0.2219,50.065,19.948,0.32747,0.47451,0.61914,0.69608
7.184,0.22385,49.87,19.909,0.32649,0.47451,0.62891,0.6902
7.192,0.22678,49.479,19.948,0.32454,0.48431,0.63477,0.68039
7.2,0.22874,49.087,20.339,0.32258,0.4902,0.65039,0.68039
7.208,0.23069,48.892,20.691,0.32063,0.5,0.6543,0.66471
7.216,0.23265,48.696,20.847,0.31769,0.5,0.66992,0.66078
7.224,0.23558,48.501,20.535,0.31476,0.51961,0.67969,0.65098
7.232,0.23754,48.696,19.909,0.31085,0.51961,0.70508,0.6451
7.24,0.23949,50.261,19.322,0.30792,0.53529,0.7207,0.62941
7.248,0.24145,53.977,19.126,0.30499,0.53922,0.73047,0.62549
7.256,0.2434,60.821,19.322,0.30205,0.5451,0.74023,0.61569
7.264,0.24536,69.622,19.596,0.29814,0.5451,0.74414,0.62549
7.272,0.24633,78.618,19.518,0.29326,0.5451,0.74023,0.61569
7.28,0.24829,86.636,19.126,0.28935,0.53529,0.72461,0.62941
7.288,0.24731,93.481,18.657,0.28446,0.51961,0.69531,0.63529
7.296,0.24731,99.739,18.344,0.28055,0.5,0.66992,0.66078
7.304,0.24633,104.43,18.188,0.27566,0.48431,0.64062,0.67647
7.312,0.24536,107.17,18.031,0.27175,0.47451,0.61523,0.68627
7.32,0.2434,108.34,17.836,0.26882,0.46078,0.59961,0.7
7.328,0.24145,107.76,17.523,0.26491,0.44902,0.58008,0.70588
7.336,0.23851,106,17.405,0.26295,0.4451,0.57031,0.70588
7.344,0.23558,103.46,17.445,0.261,0.43922,0.56055,0.70588
7.352,0.23167,100.72,17.523,0.25904,0.42941,0.56055,0.71569
7.36,0.22776,97.979,17.523,0.25806,0.43922,0.56055,0.7098
7.368,0.22287,95.241,17.249,0.25611,0.43529,0.56055,0.72157
7.376,0.21799,92.699,16.897,0.25611,0.42941,0.56445,0.71569
7.384,0.2131,90.352,16.584,0.25513,0.43529,0.56445,0.72549
7.392,0.20821,88.396,16.623,0.25513,0.4451,0.56445,0.7098
7.4,0.20332,86.636,16.936,0.25611,0.43922,0.56445,0.71569
7.408,0.19844,84.876,17.132,0.25709,0.4451,0.56445,0.70588
7.416,0.19355,83.507,17.014,0.25806,0.44902,0.57031,0.7098
7.424,0.18768,82.138,16.701,0.25904,0.44902,0.57422,0.70588
7.432,0.18182,80.769,16.389,0.26002,0.4451,0.56445,0.71569
7.44,0.17595,79.4,16.506,0.261,0.44902,0.57031,0.70588
7.448,0.17009,78.227,16.936,0.261,0.44902,0.57422,0.7098
7.456,0.16325,76.662,17.327,0.261,0.46078,0.57031,0.70588
7.464,0.15738,75.293,17.445,0.26197,0.44902,0.57031,0.7098
7.472,0.15054,73.729,17.21,0.26588,0.4549,0.57422,0.70588
7.48,0.14565,72.164,17.014,0.27566,0.4549,0.57422,0.70588
7.488,0.14076,70.404,17.249,0.29423,0.46471,0.58008,0.70588
7.496,0.13587,68.449,17.953,0.3216,0.46078,0.57422,0.70588
7.504,0.13196,66.688,18.774,0.3607,0.46078,0.58008,0.70588
7.512,0.12903,65.124,19.283,0.40762,0.46078,0.58398,0.70588
7.52,0.12512,63.755,19.205,0.46041,0.46471,0.58984,0.7
7.528,0.12219,62.582,18.814,0.51613,0.47059,0.58984,0.7
7.536,0.11926,61.604,18.383,0.56305,0.46471,0.58984,0.7
7.544,0.1173,60.821,18.266,0.60313,0.47451,0.5957,0.69608
7.552,0.11535,60.235,18.462,0.64321,0.48039,0.60547,0.6902
7.56,0.11437,59.844,18.774,0.6784,0.5,0.61914,0.68039
7.568,0.11339,59.844,18.97,0.70577,0.51961,0.62891,0.67059
7.576,0.11241,59.844,18.892,0.72434,0.5098,0.625,0.66471
7.584,0.11241,59.844,18.579,0.73607,0.52549,0.64062,0.6549
7.592,0.11241,60.235,18.188,0.74096,0.57451,0.67578,0.62941
7.6,0.11339,60.626,18.031,0.739,0.58039,0.68945,0.64118
7.608,0.11437,61.017,18.031,0.73314,0.55098,0.66406,0.64118
7.616,0.11535,61.408,18.149,0.72434,0.53922,0.67578,0.65098
7.624,0.11632,61.604,18.188,0.71261,0.52549,0.66406,0.6549
7.632,0.1173,61.799,18.07,0.69892,0.5,0.6543,0.67059
7.64,0.11828,61.995,17.875,0.68622,0.48431,0.62891,0.68039
7.648,0.11926,62.19,17.64,0.67253,0.44902,0.60938,0.70588
7.656,0.12121,62.19,17.405,0.65787,0.44902,0.5957,0.70588
7.664,0.12219,62.19,17.249,0.64321,0.43922,0.58398,0.71569
7.672,0.12414,61.995,17.21,0.62854,0.4451,0.58398,0.7098
7.68,0.12512,61.604,17.21,0.61388,0.43529,0.58984,0.72157
7.688,0.12708,61.408,17.21,0.59726,0.43922,0.58984,0.71569
7.696,0.12903,60.821,17.132,0.57869,0.43922,0.58398,0.71569
7.704,0.13099,60.43,16.936,0.56207,0.4451,0.58984,0.70588
7.712,0.13196,59.844,16.819,0.54545,0.4451,0.58398,0.7098
7.72,0.13392,59.452,16.78,0.52884,0.44902,0.59961,0.72157
7.728,0.13587,58.866,16.897,0.51124,0.44902,0.60547,0.7098
7.736,0.13685,58.475,17.21,0.49462,0.44902,0.64453,0.6902
7.744,0.13881,57.888,17.445,0.47996,0.48039,0.74414,0.62549
7.752,0.14076,57.301,17.64,0.46237,0.57059,0.91992,0.51961
7.76,0.14272,56.91,17.64,0.44477,0.65098,1.084,0.41569
7.768,0.1437,56.323,17.64,0.42815,0.5902,1.0898,0.4098
7.776,0.14565,55.932,17.562,0.41153,0.4902,0.76562,0.6098
7.784,0.14663,55.346,17.718,0.39589,0.44902,0.62891,0.7
7.792,0.14858,54.954,17.875,0.38221,0.42941,0.56445,0.72157
7.8,0.15054,54.368,18.07,0.3695,0.42941,0.57031,0.71569
7.808,0.15249,53.977,18.344,0.35875,0.43922,0.57422,0.71569
7.816,0.15543,53.585,18.462,0.34995,0.43529,0.58398,0.72549
7.824,0.15738,53.194,18.579,0.34311,0.44902,0.58984,0.72157
7.832,0.16031,52.803,18.696,0.33822,0.4451,0.58984,0.72549
7.84,0.16227,52.412,18.814,0.33529,0.44902,0.5957,0.72157
7.848,0.16422,52.021,18.814,0.33431,0.44902,0.58984,0.72157
7.856,0.16618,51.825,18.892,0.33333,0.4549,0.5957,0.7098
7.864,0.16813,51.434,18.892,0.33236,0.46078,0.59961,0.7098
7.872,0.17107,51.239,19.009,0.33333,0.46471,0.59961,0.70588
7.88,0.17302,51.043,19.283,0.33333,0.46078,0.59961,0.70588
7.888,0.17595,50.847,19.518,0.33431,0.47451,0.59961,0.70588
7.896,0.17889,50.652,19.752,0.33431,0.47451,0.59961,0.70588
7.904,0.18084,50.456,19.948,0.33529,0.48039,0.60547,0.69608
7.912,0.18377,50.261,20.026,0.33431,0.48431,0.60938,0.6902
7.92,0.18671,49.87,19.948,0.33431,0.4902,0.61914,0.68039
7.928,0.19062,49.674,19.83,0.33236,0.49412,0.625,0.68627
7.936,0.19355,49.283,19.713,0.33138,0.49412,0.64062,0.68039
7.944,0.19746,49.087,19.596,0.3304,0.5,0.65039,0.68039
7.952,0.20137,48.892,19.518,0.32845,0.50588,0.66016,0.67059
7.96,0.2043,48.501,19.4,0.32551,0.5098,0.66992,0.66471
7.968,0.20821,48.501,19.283,0.3216,0.51961,0.67969,0.65098
7.976,0.21212,48.696,19.087,0.31867,0.52941,0.69922,0.63529
7.984,0.21505,50.065,18.814,0.31378,0.53529,0.71484,0.62941
7.992,0.21799,53.781,18.579,0.30987,0.5451,0.72461,0.62549
8,0.2219,60.235,18.383,0.30499,0.53922,0.74023,0.61569
8.008,0.22483,69.035,18.149,0.3001,0.55098,0.74023,0.6098
8.016,0.22776,78.031,17.953,0.29521,0.5451,0.74023,0.61961
8.024,0.22972,86.05,17.757,0.2913,0.5451,0.72461,0.61961
8.032,0.23265,93.09,17.523,0.28641,0.52549,0.69922,0.63529
8.04,0.23363,99.153,17.327,0.2825,0.5098,0.66992,0.65098
8.048,0.23558,104.04,17.132,0.27957,0.5,0.64453,0.67059
8.056,0.23558,107.17,16.936,0.27566,0.48431,0.61914,0.68039
8.064,0.23656,108.34,16.701,0.27273,0.46471,0.60547,0.69608
8.072,0.23558,107.95,16.467,0.26882,0.4549,0.58984,0.7
8.08,0.2346,106.39,16.193,0.26491,0.43922,0.58008,0.71569
8.088,0.23167,104.24,15.88,0.26197,0.43529,0.57422,0.71569
8.096,0.22874,101.5,15.645,0.26002,0.42941,0.57031,0.72157
8.104,0.22483,98.761,15.45,0.25709,0.43922,0.56445,0.72157
8.112,0.22092,96.219,15.332,0.25611,0.43922,0.56055,0.72157
8.12,0.21701,93.677,15.254,0.25513,0.43529,0.56445,0.71569
8.128,0.21408,91.33,15.215,0.25513,0.43529,0.56055,0.72157
8.136,0.21017,88.983,15.215,0.25611,0.42941,0.56055,0.71569
8.144,0.20723,87.223,15.254,0.25709,0.43529,0.56445,0.72157
8.152,0.2043,85.267,15.332,0.25806,0.43922,0.56445,0.72549
8.16,0.20137,83.703,15.372,0.26002,0.4451,0.57031,0.71569
8.168,0.19746,82.138,15.45,0.261,0.43922,0.57422,0.7098
8.176,0.19453,80.769,15.528,0.26295,0.4451,0.57031,0.7098
8.184,0.19257,79.4,15.567,0.26295,0.43922,0.57422,0.71569
8.192,0.19062,78.031,15.645,0.26295,0.44902,0.58008,0.7098
8.2,0.18866,76.467,15.763,0.26295,0.44902,0.58398,0.71569
8.208,0.18768,75.098,15.88,0.26491,0.44902,0.58398,0.7098
8.216,0.18671,73.533,16.076,0.26979,0.44902,0.58984,0.71569
8.224,0.18573,71.773,16.271,0.28055,0.4549,0.5957,0.7098
8.232,0.18573,70.013,16.389,0.3001,0.44902,0.60547,0.7098
8.24,0.18573,68.253,16.506,0.32356,0.4549,0.60547,0.70588
8.248,0.18671,66.493,16.584,0.35386,0.44902,0.60547,0.7098
8.256,0.18866,64.928,16.78,0.39492,0.46471,0.60547,0.70588
8.264,0.19159,63.559,17.014,0.44379,0.46078,0.60547,0.70588
8.272,0.19453,62.386,17.64,0.49658,0.47059,0.60547,0.70588
8.28,0.19941,61.604,18.501,0.54936,0.46471,0.60547,0.70588
8.288,0.20332,61.017,19.283,0.59922,0.47059,0.60547,0.70588
8.296,0.20821,60.43,19.635,0.64125,0.47451,0.61914,0.7
8.304,0.2131,60.235,19.596,0.67644,0.5,0.63477,0.68039
8.312,0.22092,60.039,19.322,0.70283,0.51569,0.64453,0.68039
8.32,0.22776,60.235,19.087,0.72043,0.51569,0.64453,0.67647
8.328,0.23558,60.43,19.009,0.73021,0.52549,0.6543,0.66078
8.336,0.24438,60.821,18.97,0.73314,0.57059,0.68945,0.63529
8.344,0.25318,61.213,18.97,0.73118,0.58431,0.69922,0.62941
8.352,0.261,61.604,18.892,0.72532,0.5451,0.68555,0.65098
8.36,0.26979,61.995,18.814,0.71652,0.5451,0.67969,0.6451
8.368,0.27859,62.386,18.774,0.70577,0.52941,0.67578,0.6549
8.376,0.28837,62.777,18.814,0.69404,0.51569,0.66406,0.67059
8.384,0.29912,62.973,18.892,0.68035,0.5,0.6543,0.68039
8.392,0.31085,63.168,18.97,0.66667,0.47451,0.62891,0.69608
8.4,0.32258,63.168,18.892,0.65298,0.44902,0.60938,0.70588
8.408,0.33627,63.168,18.696,0.63832,0.44902,0.60547,0.70588
8.416,0.34995,62.973,18.501,0.62463,0.4451,0.60547,0.71569
8.424,0.36461,62.582,18.383,0.60997,0.43922,0.60547,0.7098
8.432,0.37928,62.19,18.266,0.59531,0.43529,0.60547,0.72157
8.44,0.39296,61.799,18.188,0.5826,0.43529,0.60547,0.71569
8.448,0.40665,61.408,18.188,0.56891,0.42941,0.60547,0.72157
8.456,0.41935,60.821,18.266,0.55523,0.43922,0.60547,0.71569
8.464,0.43206,60.235,18.344,0.53959,0.4451,0.60938,0.7098
8.472,0.44673,59.844,18.383,0.52297,0.46471,0.61914,0.7
8.48,0.46041,59.257,18.501,0.50538,0.44902,0.65039,0.6902
8.488,0.47605,58.866,18.579,0.48778,0.48431,0.75977,0.62941
8.496,0.49071,58.279,18.657,0.46921,0.57059,0.94922,0.53922
8.504,0.5044,57.888,18.696,0.45161,0.66471,1.1387,0.42941
8.512,0.51906,57.301,18.892,0.43402,0.68039,1.1797,0.4098
8.52,0.53177,56.91,19.126,0.41838,0.5098,0.83984,0.58431
8.528,0.54545,56.519,19.4,0.40371,0.46078,0.6543,0.68627
8.536,0.56012,55.932,19.635,0.39198,0.4451,0.58008,0.7098
8.544,0.57478,55.541,19.83,0.38221,0.4451,0.57422,0.71569
8.552,0.5914,55.15,20.065,0.37439,0.4451,0.58008,0.72157
8.56,0.60802,54.759,20.339,0.36657,0.43922,0.58398,0.72157
8.568,0.62659,54.563,20.574,0.3607,0.4451,0.58984,0.72549
8.576,0.64418,54.172,20.887,0.35679,0.44902,0.58984,0.72157
8.584,0.66373,53.977,21.121,0.35484,0.44902,0.59961,0.72157
8.592,0.68231,53.781,21.395,0.35386,0.44902,0.59961,0.71569
8.6,0.6999,53.39,21.63,0.35484,0.44902,0.60547,0.72157
8.608,0.7175,53.194,21.903,0.35582,0.4549,0.60547,0.7098
8.616,0.73412,52.999,22.06,0.35777,0.4549,0.60547,0.70588
8.624,0.75073,52.803,22.256,0.35973,0.46471,0.60938,0.7
8.632,0.76833,52.803,22.334,0.36168,0.46471,0.61914,0.70588
8.64,0.78592,52.608,22.334,0.36364,0.47451,0.625,0.69608
8.648,0.8045,52.412,22.334,0.36461,0.47451,0.625,0.7
8.656,0.82307,52.216,22.256,0.36461,0.47451,0.62891,0.6902
8.664,0.84066,52.021,22.216,0.36461,0.47451,0.62891,0.6902
8.672,0.85826,51.825,22.138,0.36364,0.48431,0.64062,0.68039
8.68,0.8739,51.434,21.943,0.36168,0.49412,0.65039,0.68039
8.688,0.89052,51.239,21.63,0.35875,0.5,0.6543,0.67059
8.696,0.90811,50.847,21.278,0.35582,0.50588,0.66406,0.66471
8.704,0.92571,50.652,20.887,0.35191,0.51961,0.67578,0.65098
8.712,0.94428,50.652,20.535,0.348,0.53529,0.69531,0.6451
8.72,0.96285,50.847,20.143,0.34409,0.5451,0.71484,0.62941
8.728,0.98143,52.608,19.752,0.34018,0.55098,0.73047,0.62941
8.736,1,57.106,19.518,0.33627,0.56471,0.74414,0.61961
8.744,1,64.537,19.205,0.33333,0.57059,0.75391,0.61569
8.752,1,73.729,18.97,0.32942,0.56471,0.76562,0.6098
8.76,1,82.725,18.657,0.32551,0.57059,0.76562,0.6098
8.768,1,90.548,18.383,0.32063,0.5549,0.74414,0.61961
8.776,1,97.393,18.07,0.31672,0.53922,0.7207,0.62941
8.784,1,103.06,17.836,0.31281,0.52549,0.69531,0.6451
8.792,1,107.37,17.562,0.3089,0.50588,0.66016,0.6549
8.8,1,109.71,17.405,0.30596,0.49412,0.62891,0.67647
8.808,1,110.1,17.21,0.30205,0.47451,0.60547,0.68039
8.816,1,108.93,17.093,0.29912,0.46471,0.58984,0.69608
8.824,1,106.98,16.897,0.29717,0.46078,0.58008,0.7
8.832,1,104.24,16.701,0.29619,0.44902,0.57422,0.70588
8.84,1,101.5,16.506,0.29521,0.44902,0.57031,0.7098
8.848,1,98.566,16.389,0.29521,0.43922,0.57031,0.72157
8.856,1,95.828,16.193,0.29619,0.43922,0.56445,0.7098
8.864,1,93.286,16.076,0.29717,0.43922,0.57031,0.72157
8.872,1,90.939,15.958,0.29912,0.44902,0.56445,0.7098
8.88,1,88.983,15.841,0.30108,0.4451,0.57031,0.7098
8.888,1,87.027,15.684,0.30401,0.44902,0.57031,0.70588
8.896,1,85.267,15.528,0.30596,0.44902,0.57031,0.7098
8.904,1,83.898,15.372,0.30792,0.44902,0.56445,0.70588
8.912,1,82.529,15.215,0.3089,0.44902,0.56445,0.71569
8.92,1,81.16,15.02,0.3089,0.4451,0.57031,0.7098
8.928,1,79.791,14.902,0.30792,0.43922,0.56445,0.71569
8.936,1,78.618,14.707,0.30694,0.4451,0.57031,0.72157
8.944,1,77.445,14.589,0.30596,0.4451,0.57031,0.70588
8.952,1,76.076,14.511,0.30596,0.44902,0.57031,0.70588
8.96,1,74.707,14.433,0.3089,0.44902,0.57031,0.70588
8.968,1,73.142,14.433,0.31672,0.4451,0.58008,0.7098
8.976,1,71.578,14.511,0.33333,0.4549,0.58008,0.70588
8.984,1,69.818,14.511,0.35973,0.44902,0.58008,0.70588
8.992,1,68.253,14.589,0.39492,0.4549,0.58008,0.70588
9,1,66.688,14.628,0.43988,0.44902,0.58398,0.7098
9.008,1,65.319,14.707,0.48974,0.46078,0.58984,0.70588
9.016,1,64.146,14.824,0.54154,0.46078,0.58984,0.70588
9.024,1,63.168,14.902,0.5914,0.46471,0.58984,0.70588
9.032,1,62.582,14.941,0.63148,0.4549,0.59961,0.70588
9.04,1,61.995,15.02,0.66373,0.46471,0.60547,0.7
9.048,1,61.604,15.059,0.69306,0.48039,0.61523,0.6902
9.056,1,61.408,15.137,0.71652,0.50588,0.62891,0.68039
9.064,1,61.408,15.215,0.73314,0.50588,0.62891,0.68627
9.072,1,61.408,15.215,0.74194,0.5,0.62891,0.67647
9.08,1,61.604,15.254,0.74487,0.53922,0.6543,0.6549
9.088,1,61.799,15.254,0.74291,0.57451,0.67969,0.63529
9.096,1,62.19,15.332,0.73607,0.5451,0.66992,0.65098
9.104,1,62.386,15.332,0.72532,0.53529,0.66016,0.6549
9.112,1,62.582,15.332,0.71359,0.52549,0.6543,0.66078
9.12,1,62.582,15.254,0.6999,0.51569,0.65039,0.67059
9.128,0.98827,62.777,15.215,0.68524,0.5,0.63477,0.68039
9.136,0.97556,62.777,15.137,0.67058,0.47451,0.61523,0.69608
9.144,0.96188,62.582,15.059,0.65689,0.4549,0.5957,0.7098
9.152,0.94819,62.386,15.02,0.64223,0.4451,0.58398,0.71569
9.16,0.93548,61.995,14.941,0.62757,0.42941,0.58008,0.72157
9.168,0.92278,61.604,14.902,0.6129,0.42941,0.58008,0.72549
9.176,0.90811,61.213,14.824,0.59726,0.43529,0.57031,0.72157
9.184,0.89345,60.821,14.746,0.58162,0.43529,0.57422,0.72549
9.192,0.87781,60.235,14.707,0.56598,0.42941,0.57422,0.72157
9.2,0.86217,59.844,14.628,0.55034,0.42549,0.58008,0.72549
9.208,0.84653,59.257,14.589,0.53275,0.42941,0.58008,0.72157
9.216,0.83187,58.67,14.589,0.51515,0.43529,0.58398,0.72549
9.224,0.8172,58.279,14.589,0.49756,0.4451,0.60938,0.70588
9.232,0.80254,57.692,14.628,0.48094,0.43922,0.68555,0.67059
9.24,0.78983,57.106,14.707,0.4653,0.5098,0.83008,0.58431
9.248,0.77713,56.715,14.824,0.44868,0.6,1.0254,0.48039
9.256,0.7654,56.128,14.941,0.43206,0.6451,1.1035,0.42549
9.264,0.75464,55.737,15.059,0.41544,0.5098,0.86914,0.5451
9.272,0.74389,55.346,15.254,0.3998,0.46078,0.66406,0.67059
9.28,0.73412,54.759,15.372,0.38612,0.42941,0.56445,0.72157
9.288,0.72434,54.368,15.567,0.37243,0.42549,0.55078,0.72549
9.296,0.71457,53.977,15.684,0.36168,0.42941,0.56055,0.72157
9.304,0.70577,53.585,15.88,0.35191,0.43529,0.56055,0.72549
9.312,0.69697,53.194,15.997,0.34409,0.43529,0.56055,0.73529
9.32,0.69013,52.999,16.193,0.33822,0.43922,0.56055,0.73137
9.328,0.68231,52.608,16.271,0.33333,0.43922,0.56445,0.73137
9.336,0.67546,52.412,16.389,0.3304,0.43922,0.57031,0.72549
9.344,0.66862,52.021,16.506,0.32845,0.43922,0.57422,0.72549
9.352,0.66276,51.825,16.584,0.32649,0.4451,0.58008,0.72157
9.36,0.65591,51.63,16.584,0.32551,0.44902,0.58008,0.72549
9.368,0.65005,51.434,16.584,0.32454,0.4451,0.58984,0.72157
9.376,0.64418,51.239,16.584,0.32356,0.44902,0.58984,0.72157
9.384,0.6393,51.043,16.584,0.32258,0.44902,0.5957,0.71569
9.392,0.63441,50.847,16.506,0.3216,0.44902,0.59961,0.70588
9.4,0.62952,50.652,16.506,0.31965,0.44902,0.60547,0.7098
9.408,0.62463,50.456,16.506,0.31769,0.46078,0.60547,0.70588
9.416,0.62072,50.065,16.506,0.31574,0.46471,0.60938,0.7
9.424,0.61584,49.87,16.584,0.31378,0.47451,0.61914,0.6902
9.432,0.61095,49.479,16.584,0.31183,0.47451,0.62891,0.69608
9.44,0.60704,49.087,16.584,0.30987,0.48039,0.64062,0.68627
9.448,0.60215,48.892,16.506,0.30694,0.4902,0.6543,0.68039
9.456,0.59726,48.501,16.389,0.30401,0.50588,0.66992,0.6549
9.464,0.59335,48.501,16.31,0.3001,0.51569,0.68555,0.6549
9.472,0.58944,49.283,16.193,0.29619,0.52549,0.69922,0.63529
9.48,0.58651,51.63,16.154,0.29228,0.52941,0.7207,0.64118
9.488,0.5826,56.91,15.997,0.28837,0.5451,0.72461,0.62549
9.496,0.57967,64.928,15.958,0.28446,0.53922,0.73047,0.62549
9.504,0.57576,74.12,15.763,0.28055,0.5451,0.73438,0.61569
9.512,0.57185,82.725,15.645,0.27664,0.52941,0.72461,0.62941
9.52,0.56696,90.157,15.45,0.27273,0.51961,0.70508,0.63529
9.528,0.56305,96.806,15.332,0.26882,0.50588,0.67578,0.65098
9.536,0.55816,102.48,15.137,0.26588,0.49412,0.65039,0.66471
9.544,0.55425,106.19,14.941,0.26393,0.47451,0.61914,0.68039
9.552,0.54936,108.15,14.824,0.261,0.46078,0.59961,0.7
9.56,0.54448,108.34,14.707,0.25806,0.4451,0.58008,0.70588
9.568,0.53959,107.17,14.589,0.25513,0.43922,0.57031,0.71569
9.576,0.53372,105.02,14.433,0.25318,0.42941,0.56055,0.72157
9.584,0.52884,102.28,14.315,0.25122,0.42549,0.56055,0.72549
9.592,0.52199,99.544,14.198,0.24927,0.42549,0.55078,0.72549
9.6,0.51515,96.61,14.003,0.24829,0.41961,0.55078,0.72549
9.608,0.50733,93.872,13.885,0.24731,0.42549,0.55469,0.72549
9.616,0.49951,91.525,13.768,0.24731,0.42549,0.54492,0.72549
9.624,0.49169,89.179,13.651,0.24731,0.42941,0.53906,0.72549
9.632,0.48387,87.223,13.572,0.24927,0.42941,0.55078,0.72549
9.64,0.47703,85.463,13.455,0.25122,0.43529,0.53906,0.72157
9.648,0.46921,83.703,13.377,0.2522,0.42941,0.55078,0.72157
9.656,0.46139,82.334,13.338,0.25415,0.43529,0.55078,0.72157
9.664,0.45357,80.965,13.259,0.25513,0.42941,0.55469,0.72549
9.672,0.44575,79.596,13.259,0.25611,0.43529,0.55469,0.72157
9.68,0.43695,78.227,13.338,0.25513,0.42941,0.55469,0.72549
9.688,0.42913,77.054,13.377,0.25415,0.43529,0.55469,0.72157
9.696,0.42131,75.685,13.494,0.25415,0.43529,0.55469,0.72549
9.704,0.41251,74.12,13.69,0.25513,0.4451,0.56055,0.72157
9.712,0.40469,72.555,13.807,0.261,0.43922,0.56055,0.72549
9.72,0.39785,70.991,14.003,0.27468,0.44902,0.56055,0.72157
9.728,0.39003,69.231,14.12,0.29717,0.44902,0.56055,0.72157
9.736,0.38319,67.471,14.315,0.32454,0.4451,0.57031,0.72549
9.744,0.37634,65.906,14.433,0.35679,0.44902,0.57031,0.71569
9.752,0.3695,64.342,14.628,0.40078,0.44902,0.57031,0.7098
9.76,0.36364,62.973,14.707,0.45161,0.4549,0.57422,0.70588
9.768,0.35679,61.995,14.824,0.50538,0.46078,0.58008,0.7098
9.776,0.35093,61.408,14.902,0.55718,0.4549,0.58008,0.70588
9.784,0.34604,60.626,14.941,0.60508,0.46078,0.58398,0.71569
9.792,0.34213,60.235,15.02,0.64516,0.47451,0.5957,0.7
9.8,0.33822,60.039,15.059,0.67742,0.5,0.61523,0.68039
9.808,0.33431,59.844,15.059,0.70088,0.5098,0.625,0.68039
9.816,0.33138,59.844,15.059,0.71554,0.5,0.62891,0.68627
9.824,0.32845,60.039,15.02,0.72239,0.52549,0.64453,0.66471
9.832,0.32649,60.235,14.941,0.72336,0.56471,0.66992,0.65098
9.84,0.32454,60.626,14.902,0.71945,0.57059,0.67578,0.6451
9.848,0.32258,60.821,14.824,0.71261,0.52549,0.66016,0.6549
9.856,0.32063,61.213,14.707,0.70186,0.52549,0.66406,0.6549
9.864,0.31965,61.408,14.628,0.69013,0.5098,0.6543,0.67059
9.872,0.31867,61.408,14.511,0.67644,0.5,0.65039,0.68039
9.88,0.31769,61.604,14.394,0.66276,0.47451,0.63477,0.69608
9.888,0.31672,61.604,14.276,0.64809,0.4549,0.61523,0.70588
9.896,0.31574,61.604,14.198,0.63343,0.4451,0.5957,0.72157
9.904,0.31476,61.408,14.12,0.61877,0.43922,0.58984,0.72157
9.912,0.31378,61.213,14.003,0.60508,0.42941,0.58398,0.72549
9.92,0.31281,60.821,13.963,0.59042,0.43922,0.58398,0.72157
9.928,0.31281,60.43,13.885,0.57576,0.43529,0.58984,0.72157
9.936,0.31183,59.844,13.885,0.56305,0.43922,0.58984,0.71569
9.944,0.31183,59.452,13.807,0.54936,0.42941,0.58398,0.72549
9.952,0.31085,59.061,13.807,0.5347,0.4451,0.58984,0.7098
9.96,0.31085,58.475,13.807,0.51906,0.4549,0.59961,0.71569
9.968,0.31085,58.083,13.885,0.50244,0.46078,0.61523,0.70588
9.976,0.30987,57.497,13.963,0.48485,0.46078,0.66016,0.68627
9.984,0.30987,56.91,14.081,0.46628,0.5,0.77539,0.61569
9.992,0.30987,56.519,14.198,0.44868,0.58431,0.95508,0.50588
10,0.30987,56.128,14.315,0.43011,0.66078,1.1094,0.41569
10.008,0.3089,55.541,14.511,0.41349,0.56471,0.95508,0.48431
10.016,0.3089,55.15,14.628,0.39785,0.48039,0.74023,0.63529
10.024,0.3089,54.759,14.824,0.38319,0.44902,0.60547,0.7
10.032,0.3089,54.368,15.02,0.37146,0.43529,0.56445,0.72157
10.04,0.30792,53.781,15.137,0.36168,0.43922,0.57031,0.71569
10.048,0.30792,53.585,15.332,0.35288,0.4451,0.58008,0.72549
10.056,0.30792,53.194,15.45,0.34506,0.4549,0.57422,0.72157
10.064,0.30792,52.803,15.567,0.3392,0.44902,0.58008,0.72549
10.072,0.30792,52.412,15.684,0.33431,0.4549,0.58008,0.72157
10.08,0.3089,52.216,15.763,0.3304,0.4549,0.58008,0.72157
10.088,0.3089,52.021,15.841,0.32845,0.4549,0.58008,0.71569
10.096,0.30987,51.63,15.958,0.32747,0.44902,0.58398,0.72157
10.104,0.31085,51.434,15.997,0.32649,0.4549,0.58984,0.7098
10.112,0.31085,51.043,16.076,0.32649,0.46078,0.5957,0.72157
10.12,0.31183,50.847,16.154,0.32649,0.46471,0.58984,0.70588
10.128,0.31183,50.652,16.154,0.32747,0.47059,0.5957,0.70588
10.136,0.31281,50.652,16.154,0.32747,0.47451,0.60547,0.7
10.144,0.31378,50.261,16.076,0.32845,0.47451,0.60938,0.7
10.152,0.31476,50.065,16.076,0.32845,0.48039,0.61523,0.6902
10.16,0.31672,49.87,16.154,0.32747,0.48431,0.61914,0.6902
10.168,0.31769,49.479,16.193,0.32649,0.49412,0.62891,0.68039
10.176,0.31965,49.283,16.271,0.32454,0.5,0.63477,0.68039
10.184,0.32063,49.087,16.31,0.32258,0.50588,0.65039,0.67059
10.192,0.32258,48.696,16.271,0.31965,0.51569,0.6543,0.66078
10.2,0.32454,48.305,16.193,0.31769,0.52549,0.67578,0.65098
10.208,0.32551,48.305,16.076,0.31378,0.53922,0.68555,0.6451
10.216,0.32747,48.501,15.997,0.31085,0.5451,0.70508,0.62941
10.224,0.32942,50.065,15.88,0.30694,0.5451,0.7207,0.62549
10.232,0.3304,53.781,15.763,0.30303,0.5549,0.73047,0.61569
10.24,0.33236,60.626,15.567,0.3001,0.56078,0.74414,0.6098
10.248,0.33333,69.426,15.45,0.29619,0.5549,0.74414,0.6098
10.256,0.33431,78.227,15.254,0.29228,0.56471,0.74023,0.6098
10.264,0.33529,86.245,15.137,0.28739,0.5451,0.72461,0.62549
10.272,0.33627,93.09,14.902,0.28348,0.52549,0.69531,0.62941
10.28,0.33627,99.153,14.707,0.27859,0.51569,0.66992,0.6549
10.288,0.33627,103.65,14.511,0.27468,0.5,0.64453,0.66078
10.296,0.33529,106.39,14.394,0.27077,0.48431,0.61914,0.68039
10.304,0.33333,107.37,14.198,0.26686,0.47451,0.59961,0.68627
10.312,0.3304,106.58,14.081,0.26295,0.46078,0.58008,0.7
10.32,0.32845,104.82,13.963,0.26002,0.4549,0.57031,0.70588
10.328,0.32454,102.28,13.768,0.25709,0.44902,0.57031,0.7098
10.336,0.32063,99.544,13.572,0.25611,0.44902,0.56055,0.70588
10.344,0.31574,96.61,13.455,0.25513,0.4451,0.56055,0.7098
10.352,0.31085,94.068,13.338,0.25415,0.4451,0.56055,0.71569
10.36,0.30596,91.721,13.181,0.25318,0.4451,0.56055,0.7098
10.368,0.30108,89.374,13.064,0.25318,0.44902,0.56055,0.70588
10.376,0.29619,87.419,13.025,0.25318,0.44902,0.56445,0.70588
10.384,0.2913,85.463,12.947,0.25318,0.4549,0.57031,0.7098
10.392,0.28543,83.898,12.947,0.25415,0.4549,0.56445,0.70588
10.4,0.28055,82.334,12.947,0.25513,0.44902,0.57031,0.7098
10.408,0.27468,80.965,13.025,0.25611,0.4549,0.57422,0.70588
10.416,0.26882,79.596,13.064,0.25611,0.44902,0.57031,0.7098
10.424,0.26295,78.227,13.142,0.25611,0.4549,0.56445,0.70588
10.432,0.25709,77.054,13.259,0.25611,0.4549,0.57031,0.70588
10.44,0.2522,75.685,13.338,0.25611,0.46078,0.57422,0.70588
10.448,0.24633,74.316,13.455,0.25611,0.46078,0.58008,0.70588
10.456,0.24145,72.947,13.69,0.26002,0.46471,0.58008,0.70588
10.464,0.23558,71.382,13.885,0.26784,0.46078,0.58398,0.70588
10.472,0.22972,69.818,14.12,0.28446,0.46471,0.58398,0.70588
10.48,0.22483,68.057,14.315,0.31085,0.46471,0.58398,0.70588
10.488,0.21896,66.297,14.433,0.34702,0.46471,0.58398,0.70588
10.496,0.21408,64.733,14.589,0.39198,0.46471,0.5957,0.70588
10.504,0.20919,63.364,14.707,0.44379,0.47059,0.59961,0.7
10.512,0.2043,62.19,14.824,0.49853,0.46471,0.5957,0.70588
10.52,0.20137,61.408,14.902,0.5523,0.47059,0.59961,0.69608
10.528,0.19746,60.626,14.902,0.59629,0.46471,0.5957,0.70588
10.536,0.1955,60.039,14.902,0.63148,0.48039,0.60547,0.68627
10.544,0.19257,59.648,14.902,0.66471,0.5,0.61914,0.68039
10.552,0.19062,59.452,14.902,0.69208,0.51569,0.62891,0.66471
10.56,0.18964,59.452,14.824,0.71261,0.51961,0.62891,0.67647
10.568,0.18866,59.648,14.746,0.72434,0.52549,0.64453,0.66078
10.576,0.18768,59.844,14.746,0.73021,0.5549,0.66992,0.65098
10.584,0.18768,60.039,14.707,0.73021,0.57059,0.69531,0.64118
10.592,0.18671,60.43,14.589,0.72434,0.53922,0.67578,0.6451
10.6,0.18671,60.821,14.511,0.71652,0.52941,0.67578,0.6549
10.608,0.18671,61.017,14.394,0.70479,0.51961,0.66406,0.6549
10.616,0.18768,61.408,14.276,0.69306,0.51569,0.6543,0.66471
10.624,0.18866,61.604,14.12,0.6784,0.5,0.64453,0.67647
10.632,0.18964,61.604,14.003,0.66569,0.47451,0.625,0.6902
10.64,0.19062,61.604,13.885,0.652,0.46078,0.60547,0.70588
10.648,0.19257,61.604,13.768,0.63832,0.44902,0.60547,0.71569
10.656,0.19355,61.408,13.69,0.62366,0.44902,0.60547,0.7098
10.664,0.19453,61.017,13.651,0.60899,0.44902,0.59961,0.71569
10.672,0.1955,60.626,13.572,0.59433,0.44902,0.5957,0.7098
10.68,0.19648,60.235,13.572,0.57967,0.44902,0.5957,0.71569
10.688,0.19746,59.844,13.494,0.56403,0.44902,0.5957,0.70588
10.696,0.19844,59.257,13.494,0.54839,0.44902,0.5957,0.72157
10.704,0.19941,58.67,13.572,0.53177,0.44902,0.59961,0.7098
10.712,0.20039,58.279,13.572,0.51417,0.46078,0.60547,0.7098
10.72,0.20137,57.692,13.651,0.49658,0.46471,0.62891,0.69608
10.728,0.20235,57.106,13.768,0.48094,0.46078,0.69922,0.6549
10.736,0.20332,56.715,13.885,0.46628,0.52941,0.84961,0.56471
10.744,0.20332,56.128,14.003,0.44966,0.62549,1.0352,0.4549
10.752,0.2043,55.541,14.12,0.43206,0.66471,1.1094,0.4098
10.76,0.20528,55.15,14.276,0.41642,0.51961,0.84961,0.55098
10.768,0.20626,54.563,14.433,0.40078,0.47059,0.67578,0.67059
10.776,0.20723,54.172,14.628,0.38612,0.43922,0.58398,0.71569
10.784,0.20919,53.781,14.824,0.37341,0.4451,0.56445,0.72157
10.792,0.21017,53.194,15.02,0.36266,0.44902,0.57422,0.70588
10.8,0.21212,52.803,15.137,0.35386,0.44902,0.58398,0.72157
10.808,0.21408,52.412,15.254,0.34604,0.4549,0.58398,0.72549
10.816,0.21603,52.216,15.332,0.34018,0.44902,0.58984,0.72157
10.824,0.21799,51.825,15.45,0.33627,0.46078,0.58984,0.71569
10.832,0.21994,51.434,15.528,0.33431,0.4549,0.5957,0.71569
10.84,0.2219,51.043,15.567,0.33333,0.46078,0.58984,0.7098
10.848,0.22483,50.847,15.645,0.33236,0.46078,0.5957,0.71569
10.856,0.22678,50.652,15.684,0.33236,0.47059,0.58984,0.70588
10.864,0.22874,50.456,15.684,0.33236,0.46471,0.59961,0.7098
10.872,0.23167,50.261,15.763,0.33333,0.47451,0.59961,0.70588
10.88,0.2346,50.065,15.763,0.33333,0.47059,0.60547,0.70588
10.888,0.23754,49.87,15.841,0.33333,0.48039,0.60547,0.69608
10.896,0.24145,49.674,15.88,0.33333,0.47451,0.60547,0.7
10.904,0.24438,49.479,15.958,0.33236,0.48431,0.60938,0.6902
10.912,0.24731,49.087,15.997,0.3304,0.4902,0.61914,0.69608
10.92,0.25024,48.892,15.997,0.32942,0.48431,0.62891,0.68627
10.928,0.25318,48.696,16.076,0.32747,0.5,0.64062,0.68627
10.936,0.25611,48.305,15.997,0.32551,0.50588,0.64453,0.67647
10.944,0.25904,48.11,15.958,0.32356,0.5098,0.6543,0.66471
10.952,0.261,47.914,15.841,0.32063,0.51961,0.67578,0.6549
10.96,0.26393,47.914,15.684,0.31672,0.52549,0.69531,0.65098
10.968,0.26686,48.696,15.645,0.31281,0.5451,0.70898,0.62549
10.976,0.26979,51.043,15.528,0.3089,0.55098,0.72461,0.61961
10.984,0.27175,56.323,15.372,0.30401,0.5549,0.73438,0.6098
10.992,0.27468,64.342,15.254,0.29912,0.56078,0.74023,0.6098
11,0.27664,73.338,15.137,0.29423,0.5549,0.74414,0.6098
11.008,0.27859,81.747,14.902,0.28935,0.56078,0.73047,0.61569
11.016,0.27957,89.179,14.707,0.28446,0.5451,0.7207,0.62549
11.024,0.28055,95.828,14.511,0.28055,0.52941,0.68945,0.63529
11.032,0.28055,101.3,14.315,0.27664,0.51569,0.66016,0.6549
11.04,0.28055,105.22,14.198,0.27468,0.5,0.62891,0.67647
11.048,0.27957,107.17,14.081,0.27175,0.48039,0.61523,0.68627
11.056,0.27859,107.56,14.003,0.26784,0.47059,0.5957,0.7
11.064,0.27566,106.39,13.807,0.26491,0.4549,0.58398,0.70588
11.072,0.2737,104.24,13.69,0.26197,0.44902,0.58008,0.70588
11.08,0.27077,101.69,13.494,0.25904,0.43922,0.57422,0.7098
11.088,0.26784,98.957,13.338,0.25709,0.43922,0.57422,0.71569
11.096,0.26393,96.219,13.181,0.25513,0.43529,0.57031,0.72157
11.104,0.25904,93.481,13.064,0.25318,0.43922,0.57031,0.71569
11.112,0.25318,90.939,13.025,0.2522,0.43529,0.56445,0.71569
11.12,0.24829,88.788,12.947,0.2522,0.43529,0.57422,0.71569
11.128,0.24242,86.636,12.907,0.2522,0.43529,0.58008,0.71569
11.136,0.23656,84.876,12.907,0.25318,0.4451,0.57422,0.7098
11.144,0.23069,83.116,12.907,0.25415,0.4451,0.57422,0.71569
11.152,0.22483,81.552,12.947,0.25513,0.44902,0.57422,0.7098
11.16,0.21994,80.183,13.025,0.25611,0.43922,0.57422,0.71569
11.168,0.21505,78.814,13.142,0.25611,0.4451,0.58008,0.7098
11.176,0.21114,77.64,13.259,0.25513,0.43922,0.57422,0.72157
11.184,0.20723,76.271,13.377,0.25415,0.4451,0.58008,0.72157
11.192,0.2043,74.902,13.572,0.25415,0.4451,0.58008,0.71569
11.2,0.20137,73.533,13.768,0.25513,0.4549,0.58008,0.70588
11.208,0.19941,71.969,13.885,0.261,0.4549,0.58398,0.70588
11.216,0.19746,70.404,14.081,0.2737,0.44902,0.58984,0.7098
11.224,0.19648,68.644,14.276,0.29619,0.44902,0.5957,0.7098
11.232,0.19648,66.884,14.394,0.3216,0.4549,0.59961,0.71569
11.24,0.19648,65.319,14.433,0.35386,0.4549,0.59961,0.70588
11.248,0.19746,63.95,14.433,0.39785,0.4549,0.60547,0.7098
11.256,0.19941,62.582,14.315,0.44966,0.4549,0.60547,0.70588
11.264,0.20235,61.604,14.276,0.50342,0.4549,0.60547,0.7098
11.272,0.20626,60.821,14.198,0.55718,0.46078,0.60547,0.70588
11.28,0.21114,60.235,14.198,0.60606,0.46471,0.60938,0.70588
11.288,0.21701,59.844,14.198,0.64809,0.4902,0.62891,0.68627
11.296,0.22385,59.648,14.315,0.68133,0.50588,0.64062,0.68039
11.304,0.23265,59.648,14.824,0.70674,0.51569,0.6543,0.67647
11.312,0.24047,59.844,15.763,0.72434,0.5098,0.6543,0.68039
11.32,0.24927,60.039,16.897,0.73314,0.53922,0.66992,0.6549
11.328,0.25806,60.43,17.875,0.73607,0.56078,0.68945,0.65098
11.336,0.26784,60.821,18.657,0.73314,0.53922,0.67969,0.6451
11.344,0.27664,61.408,18.97,0.72727,0.51961,0.67578,0.66078
11.352,0.28739,61.604,18.814,0.71848,0.51961,0.67578,0.66471
11.36,0.29814,61.995,18.501,0.70772,0.5098,0.66992,0.67647
11.368,0.31085,62.386,18.188,0.69501,0.5,0.66016,0.68039
11.376,0.32258,62.582,18.188,0.68133,0.47451,0.64453,0.7
11.384,0.33431,62.582,18.344,0.66667,0.46078,0.625,0.7098
11.392,0.34604,62.582,18.501,0.65298,0.44902,0.60938,0.71569
11.4,0.35679,62.386,18.579,0.63832,0.44902,0.60547,0.72157
11.408,0.36852,61.995,18.501,0.62366,0.43922,0.59961,0.71569
11.416,0.38123,61.799,18.462,0.60899,0.43922,0.60547,0.72157
11.424,0.39394,61.408,18.383,0.59335,0.43529,0.60547,0.72157
11.432,0.40762,60.821,18.462,0.57967,0.43922,0.60547,0.72549
11.44,0.42131,60.43,18.501,0.56696,0.43529,0.60547,0.72157
11.448,0.43597,59.844,18.657,0.5523,0.43922,0.61523,0.72549
11.456,0.45064,59.257,18.696,0.53666,0.44902,0.61914,0.71569
11.464,0.46628,58.67,18.657,0.52004,0.44902,0.64453,0.70588
11.472,0.48192,58.279,18.579,0.50244,0.46471,0.70898,0.66078
11.48,0.4956,57.692,18.579,0.48485,0.52549,0.85547,0.59608
11.488,0.50929,57.106,18.657,0.46725,0.62941,1.0547,0.48039
11.496,0.52199,56.715,18.774,0.44966,0.6902,1.1934,0.41569
11.504,0.5347,56.128,18.97,0.43304,0.56471,0.97461,0.5098
11.512,0.54741,55.737,19.126,0.4174,0.48431,0.73438,0.65098
11.52,0.56109,55.15,19.4,0.40274,0.44902,0.60547,0.70588
11.528,0.57478,54.759,19.713,0.39198,0.4451,0.58008,0.71569
11.536,0.58847,54.368,20.026,0.38221,0.44902,0.58984,0.7098
11.544,0.60117,53.977,20.339,0.37341,0.4451,0.5957,0.72549
11.552,0.61388,53.781,20.574,0.36559,0.44902,0.58984,0.72157
11.56,0.62561,53.39,20.769,0.35973,0.44902,0.5957,0.72157
11.568,0.63832,53.194,20.847,0.35484,0.46078,0.5957,0.7098
11.576,0.65298,52.803,20.847,0.35191,0.46471,0.5957,0.7098
11.584,0.66667,52.608,20.847,0.35093,0.47059,0.60547,0.70588
11.592,0.68231,52.412,21.004,0.35093,0.46471,0.60547,0.7098
11.6,0.69795,52.216,21.278,0.35093,0.47059,0.60938,0.70588
11.608,0.71554,52.021,21.434,0.35191,0.47451,0.61523,0.70588
11.616,0.73216,52.021,21.512,0.35386,0.47451,0.61914,0.69608
11.624,0.74976,51.825,21.591,0.35484,0.47451,0.625,0.6902
11.632,0.76735,51.63,21.591,0.35679,0.48039,0.62891,0.6902
11.64,0.78397,51.63,21.63,0.35777,0.4902,0.62891,0.68627
11.648,0.79961,51.434,21.708,0.35777,0.49412,0.63477,0.68039
11.656,0.81427,51.043,21.825,0.35777,0.5,0.64062,0.67647
11.664,0.82893,50.847,22.021,0.35679,0.5,0.65039,0.68039
11.672,0.8436,50.652,22.216,0.35484,0.50588,0.6543,0.67059
11.68,0.85924,50.261,22.256,0.35288,0.5098,0.66406,0.66471
11.688,0.87488,49.87,22.216,0.35093,0.51961,0.67578,0.6549
11.696,0.89052,49.674,22.06,0.34702,0.52549,0.69531,0.6549
11.704,0.90518,49.674,21.943,0.34409,0.53922,0.70898,0.63529
11.712,0.91984,50.456,21.825,0.3392,0.5451,0.72461,0.62941
11.72,0.93353,52.999,21.747,0.33529,0.55098,0.74414,0.61961
11.728,0.94819,58.279,21.708,0.33138,0.56078,0.75977,0.61961
11.736,0.96285,66.297,21.63,0.32845,0.56471,0.76953,0.61569
11.744,0.97752,75.685,21.512,0.32454,0.57059,0.77539,0.6098
11.752,0.98925,84.289,21.434,0.32063,0.56471,0.76562,0.61569
11.76,1,91.721,21.395,0.31574,0.5549,0.75,0.62549
11.768,1,98.175,21.278,0.31183,0.53922,0.7207,0.62941
11.776,1,103.65,21.121,0.30694,0.51569,0.67969,0.6549
11.784,1,107.17,20.887,0.30303,0.5,0.6543,0.67059
11.792,1,108.93,20.769,0.29814,0.48431,0.62891,0.68039
11.8,1,108.93,20.652,0.29521,0.47451,0.60547,0.6902
11.808,1,107.56,20.535,0.29228,0.46471,0.58984,0.7
11.816,1,105.22,20.378,0.28935,0.4549,0.58398,0.70588
11.824,1,102.48,20.339,0.28739,0.44902,0.58008,0.70588
11.832,1,99.544,20.261,0.28641,0.44902,0.58008,0.7098
11.84,1,96.61,20.065,0.28641,0.44902,0.57031,0.70588
11.848,1,94.068,19.752,0.28641,0.44902,0.57031,0.7098
11.856,1,91.525,19.4,0.28641,0.44902,0.57031,0.70588
11.864,1,89.374,19.087,0.28837,0.4451,0.57422,0.71569
11.872,1,87.419,18.814,0.28935,0.4451,0.57031,0.7098
11.88,1,85.463,18.696,0.29228,0.44902,0.57422,0.71569
11.888,1,83.898,18.657,0.29423,0.4549,0.57031,0.70588
11.896,1,82.334,18.657,0.29619,0.44902,0.57031,0.7098
11.904,1,80.965,18.579,0.29814,0.4549,0.57422,0.70588
11.912,1,79.596,18.501,0.29814,0.44902,0.57031,0.7098
11.92,1,78.227,18.266,0.29717,0.4549,0.57422,0.70588
11.928,1,77.054,17.875,0.29717,0.44902,0.56445,0.70588
11.936,1,75.88,17.562,0.29619,0.4549,0.57031,0.70588
11.944,1,74.511,17.405,0.29717,0.44902,0.57031,0.70588
11.952,1,73.142,17.405,0.30205,0.44902,0.57422,0.70588
11.96,1,71.578,17.64,0.31281,0.44902,0.56445,0.7098
11.968,1,70.013,18.031,0.33138,0.44902,0.57422,0.70588
11.976,1,68.253,18.344,0.3607,0.46078,0.57422,0.70588
11.984,1,66.688,18.501,0.3998,0.44902,0.58398,0.7098
11.992,1,65.319,18.657,0.44673,0.4549,0.58398,0.7098
12,1,63.95,18.814,0.49756,0.4549,0.58984,0.70588
12.008,1,62.973,19.009,0.55034,0.46471,0.58984,0.70588
12.016,1,62.19,19.126,0.60117,0.46471,0.58984,0.70588
12.024,1,61.604,19.087,0.64712,0.47451,0.58984,0.70588
12.032,1,61.213,18.892,0.68035,0.48039,0.5957,0.69608
12.04,1,60.821,18.696,0.70577,0.5,0.61523,0.68039
12.048,1,60.821,18.501,0.7263,0.5098,0.62891,0.68039
12.056,1,60.821,18.383,0.74194,0.50588,0.62891,0.67647
12.064,1,60.821,18.266,0.74976,0.51569,0.64062,0.67059
12.072,1,61.017,18.266,0.75269,0.5549,0.66406,0.65098
12.08,1,61.213,18.344,0.75073,0.56078,0.67578,0.6549
12.088,1,61.408,18.266,0.74389,0.51961,0.6543,0.6549
12.096,1,61.408,18.07,0.73412,0.51961,0.66016,0.66078
12.104,0.9912,61.604,17.757,0.72239,0.51569,0.6543,0.6549
12.112,0.9824,61.799,17.562,0.7087,0.50588,0.65039,0.68039
12.12,0.96774,61.799,17.718,0.69404,0.49412,0.63477,0.68039
12.128,0.95406,61.604,17.953,0.67937,0.47451,0.61914,0.7
12.136,0.94037,61.408,18.266,0.66569,0.46078,0.59961,0.70588
12.144,0.92669,61.213,18.383,0.65103,0.44902,0.58984,0.7098
12.152,0.91202,60.821,18.188,0.63636,0.44902,0.58984,0.70588
12.16,0.89638,60.43,17.875,0.62072,0.43922,0.5957,0.71569
12.168,0.88074,60.039,17.562,0.60606,0.44902,0.5957,0.7098
12.176,0.86413,59.648,17.523,0.59042,0.4451,0.5957,0.7098
12.184,0.84946,59.257,17.718,0.57478,0.4451,0.5957,0.71569
12.192,0.8348,58.67,18.031,0.55816,0.43922,0.5957,0.72157
12.2,0.82111,58.279,18.266,0.54154,0.44902,0.59961,0.7098
12.208,0.80841,57.888,18.344,0.52395,0.44902,0.60938,0.70588
12.216,0.79374,57.301,18.344,0.50538,0.44902,0.64453,0.6902
12.224,0.78006,56.91,18.188,0.48778,0.48431,0.75,0.62549
12.232,0.76637,56.519,18.149,0.47116,0.57059,0.92969,0.52941
12.24,0.75269,55.932,18.07,0.4565,0.6549,1.1035,0.42941
12.248,0.739,55.541,18.149,0.43988,0.66471,1.125,0.41569
12.256,0.72532,55.15,18.344,0.42326,0.5,0.78516,0.6
12.264,0.71261,54.563,18.579,0.4086,0.4549,0.63477,0.69608
12.272,0.6999,54.172,18.814,0.39394,0.43529,0.57031,0.71569
12.28,0.69013,53.781,19.087,0.38123,0.43922,0.56445,0.72157
12.288,0.67937,53.39,19.283,0.3695,0.44902,0.57422,0.7098
12.296,0.67058,53.194,19.4,0.35973,0.44902,0.58008,0.72157
12.304,0.6608,52.803,19.439,0.35191,0.44902,0.58008,0.71569
12.312,0.652,52.608,19.439,0.34604,0.44902,0.58008,0.72157
12.32,0.64418,52.216,19.4,0.34115,0.4549,0.58398,0.71569
12.328,0.63539,52.021,19.4,0.33822,0.46078,0.5957,0.71569
12.336,0.62757,51.825,19.518,0.33627,0.46471,0.5957,0.7098
12.344,0.61975,51.63,19.635,0.33431,0.46471,0.59961,0.70588
12.352,0.6129,51.239,19.713,0.33333,0.47451,0.59961,0.69608
12.36,0.60606,51.043,19.713,0.33138,0.46471,0.60547,0.70588
12.368,0.59922,50.847,19.635,0.3304,0.47451,0.60547,0.7
12.376,0.59238,50.652,19.635,0.32942,0.47451,0.60547,0.69608
12.384,0.58651,50.456,19.596,0.32747,0.47451,0.60938,0.6902
12.392,0.57967,50.261,19.518,0.32551,0.47451,0.61523,0.69608
12.4,0.57283,49.87,19.439,0.32356,0.47451,0.625,0.6902
12.408,0.56598,49.674,19.439,0.32063,0.48431,0.625,0.68627
12.416,0.55914,49.283,19.439,0.31769,0.4902,0.63477,0.68039
12.424,0.55327,48.892,19.518,0.31476,0.5,0.64453,0.67647
12.432,0.54643,48.501,19.713,0.31281,0.50588,0.66016,0.66471
12.44,0.54154,48.305,19.83,0.3089,0.51569,0.67578,0.66078
12.448,0.53568,47.914,19.83,0.30596,0.52549,0.69531,0.6451
12.456,0.53079,48.11,19.635,0.30108,0.53922,0.70508,0.63529
12.464,0.52493,49.087,19.322,0.29717,0.5451,0.72461,0.62549
12.472,0.52004,52.216,19.009,0.29326,0.55098,0.73438,0.61569
12.48,0.51417,58.279,18.814,0.28837,0.5451,0.74414,0.6098
12.488,0.50831,66.688,18.696,0.28446,0.56078,0.74414,0.6098
12.496,0.50147,76.076,18.501,0.27957,0.56078,0.74414,0.6098
12.504,0.4956,84.289,18.462,0.27566,0.5451,0.72461,0.61961
12.512,0.48974,91.721,18.383,0.27175,0.53529,0.70508,0.62941
12.52,0.48387,97.979,18.344,0.26686,0.52549,0.67578,0.64118
12.528,0.47801,103.06,18.266,0.26491,0.5,0.64453,0.66471
12.536,0.47019,106.39,18.188,0.26197,0.4902,0.61914,0.67647
12.544,0.46237,107.76,18.031,0.26002,0.47059,0.59961,0.6902
12.552,0.45357,107.37,17.757,0.25709,0.46078,0.58008,0.69608
12.56,0.44575,105.8,17.405,0.25415,0.4451,0.57422,0.7098
12.568,0.435,103.46,16.936,0.2522,0.43922,0.56445,0.71569
12.576,0.42522,100.72,16.623,0.25024,0.42549,0.56055,0.7098
12.584,0.41349,97.588,16.506,0.24829,0.42549,0.57031,0.72157
12.592,0.40274,94.655,16.467,0.24731,0.42941,0.56445,0.72549
12.6,0.39198,91.917,16.467,0.24731,0.42549,0.56445,0.71569
12.608,0.38025,89.57,16.467,0.24633,0.42549,0.57031,0.71569
12.616,0.3695,87.419,16.506,0.24731,0.42941,0.57422,0.72157
12.624,0.35875,85.463,16.506,0.24829,0.42941,0.57031,0.71569
12.632,0.34702,83.898,16.584,0.25024,0.42941,0.57422,0.72157
12.64,0.33529,82.334,16.623,0.25122,0.43529,0.58008,0.71569
12.648,0.32258,80.965,16.701,0.25318,0.43922,0.58008,0.72157
12.656,0.31085,79.596,16.623,0.25415,0.44902,0.57031,0.71569
12.664,0.29912,78.422,16.584,0.25415,0.4451,0.57422,0.7098
12.672,0.28739,77.054,16.701,0.25318,0.44902,0.57422,0.7098
12.68,0.27566,75.88,16.936,0.2522,0.4451,0.58008,0.7098
12.688,0.26491,74.511,17.21,0.25122,0.44902,0.57422,0.7098
12.696,0.25415,72.947,17.405,0.25318,0.43922,0.58008,0.71569
12.704,0.24438,71.382,17.445,0.26002,0.44902,0.58398,0.7098
12.712,0.23363,69.818,17.445,0.27468,0.4451,0.58984,0.72157
12.72,0.22385,68.057,17.445,0.29912,0.44902,0.5957,0.7098
12.728,0.21505,66.493,17.523,0.32845,0.44902,0.5957,0.7098
12.736,0.20626,64.733,17.718,0.36266,0.4549,0.58984,0.7098
12.744,0.19844,63.364,17.836,0.40762,0.4549,0.59961,0.7098
12.752,0.19062,62.19,17.836,0.46041,0.46078,0.5957,0.70588
12.76,0.18377,61.213,17.836,0.51515,0.46471,0.5957,0.70588
12.768,0.17693,60.43,17.836,0.56794,0.47059,0.59961,0.7
12.776,0.17009,59.844,17.953,0.61584,0.47451,0.60547,0.69608
12.784,0.16422,59.452,18.07,0.65591,0.5,0.625,0.68039
12.792,0.16031,59.061,18.149,0.68719,0.5098,0.62891,0.67647
12.8,0.15543,59.061,18.07,0.70968,0.51569,0.63477,0.68039
12.808,0.15152,59.061,18.031,0.72434,0.52941,0.65039,0.66471
12.816,0.14761,59.061,17.875,0.73216,0.56471,0.67578,0.64118
12.824,0.14467,59.257,17.836,0.73314,0.57451,0.68555,0.63529
12.832,0.14272,59.648,17.757,0.72923,0.53922,0.66406,0.65098
12.84,0.13978,59.844,17.64,0.72239,0.52941,0.66016,0.6549
12.848,0.13783,60.235,17.562,0.71261,0.51961,0.6543,0.67059
12.856,0.13587,60.43,17.523,0.70088,0.51569,0.6543,0.67059
12.864,0.13392,60.626,17.405,0.68719,0.49412,0.64062,0.68039
12.872,0.13294,60.821,17.132,0.67351,0.48039,0.61914,0.69608
12.88,0.13099,60.821,16.936,0.65885,0.46078,0.60547,0.7098
12.888,0.12903,60.821,16.936,0.64516,0.46078,0.5957,0.7098
12.896,0.12805,60.626,17.132,0.6305,0.4549,0.5957,0.7098
12.904,0.1261,60.43,17.445,0.61584,0.4549,0.58984,0.70588
12.912,0.12414,60.039,17.562,0.60117,0.44902,0.5957,0.7098
12.92,0.12317,59.844,17.562,0.58553,0.4549,0.58984,0.7098
12.928,0.12219,59.452,17.445,0.57185,0.46078,0.58984,0.7098
12.936,0.12121,59.061,17.249,0.55816,0.46078,0.5957,0.70588
12.944,0.12121,58.67,17.014,0.5435,0.4549,0.60547,0.71569
12.952,0.12023,58.083,16.78,0.52688,0.46471,0.60938,0.70588
12.96,0.11926,57.692,16.584,0.51026,0.46078,0.64062,0.6902
12.968,0.11828,57.106,16.584,0.49267,0.49412,0.74023,0.62941
12.976,0.1173,56.715,16.936,0.47507,0.57451,0.90039,0.53529
12.984,0.1173,56.128,17.445,0.4565,0.66471,1.0801,0.42549
12.992,0.11632,55.737,17.836,0.43891,0.68039,1.1152,0.4
13,0.11632,55.346,18.07,0.42229,0.50588,0.79883,0.58431
13.008,0.1173,54.759,18.149,0.40567,0.47059,0.64453,0.68627
13.016,0.1173,54.368,18.149,0.39101,0.44902,0.57422,0.71569
13.024,0.1173,53.781,18.188,0.38025,0.43922,0.56445,0.7098
13.032,0.1173,53.585,18.383,0.37048,0.4451,0.58008,0.72157
13.04,0.1173,52.999,18.657,0.3607,0.44902,0.58008,0.72549
13.048,0.11828,52.608,18.814,0.35191,0.44902,0.58398,0.72549
13.056,0.11926,52.216,18.97,0.34506,0.46078,0.5957,0.72157
13.064,0.12121,51.825,18.814,0.3392,0.46078,0.5957,0.71569
13.072,0.12317,51.63,18.657,0.33529,0.46471,0.5957,0.70588
13.08,0.12414,51.239,18.501,0.33333,0.47059,0.59961,0.7098
13.088,0.1261,51.043,18.501,0.33138,0.47451,0.5957,0.70588
13.096,0.12805,50.652,18.774,0.3304,0.46471,0.5957,0.7098
13.104,0.13001,50.456,19.126,0.3304,0.47451,0.59961,0.70588
13.112,0.13196,50.261,19.4,0.3304,0.47451,0.60547,0.70588
13.12,0.13392,50.065,19.439,0.3304,0.47451,0.60547,0.70588
13.128,0.1349,49.87,19.439,0.3304,0.47451,0.60547,0.70588
13.136,0.13685,49.674,19.4,0.33138,0.48039,0.61523,0.6902
13.144,0.13881,49.479,19.322,0.3304,0.47451,0.61914,0.68627
13.152,0.14076,49.087,19.4,0.32942,0.49412,0.625,0.68039
13.16,0.14174,48.892,19.518,0.32845,0.49412,0.62891,0.68039
13.168,0.1437,48.696,19.713,0.32649,0.5,0.64062,0.67059
13.176,0.14565,48.305,19.752,0.32356,0.5098,0.65039,0.66471
13.184,0.14761,48.11,19.713,0.32063,0.51961,0.66406,0.6549
13.192,0.14858,47.914,19.439,0.31769,0.51961,0.67969,0.65098
13.2,0.15054,47.914,19.126,0.31378,0.53529,0.69922,0.63529
13.208,0.15249,48.696,18.97,0.30987,0.5451,0.70898,0.62549
13.216,0.15445,51.434,18.774,0.30596,0.55098,0.72461,0.61569
13.224,0.15738,57.106,18.501,0.30303,0.5549,0.73047,0.6098
13.232,0.15934,65.319,18.344,0.3001,0.5451,0.74414,0.61961
13.24,0.16129,74.316,18.188,0.29619,0.5549,0.74023,0.6098
13.248,0.16325,82.921,18.149,0.29228,0.5451,0.72461,0.62549
13.256,0.16422,90.352,18.07,0.28837,0.53529,0.69922,0.62941
13.264,0.1652,96.806,17.953,0.28446,0.5098,0.67578,0.65098
13.272,0.1652,102.28,17.875,0.27957,0.5,0.65039,0.66078
13.28,0.1652,106,17.757,0.27566,0.48431,0.61914,0.68039
13.288,0.16422,107.76,17.562,0.27175,0.47451,0.59961,0.68039
13.296,0.16325,107.95,17.249,0.26784,0.46471,0.58008,0.7
13.304,0.16227,106.58,16.897,0.26393,0.4549,0.57031,0.7
13.312,0.16129,104.24,16.584,0.261,0.4451,0.57031,0.7098
13.32,0.16031,101.5,16.31,0.25806,0.44902,0.56055,0.7098
13.328,0.15934,98.566,16.389,0.25709,0.43922,0.56445,0.71569
13.336,0.15738,95.632,16.584,0.25709,0.4451,0.56445,0.7098
13.344,0.15445,92.894,16.819,0.25611,0.43529,0.56445,0.71569
13.352,0.15054,90.157,16.936,0.25513,0.43922,0.57031,0.7098
13.36,0.14663,87.81,16.897,0.25513,0.43922,0.57031,0.71569
13.368,0.14174,85.854,16.701,0.25513,0.4451,0.56055,0.7098
13.376,0.13685,83.898,16.623,0.25611,0.43922,0.56055,0.71569
13.384,0.13099,82.334,16.623,0.25709,0.4451,0.57031,0.70588
13.392,0.12512,80.769,16.819,0.25709,0.44902,0.56445,0.71569
13.4,0.12023,79.4,16.936,0.25806,0.4451,0.56445,0.7098
13.408,0.11535,78.031,17.014,0.25806,0.44902,0.56445,0.70588
13.416,0.11144,76.858,17.014,0.25709,0.4451,0.57031,0.7098
13.424,0.1085,75.489,17.014,0.25611,0.44902,0.56445,0.70588
13.432,0.10459,74.316,17.014,0.25611,0.46078,0.57031,0.70588
13.44,0.10068,72.751,16.936,0.25709,0.46471,0.57031,0.70588
13.448,0.096774,71.382,16.936,0.26197,0.4549,0.57422,0.70588
13.456,0.092864,69.818,16.936,0.2737,0.46471,0.57422,0.70588
13.464,0.089932,68.057,17.014,0.29423,0.44902,0.58008,0.7098
13.472,0.086999,66.297,17.327,0.32551,0.44902,0.58008,0.70588
13.48,0.085044,64.733,17.64,0.36657,0.44902,0.58398,0.7098
13.488,0.083089,63.364,17.953,0.41642,0.4549,0.58984,0.70588
13.496,0.082111,62.19,18.031,0.47116,0.46078,0.59961,0.7098
13.504,0.080156,61.213,17.953,0.52688,0.46078,0.59961,0.70588
13.512,0.079179,60.235,18.031,0.57967,0.46078,0.59961,0.7098
13.52,0.079179,59.648,18.149,0.62757,0.47451,0.60938,0.7
13.528,0.078201,59.257,18.344,0.66373,0.4902,0.62891,0.68627
13.536,0.078201,58.866,18.383,0.69013,0.5098,0.62891,0.68039
13.544,0.079179,58.67,18.344,0.71163,0.5098,0.63477,0.68039
13.552,0.080156,58.866,18.149,0.72825,0.51961,0.65039,0.66078
13.56,0.081134,58.866,17.953,0.73705,0.55098,0.67969,0.6549
13.568,0.082111,59.257,17.757,0.73998,0.56471,0.68555,0.6451
13.576,0.083089,59.452,17.64,0.73803,0.52549,0.66406,0.66078
13.584,0.085044,59.844,17.718,0.73118,0.51961,0.66406,0.6549
13.592,0.086999,60.039,17.836,0.72141,0.5098,0.66016,0.66471
13.6,0.087977,60.43,17.875,0.70968,0.50588,0.6543,0.67647
13.608,0.089932,60.626,17.953,0.69697,0.4902,0.63477,0.68627
13.616,0.091887,60.821,17.875,0.68328,0.47451,0.61914,0.69608
13.624,0.094819,60.821,17.718,0.6696,0.44902,0.60547,0.7098
13.632,0.096774,60.821,17.405,0.65591,0.4451,0.59961,0.71569
13.64,0.099707,60.626,16.897,0.64223,0.42941,0.5957,0.72549
13.648,0.10264,60.43,16.31,0.62854,0.43529,0.59961,0.72157
13.656,0.10557,60.235,15.997,0.61388,0.43922,0.59961,0.72157
13.664,0.1085,59.844,16.271,0.59922,0.43529,0.5957,0.72549
13.672,0.11046,59.452,17.014,0.57967,0.43922,0.5957,0.72157
13.68,0.11339,59.061,17.836,0.56207,0.42941,0.5957,0.72157
13.688,0.11535,58.475,18.07,0.54839,0.44902,0.5957,0.71569
13.696,0.11828,58.083,17.718,0.53275,0.4549,0.60547,0.72157
13.704,0.12023,57.692,16.897,0.51613,0.44902,0.64062,0.6902
13.712,0.12317,57.106,16.271,0.49853,0.48039,0.74414,0.63529
13.72,0.12512,56.715,16.389,0.47996,0.56471,0.9043,0.52941
13.728,0.12708,56.128,17.093,0.46432,0.6549,1.084,0.42941
13.736,0.12903,55.541,17.875,0.44868,0.66471,1.0996,0.4098
13.744,0.13196,55.15,18.266,0.43304,0.49412,0.78516,0.6
13.752,0.13392,54.759,17.953,0.41642,0.46471,0.63477,0.69608
13.76,0.13685,54.172,17.405,0.40176,0.43922,0.57422,0.71569
13.768,0.13978,53.781,17.014,0.38807,0.4451,0.57031,0.7098
13.776,0.14174,53.39,17.405,0.37634,0.4451,0.58398,0.72157
13.784,0.14467,52.999,18.462,0.36559,0.44902,0.58398,0.72549
13.792,0.14663,52.412,19.439,0.35679,0.44902,0.58008,0.72549
13.8,0.14956,52.216,19.83,0.34995,0.44902,0.58984,0.72157
13.808,0.15152,51.825,19.439,0.34506,0.44902,0.5957,0.72549
13.816,0.15445,51.434,18.814,0.34115,0.4549,0.59961,0.71569
13.824,0.15738,51.043,18.462,0.3392,0.46078,0.60547,0.71569
13.832,0.15934,50.847,18.657,0.33822,0.4549,0.60547,0.7098
13.84,0.16227,50.652,19.087,0.33822,0.46078,0.59961,0.7098
13.848,0.16618,50.456,19.322,0.33822,0.47059,0.60547,0.70588
13.856,0.17009,50.261,19.087,0.3392,0.47059,0.60547,0.70588
13.864,0.174,50.065,18.657,0.3392,0.47059,0.60938,0.70588
13.872,0.17791,49.87,18.383,0.3392,0.47451,0.61523,0.70588
13.88,0.18084,49.479,18.657,0.3392,0.47451,0.61914,0.69608
13.888,0.18377,49.283,19.283,0.33822,0.47451,0.625,0.6902
13.896,0.18671,49.087,19.83,0.33724,0.48039,0.62891,0.68627
13.904,0.18964,48.696,19.948,0.33529,0.48431,0.62891,0.68039
13.912,0.19257,48.501,19.596,0.33333,0.48039,0.64453,0.68039
13.92,0.19648,48.11,18.97,0.3304,0.5,0.6543,0.67059
13.928,0.19941,47.718,18.579,0.32845,0.5098,0.67578,0.66471
13.936,0.20332,47.718,18.579,0.32551,0.51961,0.67969,0.65098
13.944,0.20723,47.718,18.97,0.32258,0.52549,0.69922,0.6451
13.952,0.21017,48.892,19.087,0.31965,0.53922,0.71484,0.62549
13.96,0.2131,51.825,18.814,0.31574,0.5451,0.72461,0.62549
13.968,0.21701,57.888,18.188,0.31085,0.5549,0.74023,0.61961
13.976,0.21896,66.297,17.64,0.30694,0.5451,0.73438,0.61961
13.984,0.2219,75.489,17.523,0.30205,0.5451,0.74414,0.61569
13.992,0.22385,83.898,18.031,0.29717,0.53529,0.72461,0.62941
14,0.22581,91.134,18.657,0.29228,0.52549,0.69922,0.62941
14.008,0.22678,97.588,18.97,0.28739,0.50588,0.67578,0.6549
14.016,0.22776,102.67,18.696,0.2825,0.4902,0.65039,0.66471
14.024,0.22776,106.19,18.031,0.27859,0.47451,0.625,0.68039
14.032,0.22874,107.76,17.249,0.27566,0.47059,0.60547,0.69608
14.04,0.22874,107.56,16.819,0.27273,0.44902,0.58398,0.70588
14.048,0.22874,106.19,16.936,0.26882,0.4451,0.57422,0.7098
14.056,0.22776,103.85,17.249,0.26588,0.43922,0.56445,0.71569
14.064,0.22678,101.11,17.405,0.26295,0.4451,0.56445,0.72157
14.072,0.22385,98.37,17.014,0.26002,0.4451,0.56055,0.71569
14.08,0.2219,95.437,16.467,0.25806,0.43922,0.56445,0.71569
14.088,0.21799,92.894,16.076,0.25709,0.43922,0.56055,0.71569
14.096,0.21408,90.352,16.154,0.25513,0.43529,0.56445,0.72157
14.104,0.21017,88.005,16.506,0.25513,0.4451,0.57031,0.71569
14.112,0.20723,85.854,16.78,0.25415,0.43922,0.57422,0.72157
14.12,0.2043,84.094,16.623,0.25513,0.44902,0.57422,0.7098
14.128,0.20137,82.334,16.271,0.25709,0.4451,0.57422,0.72157
14.136,0.19746,80.769,15.997,0.25806,0.44902,0.57422,0.70588
14.144,0.19453,79.4,16.193,0.25806,0.4451,0.58008,0.71569
14.152,0.19159,78.227,16.701,0.25806,0.44902,0.58008,0.7098
14.16,0.18866,76.858,17.249,0.25709,0.4451,0.58008,0.71569
14.168,0.18671,75.685,17.445,0.25611,0.44902,0.58008,0.7098
14.176,0.18475,74.511,17.21,0.25513,0.44902,0.58398,0.71569
14.184,0.1828,73.142,16.936,0.25611,0.44902,0.5957,0.7098
14.192,0.18182,71.578,17.014,0.26197,0.44902,0.59961,0.71569
14.2,0.18084,69.818,17.445,0.27566,0.44902,0.59961,0.70588
14.208,0.17986,68.253,18.031,0.29814,0.4549,0.59961,0.70588
14.216,0.17986,66.493,18.383,0.33138,0.4549,0.59961,0.70588
14.224,0.17986,64.928,18.462,0.36657,0.4549,0.60547,0.70588
14.232,0.18182,63.559,18.383,0.40567,0.46078,0.60938,0.70588
14.24,0.18377,62.386,18.344,0.45455,0.47059,0.61523,0.70588
14.248,0.18671,61.408,18.344,0.50831,0.46078,0.61914,0.70588
14.256,0.18964,60.821,18.344,0.56109,0.47451,0.61523,0.70588
14.264,0.19355,60.235,18.383,0.60899,0.4902,0.62891,0.6902
14.272,0.19648,60.039,18.657,0.65103,0.50588,0.64453,0.68039
14.28,0.20137,59.844,18.97,0.68426,0.5098,0.66016,0.68039
14.288,0.20528,59.844,19.205,0.70968,0.51569,0.66016,0.68039
14.296,0.21114,60.039,19.283,0.7263,0.53529,0.67578,0.66471
14.304,0.21701,60.43,19.087,0.73509,0.56471,0.69531,0.6451
14.312,0.22483,60.626,18.774,0.73705,0.57059,0.69922,0.65098
14.32,0.23167,61.017,18.462,0.73412,0.52941,0.68555,0.6549
14.328,0.24145,61.408,18.383,0.72825,0.52941,0.68555,0.6549
14.336,0.25122,61.799,18.579,0.71848,0.51961,0.67578,0.66078
14.344,0.26197,62.19,18.814,0.70772,0.5098,0.67578,0.67647
14.352,0.2737,62.582,18.774,0.69404,0.49412,0.6543,0.68039
14.36,0.28446,62.777,18.383,0.68035,0.47059,0.63477,0.7
14.368,0.29521,62.777,18.031,0.66667,0.46078,0.625,0.70588
14.376,0.30596,62.582,17.953,0.652,0.44902,0.61914,0.72157
14.384,0.31672,62.386,18.188,0.63734,0.4549,0.60938,0.7098
14.392,0.32942,62.19,18.383,0.62366,0.44902,0.60938,0.71569
14.4,0.34115,61.799,18.344,0.60899,0.4549,0.60938,0.7098
14.408,0.35484,61.408,18.149,0.59433,0.4451,0.60547,0.71569
14.416,0.36755,60.821,18.149,0.57967,0.44902,0.61523,0.70588
14.424,0.38025,60.235,18.344,0.56598,0.43922,0.61523,0.71569
14.432,0.39296,59.844,18.462,0.5523,0.44902,0.625,0.70588
14.44,0.40469,59.257,18.462,0.53666,0.46078,0.62891,0.70588
14.448,0.41642,58.67,18.266,0.52102,0.4549,0.67578,0.68627
14.456,0.43011,58.083,18.149,0.50342,0.4902,0.78906,0.62549
14.464,0.44379,57.497,18.188,0.48583,0.58431,0.98438,0.51961
14.472,0.45846,57.106,18.501,0.46823,0.68627,1.1738,0.41569
14.48,0.47312,56.519,18.814,0.45064,0.61961,1.1797,0.4098
14.488,0.48974,56.128,18.97,0.43304,0.5098,0.81055,0.6
14.496,0.50538,55.541,18.97,0.4174,0.46471,0.64453,0.68039
14.504,0.52199,55.15,19.009,0.40274,0.44902,0.58008,0.70588
14.512,0.53763,54.759,19.205,0.39003,0.44902,0.58398,0.7098
14.52,0.55327,54.368,19.635,0.38025,0.46078,0.58984,0.70588
14.528,0.56891,53.977,19.948,0.37341,0.44902,0.5957,0.71569
14.536,0.58358,53.585,20.222,0.36657,0.46471,0.5957,0.70588
14.544,0.59824,53.39,20.456,0.3607,0.4549,0.58984,0.7098
14.552,0.61486,53.194,20.847,0.35679,0.46471,0.59961,0.70588
14.56,0.63148,52.999,21.199,0.35386,0.46078,0.60547,0.70588
14.568,0.65005,52.608,21.395,0.35288,0.46471,0.60547,0.70588
14.576,0.66764,52.412,21.434,0.35288,0.46471,0.60938,0.70588
14.584,0.68524,52.216,21.395,0.35288,0.47451,0.61523,0.69608
14.592,0.70283,52.216,21.434,0.35386,0.47451,0.60938,0.69608
14.6,0.71945,52.021,21.63,0.35484,0.48039,0.61914,0.68627
14.608,0.73607,51.825,21.825,0.35582,0.47451,0.625,0.68627
14.616,0.75464,51.63,21.825,0.35679,0.48039,0.62891,0.68039
14.624,0.77224,51.434,21.63,0.35777,0.48431,0.62891,0.68039
14.632,0.79179,51.239,21.591,0.35875,0.49412,0.64062,0.67647
14.64,0.81134,51.043,21.63,0.35777,0.5,0.65039,0.67647
14.648,0.83187,50.652,21.747,0.35679,0.5,0.6543,0.67059
14.656,0.85337,50.456,21.825,0.35582,0.5098,0.6543,0.66471
14.664,0.87488,50.261,21.708,0.35288,0.51961,0.67578,0.6549
14.672,0.89638,49.87,21.63,0.35093,0.52549,0.68945,0.65098
14.68,0.91593,49.87,21.591,0.348,0.52941,0.70898,0.64118
14.688,0.93548,50.261,21.512,0.34409,0.5451,0.73047,0.62941
14.696,0.95308,51.825,21.434,0.3392,0.55098,0.75,0.62941
14.704,0.97067,56.323,21.434,0.33529,0.5549,0.75977,0.62549
14.712,0.98534,63.559,21.434,0.33138,0.55098,0.77539,0.61569
14.72,1,72.751,21.512,0.32845,0.56471,0.76953,0.6098
14.728,1,81.552,21.512,0.32551,0.56471,0.76953,0.6098
14.736,1,89.374,21.317,0.32258,0.55098,0.75,0.61961
14.744,1,96.219,21.004,0.31867,0.53529,0.72461,0.62941
14.752,1,102.09,20.574,0.31476,0.51569,0.69922,0.65098
14.76,1,106.39,20.261,0.31085,0.5,0.66992,0.67059
14.768,1,108.93,20.222,0.30694,0.4902,0.64453,0.68039
14.776,1,109.52,20.339,0.30303,0.47059,0.61914,0.69608
14.784,1,108.74,20.456,0.29912,0.46471,0.59961,0.7
14.792,1,106.78,20.456,0.29619,0.4549,0.58398,0.69608
14.8,1,104.24,20.222,0.29423,0.46471,0.58008,0.69608
14.808,1,101.5,19.752,0.29228,0.44902,0.58008,0.70588
14.816,1,98.761,19.439,0.29032,0.4451,0.58008,0.70588
14.824,1,96.024,19.283,0.29032,0.44902,0.57422,0.70588
14.832,1,93.481,19.283,0.29032,0.44902,0.58008,0.7098
14.84,1,91.134,19.205,0.2913,0.44902,0.57422,0.70588
14.848,1,88.983,19.126,0.29228,0.4451,0.58008,0.71569
14.856,1,87.027,18.892,0.29326,0.44902,0.57422,0.70588
14.864,1,85.267,18.696,0.29521,0.4451,0.57422,0.70588
14.872,1,83.703,18.579,0.29717,0.44902,0.57031,0.70588
14.88,1,82.138,18.579,0.29814,0.4451,0.58008,0.7098
14.888,1,80.574,18.579,0.29912,0.44902,0.57422,0.70588
14.896,1,79.205,18.383,0.29814,0.44902,0.57031,0.7098
14.904,1,78.031,18.188,0.29717,0.4549,0.57422,0.70588
14.912,1,76.662,17.953,0.29521,0.44902,0.58008,0.70588
14.92,1,75.098,17.757,0.29521,0.46078,0.57422,0.70588
14.928,1,73.729,17.718,0.29717,0.44902,0.58008,0.70588
14.936,1,72.164,17.718,0.30303,0.44902,0.58008,0.7
14.944,1,70.6,17.718,0.31672,0.4549,0.58398,0.70588
14.952,1,69.035,17.64,0.3392,0.46078,0.58984,0.7
14.96,1,67.275,17.562,0.37243,0.4549,0.58984,0.70588
14.968,1,65.906,17.64,0.41447,0.4549,0.58984,0.7
14.976,1,64.537,17.836,0.46334,0.44902,0.5957,0.70588
14.984,1,63.364,18.07,0.51613,0.44902,0.5957,0.70588
14.992,1,62.582,18.188,0.56891,0.44902,0.5957,0.70588
15,1,61.995,18.266,0.61779,0.4549,0.5957,0.7
15.008,1,61.408,18.149,0.6608,0.47451,0.59961,0.6902
15.016,1,61.213,18.07,0.69501,0.4902,0.61914,0.68039
15.024,1,61.213,18.07,0.71848,0.49412,0.62891,0.68039
15.032,1,61.213,18.149,0.73314,0.4902,0.62891,0.67647
15.04,1,61.213,18.188,0.74389,0.5098,0.64453,0.67059
15.048,1,61.408,18.266,0.74878,0.55098,0.67578,0.65098
15.056,1,61.604,18.188,0.74878,0.56078,0.67969,0.6451
15.064,1,61.995,18.188,0.74487,0.51961,0.66016,0.6549
15.072,1,62.19,18.07,0.73607,0.51961,0.6543,0.6549
15.08,1,62.386,17.953,0.7263,0.5098,0.66016,0.66078
15.088,1,62.582,17.875,0.71359,0.5,0.64453,0.67647
15.096,1,62.582,17.953,0.6999,0.48431,0.62891,0.68039
15.104,1,62.582,18.07,0.68524,0.46471,0.60938,0.7
15.112,1,62.386,18.149,0.67058,0.4451,0.59961,0.71569
15.12,1,62.19,18.031,0.65689,0.43922,0.58398,0.7098
15.128,1,61.799,17.875,0.64321,0.43529,0.58398,0.72157
15.136,1,61.408,17.836,0.62854,0.43529,0.58008,0.72157
15.144,0.99902,61.017,17.875,0.61388,0.42549,0.58984,0.72549
15.152,0.99707,60.43,17.953,0.59824,0.43529,0.58984,0.71569
15.16,0.9824,59.844,18.031,0.58358,0.42549,0.58398,0.72157
15.168,0.96872,59.452,18.031,0.56794,0.42941,0.58398,0.72157
15.176,0.95406,58.866,17.875,0.55132,0.43529,0.5957,0.72157
15.184,0.94037,58.279,17.718,0.5347,0.4451,0.60938,0.7098
15.192,0.92669,57.888,17.64,0.51711,0.43922,0.6543,0.7
15.2,0.913,57.301,17.718,0.49951,0.48039,0.75977,0.62941
15.208,0.90029,56.715,17.875,0.48094,0.56471,0.94531,0.52941
15.216,0.88661,56.323,18.188,0.46334,0.65098,1.1152,0.42941
15.224,0.8739,55.737,18.501,0.4477,0.58431,1.0039,0.42549
15.232,0.86119,55.346,18.579,0.43402,0.48039,0.75977,0.62549
15.24,0.85044,54.954,18.579,0.42033,0.4451,0.61523,0.70588
15.248,0.83871,54.368,18.501,0.40665,0.42941,0.56055,0.72549
15.256,0.82796,53.977,18.579,0.39394,0.43529,0.56445,0.72157
15.264,0.8172,53.585,18.774,0.38221,0.43922,0.57422,0.72549
15.272,0.80645,53.194,18.97,0.37243,0.44902,0.58008,0.72549
15.28,0.79668,52.999,19.126,0.36364,0.43922,0.58008,0.72549
15.288,0.78788,52.608,19.205,0.35679,0.44902,0.58008,0.72157
15.296,0.7781,52.412,19.283,0.35093,0.4549,0.58008,0.72549
15.304,0.77028,52.216,19.205,0.34604,0.46078,0.58008,0.71569
15.312,0.76149,51.825,19.205,0.34311,0.46078,0.58008,0.71569
15.32,0.75464,51.63,19.126,0.34115,0.46471,0.58398,0.7098
15.328,0.74682,51.434,19.009,0.3392,0.46078,0.5957,0.71569
15.336,0.74096,51.239,18.97,0.33822,0.46078,0.5957,0.70588
15.344,0.73412,51.043,18.814,0.33627,0.4549,0.59961,0.70588
15.352,0.72825,50.847,18.696,0.33431,0.46078,0.5957,0.70588
15.36,0.72336,50.652,18.657,0.33333,0.4549,0.59961,0.7098
15.368,0.7175,50.456,18.501,0.33138,0.47059,0.60547,0.70588
15.376,0.71261,50.261,18.383,0.32942,0.46471,0.60938,0.70588
15.384,0.70772,49.87,18.266,0.32649,0.47451,0.61914,0.69608
15.392,0.70186,49.479,18.149,0.32356,0.48039,0.625,0.69608
15.4,0.69697,49.087,18.031,0.32063,0.4902,0.63477,0.68039
15.408,0.69208,48.892,17.836,0.31769,0.5,0.65039,0.68039
15.416,0.68719,48.501,17.64,0.31378,0.5098,0.6543,0.66078
15.424,0.68231,48.305,17.445,0.31085,0.51569,0.66992,0.6549
15.432,0.67742,48.501,17.249,0.30792,0.51961,0.68945,0.65098
15.44,0.67253,49.87,17.132,0.30499,0.53529,0.70508,0.62941
15.448,0.66764,53.585,17.014,0.30108,0.5451,0.72461,0.62549
15.456,0.66276,60.235,16.897,0.29717,0.5451,0.72461,0.62549
15.464,0.65787,69.035,16.78,0.29326,0.5451,0.73438,0.61569
15.472,0.65298,78.227,16.506,0.28837,0.55098,0.72461,0.61961
15.48,0.64907,86.441,16.271,0.28446,0.53529,0.70898,0.62941
15.488,0.64418,93.481,16.076,0.27957,0.51961,0.68555,0.6451
15.496,0.6393,99.544,15.88,0.27566,0.5,0.66016,0.6549
15.504,0.63539,104.43,15.645,0.27175,0.4902,0.62891,0.67647
15.512,0.62952,107.37,15.45,0.26784,0.47059,0.60547,0.6902
15.52,0.62366,108.54,15.215,0.26491,0.46078,0.58398,0.69608
15.528,0.61681,107.95,15.059,0.26295,0.44902,0.57422,0.7098
15.536,0.60997,106.19,15.137,0.261,0.4451,0.56055,0.70588
15.544,0.60411,103.85,15.332,0.25904,0.43529,0.56055,0.72157
15.552,0.59726,101.11,15.528,0.25709,0.43922,0.55078,0.71569
15.56,0.59042,98.175,15.528,0.25513,0.42941,0.54492,0.72157
15.568,0.58358,95.632,15.45,0.25318,0.43529,0.55078,0.71569
15.576,0.57478,93.09,15.254,0.2522,0.42941,0.55078,0.72157
15.584,0.56598,90.548,15.137,0.25122,0.43529,0.55078,0.71569
15.592,0.55523,88.396,15.059,0.25122,0.43922,0.55469,0.72157
15.6,0.5435,86.441,15.137,0.25122,0.4451,0.55078,0.71569
15.608,0.53275,84.485,15.215,0.2522,0.43922,0.55469,0.72157
15.616,0.52102,82.921,15.215,0.2522,0.4451,0.56055,0.7098
15.624,0.50929,81.356,15.254,0.25318,0.43922,0.56055,0.71569
15.632,0.49756,79.987,15.332,0.25513,0.4451,0.56055,0.7098
15.64,0.4868,78.618,15.332,0.25513,0.44902,0.56055,0.71569
15.648,0.47605,77.249,15.372,0.25513,0.43922,0.56445,0.7098
15.656,0.4653,76.076,15.45,0.25415,0.44902,0.56445,0.71569
15.664,0.45552,74.707,15.567,0.25318,0.43922,0.57031,0.72157
15.672,0.44477,73.338,15.841,0.25415,0.4451,0.57031,0.71569
15.68,0.435,71.773,16.076,0.26002,0.44902,0.58008,0.70588
15.688,0.42522,70.209,16.31,0.2737,0.4549,0.58008,0.70588
15.696,0.41447,68.449,16.506,0.29619,0.4549,0.58398,0.7098
15.704,0.40567,66.688,16.584,0.32942,0.46078,0.58398,0.70588
15.712,0.39687,65.124,16.584,0.37243,0.44902,0.58984,0.7098
15.72,0.38807,63.755,16.623,0.42913,0.46078,0.58984,0.70588
15.728,0.38025,62.582,16.819,0.47996,0.4549,0.5957,0.71569
15.736,0.37243,61.604,17.21,0.51906,0.4549,0.59961,0.70588
15.744,0.36461,60.821,17.523,0.56403,0.4549,0.60547,0.7098
15.752,0.35679,60.235,17.718,0.60802,0.47451,0.60547,0.6902
15.76,0.34897,59.844,17.718,0.64712,0.49412,0.62891,0.68627
15.768,0.34213,59.844,17.562,0.6784,0.5,0.63477,0.68039
15.776,0.33627,59.648,17.523,0.70186,0.49412,0.64062,0.68627
15.784,0.3304,59.844,17.523,0.7175,0.52549,0.6543,0.66078
15.792,0.32454,59.844,17.64,0.72532,0.5549,0.68555,0.6549
15.8,0.32063,60.235,17.718,0.72727,0.5451,0.68945,0.65098
15.808,0.31574,60.626,17.64,0.72434,0.51961,0.67578,0.66078
15.816,0.31183,60.821,17.562,0.7175,0.52549,0.66992,0.66078
15.824,0.3089,61.213,17.405,0.7087,0.5098,0.6543,0.67059
15.832,0.30596,61.408,17.132,0.69795,0.5,0.66016,0.67647
15.84,0.30205,61.799,16.897,0.68622,0.48039,0.62891,0.6902
15.848,0.29912,61.799,16.467,0.67253,0.46078,0.61523,0.70588
15.856,0.29619,61.799,15.997,0.65885,0.44902,0.60547,0.71569
15.864,0.29326,61.799,15.528,0.64516,0.4451,0.59961,0.72157
15.872,0.29032,61.604,15.059,0.6305,0.43922,0.5957,0.71569
15.88,0.28739,61.408,14.628,0.61486,0.43529,0.59961,0.72157
15.888,0.28543,61.017,14.315,0.59922,0.4451,0.5957,0.71569
15.896,0.2825,60.626,14.081,0.58456,0.43529,0.5957,0.72549
15.904,0.28055,60.039,13.885,0.56891,0.4451,0.5957,0.72157
15.912,0.27957,59.648,13.69,0.55327,0.43529,0.59961,0.72549
15.92,0.27761,59.061,13.651,0.53861,0.44902,0.60547,0.71569
15.928,0.27566,58.67,13.494,0.52493,0.4549,0.625,0.7098
15.936,0.2737,58.083,13.494,0.50929,0.44902,0.66406,0.68039
15.944,0.27175,57.497,13.494,0.49169,0.5,0.79492,0.6098
15.952,0.26979,57.106,13.572,0.4741,0.5902,0.96875,0.5
15.96,0.26784,56.519,13.69,0.45552,0.66078,1.1191,0.41569
15.968,0.26686,55.932,13.807,0.43793,0.56078,0.94531,0.49412
15.976,0.26588,55.541,13.963,0.42131,0.48039,0.74023,0.64118
15.984,0.26491,54.954,14.12,0.40469,0.44902,0.60938,0.70588
15.992,0.26393,54.563,14.315,0.39003,0.43922,0.57031,0.72549
16,0.26393,53.977,14.511,0.37634,0.4451,0.57422,0.71569
16.008,0.26393,53.585,14.628,0.36461,0.44902,0.58398,0.72549
16.016,0.26393,53.194,14.824,0.35582,0.4451,0.58984,0.72157
16.024,0.26393,52.803,14.941,0.34897,0.44902,0.58984,0.72549
16.032,0.26491,52.412,15.059,0.34311,0.4549,0.58984,0.72157
16.04,0.26491,52.216,15.215,0.33822,0.46078,0.5957,0.72157
16.048,0.26491,51.825,15.254,0.33431,0.4549,0.59961,0.72157
16.056,0.26588,51.434,15.332,0.33138,0.44902,0.59961,0.72549
16.064,0.26588,51.239,15.372,0.3304,0.44902,0.59961,0.71569
16.072,0.26686,50.847,15.45,0.32942,0.4549,0.59961,0.7098
16.08,0.26882,50.652,15.528,0.32942,0.4549,0.60547,0.71569
16.088,0.26979,50.456,15.567,0.32942,0.46471,0.60547,0.70588
16.096,0.27077,50.261,15.567,0.32942,0.46471,0.60547,0.70588
16.104,0.27273,50.065,15.567,0.32942,0.47451,0.60938,0.70588
16.112,0.27468,49.87,15.567,0.32942,0.46471,0.61914,0.70588
16.12,0.27566,49.674,15.645,0.32942,0.47451,0.61523,0.70588
16.128,0.27761,49.283,15.684,0.32845,0.47451,0.625,0.69608
16.136,0.27957,49.087,15.684,0.32747,0.48039,0.62891,0.68627
16.144,0.28152,48.696,15.684,0.32551,0.48039,0.64453,0.68039
16.152,0.2825,48.501,15.645,0.32356,0.49412,0.6543,0.67647
16.16,0.28446,48.11,15.567,0.32063,0.5,0.66406,0.67059
16.168,0.28543,47.914,15.45,0.31769,0.51961,0.67578,0.6549
16.176,0.28641,48.305,15.372,0.31476,0.52549,0.69922,0.64118
16.184,0.28739,50.065,15.254,0.31085,0.53922,0.70898,0.62549
16.192,0.28935,54.172,15.215,0.30694,0.5451,0.72461,0.61961
16.2,0.29032,61.408,15.059,0.30303,0.5451,0.73438,0.61569
16.208,0.29228,70.6,14.941,0.29814,0.53922,0.74023,0.61961
16.216,0.29228,79.596,14.824,0.29521,0.53922,0.73047,0.61961
16.224,0.29326,87.419,14.628,0.2913,0.51961,0.71484,0.62941
16.232,0.29326,94.459,14.394,0.28739,0.51569,0.68555,0.6451
16.24,0.29326,100.33,14.198,0.28348,0.49412,0.6543,0.66078
16.248,0.2913,105.02,14.003,0.27957,0.48431,0.63477,0.67647
16.256,0.29032,107.56,13.885,0.27468,0.46471,0.60547,0.69608
16.264,0.28837,108.34,13.69,0.27077,0.4549,0.58984,0.70588
16.272,0.28641,107.56,13.494,0.26784,0.4451,0.58008,0.7098
16.28,0.28446,105.41,13.377,0.26393,0.43922,0.57031,0.72157
16.288,0.28152,102.87,13.259,0.261,0.42941,0.56055,0.71569
16.296,0.27957,99.935,13.064,0.25806,0.43922,0.56055,0.72157
16.304,0.27664,97.197,12.947,0.25611,0.4451,0.56055,0.7098
16.312,0.27175,94.459,12.907,0.25415,0.42941,0.56055,0.72157
16.32,0.26784,91.917,12.751,0.25318,0.43529,0.56445,0.72157
16.328,0.261,89.765,12.712,0.2522,0.42941,0.57031,0.72549
16.336,0.25513,87.81,12.634,0.2522,0.4451,0.57031,0.71569
16.344,0.24927,86.05,12.595,0.2522,0.42941,0.57031,0.72549
16.352,0.2434,84.289,12.516,0.2522,0.4451,0.57031,0.71569
16.36,0.23754,82.725,12.516,0.2522,0.44902,0.57422,0.72157
16.368,0.23167,81.16,12.516,0.25318,0.44902,0.56445,0.7098
16.376,0.22581,79.791,12.595,0.25318,0.4451,0.56445,0.72157
16.384,0.21994,78.422,12.634,0.25318,0.44902,0.57422,0.71569
16.392,0.2131,77.054,12.751,0.2522,0.44902,0.57422,0.72157
16.4,0.20626,75.88,12.907,0.25122,0.4549,0.57031,0.7098
16.408,0.20039,74.316,13.064,0.25122,0.44902,0.57031,0.71569
16.416,0.19453,72.751,13.259,0.25318,0.44902,0.57422,0.7098
16.424,0.18964,71.186,13.455,0.25904,0.44902,0.57422,0.71569
16.432,0.18475,69.426,13.572,0.27175,0.44902,0.57422,0.7098
16.44,0.17986,67.666,13.69,0.29326,0.4549,0.57422,0.7098
16.448,0.17595,66.102,13.807,0.32454,0.46078,0.58398,0.7098
16.456,0.17302,64.537,13.963,0.36657,0.4549,0.58398,0.71569
16.464,0.16911,63.168,14.081,0.41544,0.46078,0.58984,0.71569
16.472,0.16618,62.19,14.12,0.47019,0.46078,0.58984,0.7098
16.48,0.16325,61.408,14.276,0.52493,0.46471,0.5957,0.70588
16.488,0.16129,60.626,14.315,0.57674,0.47451,0.60547,0.70588
16.496,0.15934,60.039,14.394,0.62268,0.4902,0.61523,0.6902
16.504,0.15738,59.844,14.394,0.6608,0.50588,0.62891,0.68039
16.512,0.1564,59.648,14.394,0.6911,0.50588,0.63477,0.68039
