Time [s], RESP, PLETH, I, MCL, II
0,-0.2445,0.26882,0.51569,0.5902,0.66992
0.008,-0.24694,0.26197,0.5098,0.61569,0.69531
0.016,-0.24939,0.25806,0.51569,0.63529,0.70898
0.024,-0.25183,0.25611,0.5098,0.61569,0.69922
0.032,-0.25428,0.25611,0.51569,0.59608,0.73047
0.04,-0.25672,0.25904,0.5098,0.53922,0.75
0.048,-0.25917,0.26882,0.50588,0.48431,0.74414
0.056,-0.26406,0.28446,0.5,0.48039,0.75391
0.064,-0.2665,0.30694,0.5,0.47059,0.76562
0.072,-0.27384,0.33529,0.49412,0.46078,0.74414
0.08,-0.27873,0.36852,0.47451,0.48039,0.69922
0.088,-0.28362,0.40469,0.4549,0.4902,0.64453
0.096,-0.28851,0.44184,0.4451,0.5098,0.57422
0.104,-0.29584,0.47801,0.42941,0.5098,0.52539
0.112,-0.30318,0.51124,0.42549,0.5,0.51953
0.12,-0.30807,0.53861,0.42549,0.49412,0.50977
0.128,-0.31296,0.56207,0.41961,0.4902,0.49414
0.136,-0.32029,0.58456,0.41961,0.48431,0.48047
0.144,-0.32518,0.60508,0.41961,0.48039,0.47461
0.152,-0.33007,0.62463,0.41569,0.47451,0.47461
0.16,-0.33496,0.64125,0.41569,0.47059,0.4707
0.168,-0.3423,0.65494,0.41569,0.46471,0.4707
0.176,-0.34719,0.66764,0.4,0.51961,0.49414
0.184,-0.35452,0.67742,0.39412,0.62549,0.51562
0.192,-0.35941,0.68622,0.47451,0.67647,0.62891
0.2,-0.36675,0.69208,0.68627,0.73529,0.69922
0.208,-0.37408,0.69501,0.93137,0.86078,0.54492
0.216,-0.38142,0.69599,1.0059,0.86667,-0.025391
0.224,-0.38875,0.69404,0.57059,0.73137,-0.45312
0.232,-0.39609,0.69013,0.12941,0.73137,-0.47461
0.24,-0.40342,0.68328,-0.015686,0.59608,-0.33008
0.248,-0.41076,0.67449,0.013725,0.33922,-0.23438
0.256,-0.42054,0.66276,0.1098,0.2,0.019531
0.264,-0.42787,0.65005,0.23922,0.17843,0.33008
0.272,-0.43765,0.63539,0.3451,0.31373,0.53516
0.28,-0.44499,0.62072,0.3902,0.38431,0.58984
0.288,-0.45477,0.60704,0.41961,0.4,0.625
0.296,-0.4621,0.59238,0.42941,0.4098,0.63477
0.304,-0.47188,0.57869,0.43529,0.41569,0.65039
0.312,-0.47922,0.565,0.43529,0.41961,0.66016
0.32,-0.48655,0.55327,0.43922,0.42941,0.66406
0.328,-0.49389,0.5435,0.43529,0.43529,0.66992
0.336,-0.50122,0.5347,0.4451,0.43922,0.68555
0.344,-0.50611,0.52493,0.43922,0.43922,0.68945
0.352,-0.51345,0.51515,0.44902,0.4451,0.69922
0.36,-0.51834,0.50635,0.44902,0.43922,0.71484
0.368,-0.52078,0.49658,0.4549,0.43922,0.72461
0.376,-0.52567,0.48778,0.44902,0.4451,0.73438
0.384,-0.52812,0.47801,0.4549,0.44902,0.74023
0.392,-0.52812,0.46823,0.4549,0.4451,0.75
0.4,-0.53056,0.45846,0.46078,0.4451,0.77539
0.408,-0.53056,0.44868,0.46471,0.43922,0.79492
0.416,-0.53056,0.43891,0.47451,0.43529,0.83008
0.424,-0.53056,0.42913,0.48431,0.42941,0.86914
0.432,-0.52812,0.42131,0.5,0.42941,0.91016
0.44,-0.52567,0.41349,0.52549,0.41961,0.95508
0.448,-0.52323,0.40469,0.55098,0.41569,0.99023
0.456,-0.52078,0.39492,0.57059,0.41569,1.0254
0.464,-0.51589,0.38612,0.58431,0.41569,1.0391
0.472,-0.511,0.37732,0.5902,0.43529,1.0449
0.48,-0.50611,0.36852,0.6,0.44902,1.0352
0.488,-0.50367,0.3607,0.5902,0.47451,0.99023
0.496,-0.49878,0.35288,0.57451,0.50588,0.93555
0.504,-0.49389,0.34506,0.56078,0.52941,0.87891
0.512,-0.48655,0.33724,0.52549,0.56078,0.81055
0.52,-0.48166,0.32942,0.51961,0.57059,0.75391
0.528,-0.47433,0.3216,0.50588,0.58039,0.70898
0.536,-0.46944,0.31574,0.49412,0.5902,0.67969
0.544,-0.46455,0.30987,0.5,0.59608,0.68555
0.552,-0.45966,0.30303,0.50588,0.61569,0.68555
0.56,-0.45232,0.29619,0.5,0.6451,0.70508
0.568,-0.44743,0.28935,0.50588,0.67059,0.71484
0.576,-0.44254,0.28543,0.5098,0.65098,0.70898
0.584,-0.43521,0.28543,0.51569,0.6451,0.75
0.592,-0.43032,0.2913,0.50588,0.6,0.7793
0.6,-0.42298,0.30401,0.51569,0.53922,0.76562
0.608,-0.41565,0.32356,0.5098,0.52941,0.7793
0.616,-0.40831,0.34897,0.5098,0.52941,0.7793
0.624,-0.39853,0.38025,0.49412,0.52941,0.76562
0.632,-0.3912,0.41544,0.48431,0.53529,0.73438
0.64,-0.38386,0.45161,0.47059,0.5549,0.67969
0.648,-0.37408,0.48289,0.44902,0.58039,0.61523
0.656,-0.36675,0.51124,0.43529,0.58039,0.56445
0.664,-0.35941,0.54154,0.42941,0.57059,0.54492
0.672,-0.35208,0.56989,0.42549,0.56078,0.5293
0.68,-0.34474,0.59629,0.41961,0.56078,0.52539
0.688,-0.33741,0.62072,0.42549,0.5549,0.51953
0.696,-0.33007,0.64223,0.42549,0.55098,0.51562
0.704,-0.32274,0.66178,0.42941,0.53922,0.51562
0.712,-0.31296,0.6784,0.42941,0.53922,0.51562
0.72,-0.30562,0.69306,0.43529,0.53922,0.50977
0.728,-0.29829,0.70674,0.42549,0.5902,0.53516
0.736,-0.28851,0.7175,0.41961,0.6902,0.55078
0.744,-0.28117,0.7263,0.4902,0.7451,0.6543
0.752,-0.27384,0.73216,0.68039,0.81176,0.73047
0.76,-0.2665,0.73509,0.94118,0.94118,0.61914
0.768,-0.25917,0.73607,1.0608,0.96078,0.085938
0.776,-0.25183,0.73607,0.68627,0.82157,-0.31836
0.784,-0.2445,0.73216,0.2,0.81176,-0.36914
0.792,-0.23961,0.72532,0.017647,0.68627,-0.29883
0.8,-0.23227,0.71652,0.039216,0.42549,-0.21484
0.808,-0.22738,0.70479,0.13333,0.26863,0.050781
0.816,-0.22005,0.6911,0.27451,0.25882,0.375
0.824,-0.21516,0.67644,0.3902,0.38431,0.60547
0.832,-0.21027,0.65982,0.43922,0.46471,0.68555
0.84,-0.20782,0.64418,0.44902,0.48431,0.70508
0.848,-0.20538,0.62757,0.46471,0.4902,0.72461
0.856,-0.20293,0.6129,0.47059,0.49412,0.73438
0.864,-0.20293,0.59922,0.46471,0.48431,0.73438
0.872,-0.20293,0.58651,0.46471,0.48431,0.73438
0.88,-0.20049,0.57283,0.46078,0.48431,0.74023
0.888,-0.20049,0.55914,0.44902,0.48039,0.73438
0.896,-0.20049,0.54741,0.4451,0.47059,0.73438
0.904,-0.20049,0.53568,0.44902,0.46078,0.73047
0.912,-0.20049,0.52493,0.43529,0.46078,0.73438
0.92,-0.20049,0.51417,0.42941,0.4451,0.7207
0.928,-0.19804,0.50244,0.43529,0.43529,0.72461
0.936,-0.1956,0.49169,0.42549,0.43529,0.73047
0.944,-0.19071,0.48094,0.42549,0.43922,0.73438
0.952,-0.18582,0.47116,0.42549,0.42549,0.74414
0.96,-0.18093,0.46139,0.42549,0.41569,0.75977
0.968,-0.17359,0.45357,0.43529,0.41569,0.7793
0.976,-0.16626,0.44379,0.4451,0.4,0.81055
0.984,-0.15648,0.43304,0.46078,0.3902,0.84961
0.992,-0.14914,0.42229,0.48039,0.38431,0.89453
1,-0.13692,0.41251,0.5098,0.38039,0.91406
1.008,-0.12714,0.40176,0.52941,0.37059,0.95508
1.016,-0.11491,0.39198,0.5451,0.37451,0.96875
1.024,-0.10269,0.38221,0.5549,0.38431,0.97461
1.032,-0.09291,0.37243,0.56078,0.39412,0.95898
1.04,-0.080685,0.36364,0.55098,0.41569,0.91992
1.048,-0.070905,0.35484,0.53922,0.42941,0.86914
1.056,-0.06357,0.34604,0.51961,0.44902,0.81055
1.064,-0.056235,0.3392,0.5,0.47059,0.74414
1.072,-0.0489,0.33431,0.48039,0.48039,0.68945
1.08,-0.046455,0.32649,0.47059,0.48431,0.64453
1.088,-0.041565,0.31769,0.44902,0.4902,0.60938
1.096,-0.03912,0.30792,0.44902,0.49412,0.5957
1.104,-0.036675,0.29912,0.46078,0.5,0.58984
1.112,-0.036675,0.2913,0.47059,0.51569,0.60938
1.12,-0.03423,0.28446,0.4902,0.5451,0.64062
1.128,-0.03423,0.28055,0.49412,0.58431,0.66992
1.136,-0.03423,0.28055,0.5,0.6,0.68555
1.144,-0.031785,0.28739,0.5,0.5902,0.69922
1.152,-0.031785,0.30205,0.50588,0.57059,0.74023
1.16,-0.031785,0.32258,0.5,0.50588,0.75
1.168,-0.031785,0.34604,0.50588,0.48039,0.76562
1.176,-0.02934,0.37243,0.5,0.48431,0.76953
1.184,-0.02934,0.40371,0.49412,0.47451,0.75391
1.192,-0.02934,0.43891,0.48039,0.48039,0.73047
1.2,-0.026895,0.47507,0.47059,0.48431,0.68555
1.208,-0.02934,0.51026,0.44902,0.5098,0.61914
1.216,-0.02934,0.5435,0.4451,0.51569,0.57031
1.224,-0.02934,0.5738,0.43922,0.52549,0.54492
1.232,-0.031785,0.60215,0.43529,0.52941,0.53516
1.24,-0.031785,0.62659,0.43529,0.52941,0.5293
1.248,-0.03423,0.64907,0.4451,0.51961,0.52539
1.256,-0.03423,0.6696,0.4451,0.51961,0.5293
1.264,-0.03423,0.68817,0.44902,0.51569,0.52539
1.272,-0.036675,0.70186,0.44902,0.51961,0.5293
1.28,-0.036675,0.71261,0.44902,0.51961,0.52539
1.288,-0.036675,0.72336,0.4451,0.5451,0.53906
1.296,-0.03423,0.73314,0.42941,0.6451,0.57031
1.304,-0.03423,0.74096,0.46078,0.72549,0.62891
1.312,-0.03423,0.74682,0.61961,0.77647,0.74414
1.32,-0.031785,0.75073,0.87647,0.88039,0.75391
1.328,-0.031785,0.75073,1.0961,0.94706,0.30469
1.336,-0.02934,0.74682,0.91176,0.8451,-0.17969
1.344,-0.02934,0.74096,0.36471,0.81176,-0.33008
1.352,-0.026895,0.73118,0.058824,0.82157,-0.26367
1.36,-0.026895,0.71945,0.029412,0.5451,-0.21875
1.368,-0.026895,0.70479,0.088235,0.32353,-0.048828
1.376,-0.02445,0.69013,0.22353,0.27843,0.29102
1.384,-0.026895,0.67449,0.3549,0.35882,0.57031
1.392,-0.026895,0.65787,0.42549,0.46471,0.69531
1.4,-0.02934,0.64027,0.4451,0.49412,0.72461
1.408,-0.031785,0.6217,0.46078,0.5,0.73438
1.416,-0.03912,0.60411,0.47059,0.50588,0.75391
1.424,-0.04401,0.58651,0.46078,0.5098,0.75977
1.432,-0.051345,0.57087,0.46471,0.50588,0.76562
1.44,-0.056235,0.55621,0.46078,0.5,0.75977
1.448,-0.066015,0.54154,0.46471,0.4902,0.76562
1.456,-0.07335,0.52884,0.46078,0.48431,0.75977
1.464,-0.080685,0.51711,0.47059,0.48431,0.76953
1.472,-0.090465,0.50538,0.47451,0.47059,0.77539
1.48,-0.0978,0.49462,0.47059,0.47059,0.77539
1.488,-0.10513,0.48583,0.47451,0.46078,0.77539
1.496,-0.11247,0.47507,0.47451,0.4549,0.76562
1.504,-0.11736,0.46334,0.47059,0.44902,0.77539
1.512,-0.12225,0.45161,0.47451,0.43922,0.78516
1.52,-0.12714,0.44086,0.47059,0.43529,0.79492
1.528,-0.12958,0.42913,0.47451,0.42941,0.82031
1.536,-0.13203,0.41838,0.48039,0.41569,0.84375
1.544,-0.13203,0.40762,0.4902,0.41569,0.87891
1.552,-0.12958,0.39687,0.51569,0.40392,0.91992
1.56,-0.12714,0.3871,0.52941,0.39412,0.95898
1.568,-0.12225,0.37634,0.55098,0.39412,0.98438
1.576,-0.11491,0.36559,0.57451,0.3902,1.0137
1.584,-0.11002,0.35582,0.5902,0.39412,1.0293
1.592,-0.10269,0.34702,0.59608,0.4098,1.0195
1.6,-0.0978,0.34018,0.6,0.41961,0.99414
1.608,-0.090465,0.33236,0.5902,0.4451,0.95508
1.616,-0.085575,0.32356,0.57451,0.46471,0.89453
1.624,-0.08313,0.31378,0.5549,0.4902,0.83984
1.632,-0.080685,0.30596,0.52941,0.5098,0.78516
1.64,-0.07824,0.29717,0.51961,0.51961,0.74414
1.648,-0.075795,0.28837,0.51961,0.53529,0.72461
1.656,-0.075795,0.27957,0.51569,0.56078,0.71484
1.664,-0.07335,0.27175,0.51961,0.59608,0.73047
1.672,-0.070905,0.26393,0.51961,0.62549,0.74023
1.68,-0.070905,0.25709,0.51569,0.61569,0.74023
1.688,-0.06846,0.2522,0.51961,0.60588,0.74414
1.696,-0.066015,0.2522,0.5098,0.56078,0.7793
1.704,-0.061125,0.25709,0.51569,0.5,0.7793
1.712,-0.05868,0.26686,0.5,0.48431,0.79883
1.72,-0.056235,0.2825,0.5,0.48039,0.78906
1.728,-0.05379,0.30499,0.49412,0.47451,0.77539
1.736,-0.051345,0.33333,0.47451,0.48431,0.74023
1.744,-0.0489,0.36657,0.46078,0.50588,0.68945
1.752,-0.046455,0.40176,0.44902,0.52941,0.62891
1.76,-0.04401,0.43891,0.43922,0.52941,0.58984
1.768,-0.041565,0.4741,0.4451,0.52549,0.57031
1.776,-0.03912,0.50831,0.43529,0.52941,0.56445
1.784,-0.036675,0.53959,0.42941,0.52941,0.56055
1.792,-0.03423,0.56696,0.43529,0.52549,0.55469
1.8,-0.031785,0.58944,0.43529,0.52941,0.56055
1.808,-0.02934,0.60802,0.43529,0.52549,0.55078
1.816,-0.026895,0.62659,0.4451,0.51961,0.56055
1.824,-0.02445,0.64516,0.43922,0.51961,0.56055
1.832,-0.022005,0.6608,0.42941,0.55098,0.57031
1.84,-0.017115,0.67546,0.4098,0.6451,0.58398
1.848,-0.01467,0.68817,0.40392,0.71569,0.64453
1.856,-0.00978,0.69892,0.6098,0.76667,0.73047
1.864,-0.00489,0.70674,0.85686,0.88627,0.66016
1.872,0,0.71261,1.0314,0.93725,0.17578
1.88,0.007335,0.71554,0.76078,0.83137,-0.29883
1.888,0.01467,0.71554,0.2451,0.8,-0.4082
1.896,0.022005,0.71261,-0.011765,0.72549,-0.30859
1.904,0.02934,0.70674,-0.027451,0.47059,-0.24414
1.912,0.036675,0.69795,0.058824,0.25882,-0.035156
1.92,0.04401,0.68719,0.2,0.21961,0.30078
1.928,0.05379,0.67449,0.32941,0.30392,0.55469
1.936,0.061125,0.65885,0.4,0.3902,0.65039
1.944,0.066015,0.64223,0.41961,0.41569,0.67969
1.952,0.07335,0.62561,0.42941,0.42941,0.68945
1.96,0.075795,0.60899,0.43529,0.43529,0.69531
1.968,0.07824,0.5914,0.43922,0.42941,0.70898
1.976,0.07824,0.57576,0.43922,0.42941,0.7207
1.984,0.07824,0.56012,0.43529,0.42941,0.7207
1.992,0.075795,0.54545,0.42941,0.42549,0.73047
2,0.07335,0.53177,0.43922,0.41961,0.73438
2.008,0.066015,0.52102,0.4451,0.42549,0.73438
2.016,0.061125,0.51124,0.4451,0.41961,0.74414
2.024,0.05379,0.50049,0.4451,0.41569,0.74414
2.032,0.0489,0.49071,0.44902,0.40392,0.74023
2.04,0.03912,0.47996,0.4451,0.40392,0.74414
2.048,0.02934,0.46921,0.4451,0.40392,0.75977
2.056,0.01956,0.45943,0.43922,0.40392,0.77539
2.064,0.00978,0.44966,0.4451,0.39412,0.79492
2.072,0,0.43891,0.44902,0.3902,0.83008
2.08,-0.012225,0.42815,0.46471,0.38431,0.86914
2.088,-0.022005,0.4174,0.48431,0.37451,0.91406
2.096,-0.031785,0.40665,0.5098,0.36471,0.95508
2.104,-0.041565,0.39687,0.52941,0.35882,0.99023
2.112,-0.0489,0.38807,0.5451,0.3549,1.0195
2.12,-0.056235,0.38025,0.57059,0.35882,1.0449
2.128,-0.066015,0.37146,0.58039,0.36471,1.0547
2.136,-0.070905,0.36266,0.5902,0.38039,1.0352
2.144,-0.075795,0.35288,0.58039,0.40392,0.99414
2.152,-0.07824,0.34311,0.57059,0.42941,0.94922
2.16,-0.080685,0.33333,0.5549,0.4549,0.88477
2.168,-0.08313,0.32454,0.53922,0.47451,0.82031
2.176,-0.08313,0.31476,0.51961,0.49412,0.76562
2.184,-0.085575,0.30596,0.5,0.50588,0.7207
2.192,-0.085575,0.29619,0.5,0.51569,0.70508
2.2,-0.085575,0.28739,0.49412,0.53529,0.68945
2.208,-0.085575,0.27859,0.5,0.55098,0.69531
2.216,-0.08313,0.27273,0.5,0.5902,0.68945
2.224,-0.08313,0.26784,0.5,0.60588,0.71484
2.232,-0.080685,0.26295,0.5,0.59608,0.72461
2.24,-0.07824,0.26002,0.5,0.58039,0.75
2.248,-0.075795,0.26002,0.5,0.53529,0.7793
2.256,-0.070905,0.26588,0.49412,0.48431,0.77539
2.264,-0.06846,0.27859,0.5,0.47059,0.79492
2.272,-0.066015,0.29717,0.49412,0.46471,0.80469
2.28,-0.06357,0.3216,0.48431,0.47059,0.7793
2.288,-0.061125,0.35191,0.47059,0.48431,0.73047
2.296,-0.05868,0.38416,0.4549,0.5,0.67578
2.304,-0.056235,0.41838,0.4451,0.51569,0.61914
2.312,-0.051345,0.45161,0.43922,0.51569,0.57422
2.32,-0.0489,0.47898,0.43529,0.5098,0.56445
2.328,-0.04401,0.5044,0.43922,0.5098,0.56055
2.336,-0.041565,0.52981,0.42941,0.51569,0.55469
2.344,-0.036675,0.55425,0.42941,0.51961,0.55469
2.352,-0.03423,0.57576,0.42941,0.51961,0.53906
2.36,-0.02934,0.59531,0.43529,0.5098,0.54492
2.368,-0.02445,0.6129,0.42941,0.5098,0.53906
2.376,-0.022005,0.62757,0.42549,0.5098,0.53516
2.384,-0.017115,0.6393,0.41569,0.56471,0.56055
2.392,-0.01467,0.65005,0.41569,0.66078,0.58398
2.4,-0.00978,0.65787,0.48431,0.7098,0.69922
2.408,-0.007335,0.66373,0.67647,0.76078,0.75391
2.416,-0.00489,0.66569,0.92157,0.87059,0.60938
2.424,-0.002445,0.66667,1.002,0.88627,0.03125
2.432,0.002445,0.66471,0.58039,0.8,-0.41992
2.44,0.00489,0.6608,0.14314,0.80588,-0.44922
2.448,0.00978,0.65396,-0.0058823,0.6902,-0.27344
2.456,0.012225,0.64418,0.013725,0.43529,-0.19336
2.464,0.017115,0.63245,0.088235,0.25882,0.044922
2.472,0.01956,0.61779,0.22353,0.22941,0.37109
2.48,0.01956,0.60313,0.33529,0.32941,0.58984
2.488,0.01956,0.58749,0.3902,0.4,0.66016
2.496,0.01956,0.57185,0.4098,0.41961,0.67969
2.504,0.017115,0.55718,0.41961,0.42941,0.68945
2.512,0.01467,0.54252,0.42549,0.43529,0.70508
2.52,0.00978,0.52884,0.43529,0.43529,0.70898
2.528,0.00489,0.51808,0.43529,0.42941,0.70508
2.536,-0.002445,0.50831,0.43922,0.42941,0.7207
2.544,-0.007335,0.49756,0.43922,0.41961,0.7207
2.552,-0.012225,0.48778,0.43529,0.41961,0.72461
2.56,-0.017115,0.47703,0.4451,0.42549,0.73438
2.568,-0.02445,0.46628,0.44902,0.41961,0.73047
2.576,-0.02934,0.4565,0.43922,0.41569,0.73438
2.584,-0.03423,0.44673,0.43922,0.41569,0.74414
2.592,-0.03912,0.43695,0.43529,0.41569,0.75391
2.6,-0.046455,0.42717,0.43529,0.4098,0.76562
2.608,-0.051345,0.41838,0.43922,0.4,0.78516
2.616,-0.05379,0.4086,0.43922,0.3902,0.81055
2.624,-0.05868,0.39883,0.44902,0.38039,0.84375
2.632,-0.06357,0.38905,0.46471,0.36471,0.88867
2.64,-0.066015,0.38123,0.48431,0.35882,0.92969
2.648,-0.06846,0.37439,0.51569,0.3451,0.97461
2.656,-0.070905,0.36657,0.53529,0.33922,1.0098
2.664,-0.07335,0.35777,0.5549,0.33922,1.0488
2.672,-0.07335,0.34897,0.57059,0.33922,1.0742
2.68,-0.07335,0.34115,0.58431,0.3451,1.0703
2.688,-0.07335,0.33236,0.58431,0.37451,1.0547
2.696,-0.07335,0.32356,0.57451,0.4,1.0098
2.704,-0.070905,0.31476,0.5549,0.43529,0.93555
2.712,-0.06846,0.30694,0.5451,0.47059,0.88477
2.72,-0.066015,0.29912,0.51961,0.49412,0.81445
2.728,-0.06357,0.2913,0.5,0.5098,0.76562
2.736,-0.05868,0.28348,0.4902,0.52549,0.72461
2.744,-0.056235,0.27761,0.48431,0.53922,0.69922
2.752,-0.05379,0.27273,0.48431,0.5549,0.69531
2.76,-0.0489,0.26686,0.4902,0.57451,0.70508
2.768,-0.046455,0.26002,0.49412,0.6098,0.70898
2.776,-0.041565,0.25415,0.4902,0.61961,0.7207
2.784,-0.03912,0.25024,0.49412,0.6,0.71484
2.792,-0.03423,0.24829,0.49412,0.58431,0.76562
2.8,-0.02934,0.25122,0.49412,0.51961,0.77539
2.808,-0.02445,0.261,0.4902,0.4902,0.76562
2.816,-0.01956,0.27761,0.48431,0.48431,0.79883
2.824,-0.012225,0.3001,0.5,0.47451,0.78906
2.832,-0.007335,0.32845,0.48039,0.48431,0.76953
2.84,0,0.36168,0.47451,0.4902,0.72461
2.848,0.00489,0.39296,0.46471,0.5098,0.6543
2.856,0.00978,0.42229,0.44902,0.52549,0.60547
2.864,0.017115,0.45357,0.4451,0.52941,0.57422
2.872,0.022005,0.48485,0.4451,0.52549,0.56445
2.88,0.026895,0.51417,0.43922,0.51961,0.55469
2.888,0.03423,0.54057,0.44902,0.51961,0.54492
2.896,0.03912,0.56403,0.43922,0.51961,0.54492
2.904,0.04401,0.58456,0.4451,0.51569,0.54492
2.912,0.0489,0.60313,0.43922,0.51961,0.53516
2.92,0.05379,0.61877,0.43922,0.51569,0.5293
2.928,0.056235,0.63148,0.43529,0.52549,0.54492
2.936,0.061125,0.64223,0.42549,0.6,0.57031
2.944,0.066015,0.652,0.41961,0.68627,0.60938
2.952,0.070905,0.65787,0.5451,0.72549,0.74414
2.96,0.075795,0.6608,0.76078,0.79608,0.76953
2.968,0.080685,0.66276,0.97059,0.8902,0.43945
2.976,0.085575,0.66373,0.98235,0.83137,-0.16992
2.984,0.08802,0.6608,0.43529,0.7902,-0.46484
2.992,0.09291,0.65591,0.094118,0.80588,-0.36914
3,0.10024,0.64907,0.033333,0.61569,-0.26367
3.008,0.10513,0.6393,0.068627,0.37059,-0.11523
3.016,0.11247,0.62757,0.16863,0.2451,0.17578
3.024,0.11736,0.61388,0.2902,0.26863,0.46094
3.032,0.12225,0.6002,0.38039,0.37059,0.61914
3.04,0.12714,0.58456,0.4098,0.41569,0.66016
3.048,0.12958,0.56989,0.42549,0.43529,0.67969
3.056,0.13447,0.55718,0.43529,0.43922,0.68945
3.064,0.13447,0.54643,0.43922,0.43922,0.68945
3.072,0.13447,0.5347,0.4451,0.43529,0.69531
3.08,0.13203,0.52297,0.44902,0.42941,0.69922
3.088,0.12958,0.5132,0.44902,0.42941,0.69922
3.096,0.12714,0.50244,0.44902,0.42549,0.70508
3.104,0.12225,0.49267,0.44902,0.41961,0.71484
3.112,0.11736,0.48387,0.4549,0.41961,0.7207
3.12,0.11491,0.47507,0.4549,0.41569,0.7207
3.128,0.10758,0.4653,0.44902,0.41569,0.73438
3.136,0.10269,0.45552,0.44902,0.41569,0.74023
3.144,0.0978,0.44575,0.4451,0.4098,0.75
3.152,0.090465,0.43597,0.44902,0.40392,0.76562
3.16,0.08313,0.42913,0.44902,0.3902,0.7793
3.168,0.075795,0.42229,0.44902,0.38431,0.80469
3.176,0.06846,0.41447,0.46078,0.36471,0.84375
3.184,0.061125,0.40567,0.47451,0.3549,0.87891
3.192,0.056235,0.39589,0.5,0.3451,0.93555
3.2,0.0489,0.3871,0.52549,0.33529,0.98438
3.208,0.04401,0.37732,0.5451,0.32353,1.0137
3.216,0.036675,0.36852,0.57059,0.31961,1.0449
3.224,0.031785,0.35973,0.58431,0.31961,1.0645
3.232,0.026895,0.35093,0.5902,0.33922,1.0547
3.24,0.022005,0.34213,0.5902,0.35882,1.0293
3.248,0.01956,0.33431,0.58431,0.38431,0.98047
3.256,0.01467,0.32649,0.56471,0.41961,0.91406
3.264,0.012225,0.31965,0.55098,0.4549,0.84961
3.272,0.00978,0.31476,0.52941,0.48039,0.78906
3.28,0.007335,0.3089,0.51569,0.5,0.73438
3.288,0.00489,0.30303,0.5,0.51569,0.69922
3.296,0.002445,0.29619,0.5,0.52941,0.68555
3.304,0.002445,0.28837,0.5,0.5451,0.67969
3.312,0.002445,0.28055,0.5098,0.57059,0.68945
3.32,0.002445,0.2737,0.50588,0.6,0.70508
3.328,0.002445,0.26784,0.5098,0.59608,0.70898
3.336,0.002445,0.26393,0.51569,0.58431,0.71484
3.344,0.002445,0.26491,0.50588,0.55098,0.75
3.352,0.00489,0.27175,0.50588,0.49412,0.76562
3.36,0.007335,0.28446,0.5,0.47059,0.77539
3.368,0.00978,0.30108,0.5,0.46471,0.7793
3.376,0.012225,0.32258,0.50588,0.46078,0.76953
3.384,0.017115,0.34995,0.5,0.46078,0.74414
3.392,0.01956,0.38221,0.48431,0.48039,0.69922
3.4,0.02445,0.41642,0.47059,0.50588,0.64062
3.408,0.026895,0.45064,0.4549,0.5098,0.58398
3.416,0.031785,0.48387,0.4549,0.51569,0.56055
3.424,0.03423,0.51515,0.44902,0.5098,0.54492
3.432,0.03912,0.54252,0.44902,0.51569,0.53906
3.44,0.04401,0.56794,0.44902,0.5098,0.53906
3.448,0.046455,0.59042,0.44902,0.51569,0.5293
3.456,0.051345,0.60997,0.44902,0.51961,0.51953
3.464,0.056235,0.62757,0.4549,0.5098,0.51953
3.472,0.05868,0.64027,0.44902,0.5098,0.51953
3.48,0.06357,0.65005,0.4451,0.52549,0.52539
3.488,0.066015,0.65982,0.42549,0.61569,0.55469
3.496,0.070905,0.66862,0.46078,0.68627,0.62891
3.504,0.07335,0.67644,0.6098,0.73137,0.75
3.512,0.07824,0.68133,0.83529,0.83137,0.76562
3.52,0.080685,0.68426,1.0275,0.8902,0.31445
3.528,0.085575,0.68524,0.84118,0.8,-0.25391
3.536,0.090465,0.68328,0.3451,0.76078,-0.43945
3.544,0.0978,0.67742,0.058824,0.71569,-0.34961
3.552,0.10269,0.6696,0.033333,0.4902,-0.28906
3.56,0.11002,0.65982,0.084314,0.26471,-0.10352
3.568,0.11491,0.64809,0.20392,0.2098,0.21484
3.576,0.12225,0.63636,0.32353,0.28431,0.48047
3.584,0.12714,0.62366,0.4,0.3902,0.60547
3.592,0.13203,0.61095,0.42549,0.41569,0.63477
3.6,0.13692,0.59726,0.43922,0.42941,0.66016
3.608,0.13936,0.5826,0.4451,0.43529,0.66406
3.616,0.14181,0.56989,0.4549,0.43529,0.67578
3.624,0.14425,0.55718,0.44902,0.43529,0.67969
3.632,0.1467,0.54545,0.4549,0.42941,0.68555
3.64,0.14914,0.5347,0.4549,0.42941,0.68555
3.648,0.14914,0.52395,0.46078,0.42549,0.69531
3.656,0.14914,0.5132,0.46078,0.42549,0.68945
3.664,0.14914,0.50342,0.46471,0.41961,0.70508
3.672,0.1467,0.49462,0.46471,0.41569,0.70508
3.68,0.1467,0.48485,0.46471,0.4098,0.71484
3.688,0.14425,0.47703,0.46078,0.4098,0.72461
3.696,0.14181,0.46921,0.46078,0.4,0.73047
3.704,0.13936,0.46041,0.46471,0.39412,0.74023
3.712,0.13692,0.45161,0.46078,0.3902,0.75391
3.72,0.13447,0.44184,0.47451,0.38431,0.7793
3.728,0.13447,0.43206,0.47059,0.38039,0.82031
3.736,0.13203,0.42229,0.49412,0.36471,0.85938
3.744,0.12958,0.41251,0.51569,0.36471,0.9043
3.752,0.12714,0.40176,0.52941,0.3549,0.94531
3.76,0.12714,0.39296,0.5549,0.34902,0.97461
3.768,0.12714,0.38319,0.57059,0.3549,0.99414
3.776,0.12714,0.37439,0.58039,0.35882,1.0137
3.784,0.12958,0.36559,0.5902,0.37059,1.0098
3.792,0.12958,0.35875,0.5902,0.3902,0.97461
3.8,0.13203,0.35288,0.5902,0.41569,0.92969
3.808,0.13447,0.34604,0.57059,0.43529,0.86523
3.816,0.13447,0.33822,0.5549,0.46078,0.79883
3.824,0.13692,0.33138,0.53529,0.48431,0.74414
3.832,0.13936,0.32356,0.51961,0.49412,0.68945
3.84,0.13936,0.31672,0.5098,0.5098,0.6543
3.848,0.14181,0.3089,0.51569,0.51569,0.64062
3.856,0.14181,0.30205,0.52549,0.53529,0.65039
3.864,0.14425,0.29521,0.51961,0.56471,0.66406
3.872,0.1467,0.28837,0.51961,0.58431,0.67969
3.88,0.14914,0.28348,0.52549,0.58039,0.68555
3.888,0.15159,0.2825,0.52549,0.57451,0.70898
3.896,0.15403,0.28543,0.51961,0.51961,0.74023
3.904,0.15648,0.29326,0.51569,0.46471,0.73438
3.912,0.15892,0.30792,0.51961,0.44902,0.74414
3.92,0.16137,0.32942,0.51961,0.44902,0.74414
3.928,0.16626,0.35679,0.51569,0.44902,0.73047
3.936,0.1687,0.38905,0.50588,0.46078,0.70508
3.944,0.17115,0.42424,0.4902,0.48039,0.6543
3.952,0.17359,0.45943,0.47451,0.50588,0.5957
3.96,0.17848,0.49462,0.46078,0.5098,0.54492
3.968,0.18093,0.52786,0.46078,0.5098,0.53516
3.976,0.18337,0.55816,0.46471,0.50588,0.51953
3.984,0.18826,0.58651,0.4549,0.50588,0.50977
3.992,0.19071,0.61095,0.46078,0.50588,0.50977
4,0.1956,0.6305,0.46471,0.5,0.50586
4.008,0.20049,0.64614,0.46078,0.50588,0.5
4.016,0.20293,0.66276,0.47059,0.49412,0.50977
4.024,0.20782,0.67742,0.46471,0.5,0.50586
4.032,0.21271,0.6911,0.46078,0.53529,0.5293
4.04,0.2176,0.70381,0.4451,0.63529,0.54492
4.048,0.22005,0.71457,0.50588,0.69608,0.64062
4.056,0.22494,0.72336,0.68039,0.75098,0.7207
4.064,0.22983,0.72923,0.92549,0.87647,0.625
4.072,0.23716,0.73314,1.0608,0.90588,0.10547
4.08,0.24205,0.73314,0.72549,0.77059,-0.33398
4.088,0.24694,0.73118,0.23333,0.7549,-0.39844
4.096,0.25183,0.7263,0.023529,0.65098,-0.32422
4.104,0.25917,0.71848,0.033333,0.3902,-0.26367
4.112,0.26406,0.70968,0.11961,0.21373,-0.025391
4.12,0.26895,0.69795,0.24902,0.2,0.31055
4.128,0.27384,0.68426,0.35882,0.3098,0.55078
4.136,0.27628,0.6696,0.41569,0.39412,0.62891
4.144,0.28117,0.65396,0.42941,0.41569,0.65039
4.152,0.28362,0.63734,0.4451,0.42549,0.66406
4.16,0.28606,0.6217,0.44902,0.42549,0.67578
4.168,0.28851,0.60606,0.44902,0.42549,0.67969
4.176,0.29095,0.5914,0.44902,0.42549,0.68555
4.184,0.29095,0.57771,0.44902,0.41961,0.68555
4.192,0.29095,0.565,0.4549,0.41961,0.68945
4.2,0.28851,0.55327,0.4549,0.42549,0.69922
4.208,0.28851,0.5435,0.44902,0.41961,0.69922
4.216,0.28606,0.5347,0.4549,0.41569,0.70508
4.224,0.28362,0.52395,0.4549,0.41961,0.70898
4.232,0.28117,0.5132,0.4549,0.41569,0.7207
4.24,0.27628,0.50244,0.4549,0.41569,0.72461
4.248,0.27384,0.49169,0.4549,0.4098,0.73438
4.256,0.26895,0.48094,0.44902,0.4098,0.74414
4.264,0.26406,0.47116,0.4549,0.40392,0.75977
4.272,0.25917,0.46041,0.46078,0.39412,0.78516
4.28,0.25672,0.44966,0.47059,0.3902,0.82031
4.288,0.25428,0.43891,0.48431,0.38431,0.86523
4.296,0.25183,0.42815,0.5098,0.38039,0.9043
4.304,0.24939,0.4174,0.52941,0.37059,0.94531
4.312,0.24694,0.4086,0.5451,0.37059,0.96875
4.32,0.2445,0.40078,0.56471,0.37059,0.99414
4.328,0.24205,0.39198,0.58039,0.38039,1
4.336,0.23961,0.38221,0.5902,0.39412,0.98438
4.344,0.23961,0.37341,0.5902,0.41569,0.94922
4.352,0.23716,0.36461,0.58039,0.43529,0.89453
4.36,0.23716,0.35582,0.56078,0.46078,0.83984
4.368,0.23472,0.34702,0.5451,0.48431,0.78516
4.376,0.23227,0.3392,0.52549,0.50588,0.73047
4.384,0.23227,0.3304,0.51569,0.51569,0.68555
4.392,0.22983,0.32258,0.5098,0.52941,0.66016
4.4,0.22738,0.31378,0.5098,0.53529,0.6543
4.408,0.22738,0.30499,0.51569,0.56078,0.66992
4.416,0.22494,0.3001,0.51961,0.59608,0.68945
4.424,0.22249,0.29619,0.51961,0.6,0.69531
4.432,0.22249,0.29326,0.51961,0.5902,0.68945
4.44,0.22005,0.29326,0.51961,0.56471,0.73047
4.448,0.22005,0.29717,0.51961,0.5098,0.75
4.456,0.22005,0.30694,0.5098,0.48039,0.75391
4.464,0.22005,0.32356,0.50588,0.47451,0.75391
4.472,0.22005,0.34702,0.5,0.47059,0.75391
4.48,0.22249,0.37537,0.49412,0.47451,0.73438
4.488,0.22249,0.40762,0.48431,0.48431,0.70508
4.496,0.22249,0.44086,0.46471,0.5098,0.64453
4.504,0.22249,0.47507,0.4451,0.52941,0.58008
4.512,0.22494,0.50831,0.43922,0.52941,0.55078
4.52,0.22494,0.53666,0.43922,0.52549,0.53906
4.528,0.22494,0.56012,0.4451,0.51961,0.5293
4.536,0.22738,0.58553,0.4451,0.51569,0.52539
4.544,0.22983,0.60899,0.43922,0.51569,0.51953
4.552,0.23227,0.6305,0.44902,0.51569,0.51953
4.56,0.23472,0.65005,0.44902,0.51569,0.51953
4.568,0.23716,0.66764,0.4451,0.5098,0.51953
4.576,0.23961,0.68328,0.43922,0.51961,0.51953
4.584,0.24205,0.69697,0.42549,0.5902,0.54492
4.592,0.2445,0.7087,0.41961,0.68627,0.57031
4.6,0.2445,0.71945,0.52941,0.73137,0.67969
4.608,0.24694,0.7263,0.75098,0.80588,0.70898
4.616,0.24939,0.73216,1.0059,0.92157,0.44922
4.624,0.25183,0.73412,1.0608,0.8451,-0.09375
4.632,0.25428,0.73314,0.5,0.76667,-0.37891
4.64,0.25672,0.73021,0.088235,0.77059,-0.33984
4.648,0.25917,0.72434,0.0039216,0.56078,-0.31445
4.656,0.26161,0.71652,0.039216,0.29412,-0.18945
4.664,0.2665,0.70479,0.14902,0.20392,0.12109
4.672,0.26895,0.69208,0.28431,0.2451,0.42578
4.68,0.27384,0.67742,0.37451,0.36471,0.60547
4.688,0.27873,0.66178,0.4098,0.41569,0.6543
4.696,0.28117,0.64516,0.42941,0.42549,0.66406
4.704,0.28362,0.62854,0.43529,0.43529,0.67578
4.712,0.28362,0.6129,0.43922,0.43529,0.68945
4.72,0.28606,0.59726,0.4451,0.43529,0.69922
4.728,0.28606,0.58358,0.4451,0.43529,0.70508
4.736,0.28606,0.57087,0.4451,0.43529,0.70898
4.744,0.28606,0.56012,0.44902,0.43529,0.70898
4.752,0.28606,0.54741,0.44902,0.42941,0.7207
4.76,0.28362,0.53568,0.44902,0.42941,0.7207
4.768,0.28362,0.52395,0.4549,0.42549,0.73438
4.776,0.28117,0.5132,0.44902,0.41569,0.73438
4.784,0.27873,0.50244,0.4451,0.41569,0.73438
4.792,0.27628,0.49169,0.43922,0.41569,0.73438
4.8,0.27384,0.48094,0.43922,0.41569,0.75
4.808,0.27139,0.47019,0.4451,0.41569,0.75977
4.816,0.26895,0.45943,0.44902,0.4098,0.78516
4.824,0.2665,0.44868,0.44902,0.40392,0.81055
4.832,0.26406,0.43695,0.46078,0.4,0.84961
4.84,0.26161,0.42815,0.48431,0.3902,0.88867
4.848,0.25917,0.42033,0.5098,0.3902,0.93555
4.856,0.25672,0.41153,0.52941,0.3902,0.96484
4.864,0.25672,0.40176,0.5451,0.3902,0.99023
4.872,0.25428,0.39198,0.56078,0.3902,1
4.88,0.25428,0.38221,0.57451,0.4098,1.0039
4.888,0.25428,0.37243,0.57451,0.42549,0.98047
4.896,0.25428,0.36364,0.57451,0.43922,0.93945
4.904,0.25428,0.35386,0.56078,0.46471,0.87891
4.912,0.25428,0.34409,0.53529,0.4902,0.81445
4.92,0.25428,0.33529,0.51961,0.5098,0.76562
4.928,0.25428,0.32551,0.50588,0.51961,0.71484
4.936,0.25428,0.31672,0.4902,0.52549,0.67969
4.944,0.25183,0.30987,0.48039,0.52941,0.6543
4.952,0.25183,0.30401,0.48039,0.53529,0.64062
4.96,0.24939,0.29717,0.48039,0.55098,0.64453
4.968,0.24939,0.2913,0.4902,0.57451,0.66406
4.976,0.24694,0.28543,0.49412,0.6098,0.69531
4.984,0.24694,0.28152,0.49412,0.61961,0.70898
4.992,0.2445,0.2825,0.5,0.6098,0.71484
5,0.2445,0.28935,0.5,0.59608,0.75
5.008,0.2445,0.30303,0.5,0.53529,0.76562
5.016,0.2445,0.32258,0.50588,0.4902,0.77539
5.024,0.24694,0.348,0.5,0.48431,0.7793
5.032,0.24939,0.3783,0.49412,0.48039,0.77539
5.04,0.24939,0.41153,0.48039,0.48431,0.75
5.048,0.25183,0.44086,0.47059,0.4902,0.70508
5.056,0.25428,0.46921,0.46078,0.5098,0.65039
5.064,0.25428,0.49951,0.44902,0.52549,0.58984
5.072,0.25428,0.52884,0.43922,0.52941,0.55469
5.08,0.25428,0.55621,0.43529,0.52549,0.54492
5.088,0.25428,0.58162,0.43922,0.51961,0.53516
5.096,0.25428,0.60411,0.43529,0.51961,0.53516
5.104,0.25428,0.62463,0.43922,0.51569,0.52539
5.112,0.25428,0.64223,0.43922,0.51569,0.51953
5.12,0.25428,0.65787,0.42941,0.51961,0.52539
5.128,0.25672,0.67351,0.43529,0.51961,0.52539
5.136,0.25672,0.69013,0.42941,0.52549,0.5293
5.144,0.25917,0.70186,0.4098,0.60588,0.55078
5.152,0.25917,0.70968,0.40392,0.69608,0.58008
5.16,0.26161,0.71457,0.51961,0.73529,0.68945
5.168,0.26161,0.71848,0.75098,0.82157,0.7207
5.176,0.26406,0.72043,0.99216,0.93725,0.42969
5.184,0.2665,0.71848,1.0471,0.87059,-0.10352
5.192,0.2665,0.71457,0.47451,0.7902,-0.38867
5.2,0.26895,0.70772,0.062745,0.8,-0.33398
5.208,0.27139,0.69795,-0.021569,0.58039,-0.30469
5.216,0.27384,0.68524,0.013725,0.31961,-0.17969
5.224,0.27873,0.67058,0.12941,0.21961,0.12109
5.232,0.28117,0.65396,0.25882,0.25882,0.43555
5.24,0.28362,0.63734,0.3451,0.38431,0.60938
5.248,0.28362,0.61975,0.39412,0.42549,0.66016
5.256,0.28362,0.60411,0.4098,0.43529,0.67969
5.264,0.28606,0.59042,0.42549,0.4451,0.69531
5.272,0.28606,0.57576,0.42549,0.44902,0.70508
5.28,0.28606,0.56109,0.42549,0.44902,0.70898
5.288,0.28362,0.54741,0.42941,0.4451,0.70898
5.296,0.28362,0.5347,0.43529,0.4451,0.71484
5.304,0.28117,0.52297,0.43922,0.44902,0.72461
5.312,0.27873,0.51124,0.43529,0.43922,0.7207
5.32,0.27628,0.49951,0.43922,0.43922,0.73047
5.328,0.27384,0.48876,0.42941,0.43922,0.73047
5.336,0.27139,0.47703,0.43922,0.43922,0.73438
5.344,0.2665,0.46628,0.43529,0.43529,0.73438
5.352,0.26161,0.45552,0.43922,0.42941,0.74414
5.36,0.25917,0.44673,0.4451,0.42549,0.75391
5.368,0.25428,0.43891,0.43529,0.42549,0.75977
5.376,0.25183,0.42913,0.43922,0.41569,0.78906
5.384,0.24694,0.41838,0.44902,0.4098,0.82031
5.392,0.2445,0.4086,0.46471,0.40392,0.85938
5.4,0.24205,0.39785,0.4902,0.4,0.90039
5.408,0.23961,0.38807,0.51569,0.3902,0.93945
5.416,0.23716,0.37732,0.53529,0.3902,0.98047
5.424,0.23472,0.36755,0.55098,0.3902,1.0039
5.432,0.23227,0.35777,0.57059,0.39412,1.0254
5.44,0.22983,0.34897,0.58039,0.40392,1.0137
5.448,0.22983,0.3392,0.58039,0.42549,0.99414
5.456,0.22738,0.3304,0.57059,0.44902,0.95508
5.464,0.22738,0.32356,0.5549,0.47451,0.89453
5.472,0.22494,0.31769,0.53529,0.49412,0.83398
5.48,0.22494,0.30987,0.51961,0.51961,0.78516
5.488,0.22249,0.30205,0.50588,0.52941,0.74023
5.496,0.22005,0.29326,0.5,0.53922,0.70898
5.504,0.22005,0.28446,0.5,0.5549,0.69531
5.512,0.2176,0.27664,0.50588,0.58431,0.70508
5.52,0.21516,0.26979,0.5098,0.61569,0.72461
5.528,0.21271,0.26295,0.50588,0.62549,0.71484
5.536,0.21027,0.25806,0.50588,0.6098,0.73047
5.544,0.20782,0.25611,0.5,0.58431,0.75977
5.552,0.20293,0.25904,0.5,0.51961,0.7793
5.56,0.20049,0.26784,0.5,0.48431,0.77539
5.568,0.19804,0.27957,0.5,0.48431,0.78516
5.576,0.1956,0.29717,0.5,0.48039,0.7793
5.584,0.19315,0.3216,0.4902,0.48431,0.76562
5.592,0.19071,0.35093,0.47451,0.49412,0.73047
5.6,0.18826,0.38416,0.46078,0.51569,0.66992
5.608,0.18337,0.42033,0.43529,0.52941,0.60938
5.616,0.18093,0.4565,0.42941,0.53529,0.57422
5.624,0.17604,0.49169,0.42549,0.52941,0.57031
5.632,0.17359,0.52395,0.42549,0.52941,0.55469
5.64,0.1687,0.55327,0.42549,0.52941,0.55469
5.648,0.16626,0.57967,0.42941,0.52941,0.54492
5.656,0.16137,0.60313,0.42941,0.52941,0.54492
5.664,0.15648,0.62366,0.43529,0.52549,0.55078
5.672,0.15159,0.64027,0.42941,0.52549,0.55078
5.68,0.1467,0.65298,0.42941,0.52941,0.54492
5.688,0.14181,0.66667,0.4098,0.6098,0.57031
5.696,0.13447,0.67937,0.41569,0.6902,0.58984
5.704,0.12714,0.69013,0.52941,0.74118,0.69922
5.712,0.1198,0.69795,0.76078,0.82157,0.7207
5.72,0.11491,0.70479,1.002,0.93725,0.4043
5.728,0.10758,0.70772,1.0314,0.86078,-0.13477
5.736,0.10269,0.7087,0.43922,0.78039,-0.4082
5.744,0.0978,0.70674,0.04902,0.7902,-0.33984
5.752,0.09291,0.70186,-0.015686,0.56471,-0.28516
5.76,0.08802,0.69404,0.033333,0.31373,-0.13477
5.768,0.08313,0.68328,0.1549,0.22353,0.16992
5.776,0.07824,0.67058,0.28431,0.26863,0.4707
5.784,0.07335,0.65787,0.37451,0.38039,0.63477
5.792,0.06846,0.64418,0.40392,0.42941,0.67969
5.8,0.06357,0.62854,0.42941,0.43922,0.69922
5.808,0.05868,0.61193,0.42549,0.44902,0.69531
5.816,0.051345,0.59629,0.42941,0.4451,0.70898
5.824,0.04401,0.58065,0.42941,0.44902,0.7207
5.832,0.036675,0.56598,0.43529,0.44902,0.73047
5.84,0.02934,0.55327,0.43529,0.44902,0.73047
5.848,0.01956,0.54057,0.43529,0.4451,0.73438
5.856,0.012225,0.52884,0.43922,0.43922,0.74023
5.864,0.002445,0.51711,0.4451,0.43922,0.75
5.872,-0.007335,0.50635,0.43922,0.43922,0.75391
5.88,-0.017115,0.4956,0.44902,0.43529,0.75977
5.888,-0.026895,0.4868,0.43922,0.43529,0.76562
5.896,-0.036675,0.47801,0.43922,0.43529,0.77539
5.904,-0.046455,0.46823,0.43922,0.43529,0.7793
5.912,-0.05379,0.45846,0.4451,0.41961,0.79492
5.92,-0.06357,0.44868,0.44902,0.41569,0.82031
5.928,-0.07335,0.43891,0.4451,0.41569,0.84961
5.936,-0.08313,0.42913,0.47451,0.4,0.90039
5.944,-0.090465,0.41935,0.49412,0.39412,0.94531
5.952,-0.0978,0.4086,0.51961,0.3902,0.99023
5.96,-0.10513,0.39785,0.5451,0.38431,1.0195
5.968,-0.11002,0.38807,0.56078,0.38431,1.0391
5.976,-0.11491,0.37732,0.57059,0.3902,1.0488
5.984,-0.1198,0.36755,0.58039,0.4098,1.0547
5.992,-0.12469,0.35973,0.57451,0.42941,1.0137
6,-0.12958,0.35288,0.57059,0.4549,0.96875
6.008,-0.13447,0.34506,0.55098,0.48039,0.9043
6.016,-0.13692,0.33724,0.52941,0.50588,0.83398
6.024,-0.14181,0.32845,0.5098,0.52549,0.7793
6.032,-0.14425,0.32063,0.5,0.53529,0.74414
6.04,-0.14914,0.31183,0.5,0.53922,0.70898
6.048,-0.15159,0.30303,0.5,0.5549,0.69531
6.056,-0.15648,0.29423,0.4902,0.56471,0.68555
6.064,-0.16137,0.28543,0.5,0.59608,0.70898
6.072,-0.16626,0.27859,0.5,0.61961,0.72461
6.08,-0.1687,0.27175,0.5,0.62549,0.73438
6.088,-0.17115,0.26882,0.5,0.61569,0.74414
6.096,-0.17604,0.26882,0.5,0.57059,0.77539
6.104,-0.17848,0.27273,0.50588,0.5098,0.7793
6.112,-0.18093,0.2825,0.5,0.48431,0.79883
6.12,-0.18337,0.29717,0.5,0.48431,0.81055
6.128,-0.18582,0.31867,0.49412,0.48039,0.78906
6.136,-0.18826,0.34506,0.48039,0.48431,0.75391
6.144,-0.18826,0.37537,0.47059,0.5,0.69922
6.152,-0.19071,0.4086,0.4451,0.52549,0.63477
6.16,-0.19315,0.44086,0.43922,0.53529,0.5957
6.168,-0.19315,0.47312,0.43529,0.52941,0.57031
6.176,-0.1956,0.50342,0.43529,0.52941,0.56445
6.184,-0.1956,0.53177,0.42941,0.52941,0.56445
6.192,-0.1956,0.55718,0.42549,0.53529,0.55469
6.2,-0.1956,0.57674,0.42549,0.52941,0.54492
6.208,-0.1956,0.59238,0.42549,0.52941,0.54492
6.216,-0.1956,0.60802,0.42549,0.52549,0.54492
6.224,-0.1956,0.62268,0.42941,0.51961,0.55078
6.232,-0.1956,0.63636,0.43529,0.5451,0.56445
6.24,-0.1956,0.64712,0.4098,0.63529,0.58008
6.248,-0.1956,0.65591,0.43922,0.7098,0.6543
6.256,-0.1956,0.66276,0.59608,0.7549,0.75391
6.264,-0.19315,0.66764,0.83137,0.85098,0.7207
6.272,-0.19315,0.6696,1.002,0.90196,0.23047
6.28,-0.19315,0.6696,0.75098,0.8451,-0.31445
6.288,-0.19315,0.66569,0.26471,0.83137,-0.45312
6.296,-0.19071,0.65982,0.0039216,0.78039,-0.32422
6.304,-0.19071,0.652,-0.015686,0.5451,-0.23438
6.312,-0.18826,0.64223,0.052941,0.31373,-0.058594
6.32,-0.18582,0.62952,0.17843,0.24902,0.26562
6.328,-0.18337,0.61584,0.3098,0.3098,0.53516
6.336,-0.18093,0.6002,0.38431,0.39412,0.63477
6.344,-0.17848,0.58456,0.4098,0.42549,0.67578
6.352,-0.17359,0.56989,0.42549,0.43922,0.68555
6.36,-0.17359,0.55621,0.42941,0.4451,0.69531
6.368,-0.17115,0.54252,0.42549,0.4451,0.69531
6.376,-0.17115,0.52981,0.42941,0.4451,0.70508
6.384,-0.17115,0.51906,0.42941,0.44902,0.70898
6.392,-0.17359,0.50831,0.42941,0.44902,0.71484
6.4,-0.17359,0.49853,0.43529,0.4451,0.72461
6.408,-0.17604,0.48974,0.43529,0.43529,0.7207
6.416,-0.17848,0.48289,0.43529,0.43529,0.73047
6.424,-0.18337,0.4741,0.42941,0.43529,0.74023
6.432,-0.18582,0.46432,0.43529,0.42941,0.75
6.44,-0.18826,0.45455,0.43529,0.42549,0.75
6.448,-0.19315,0.44477,0.44902,0.41569,0.76953
6.456,-0.1956,0.435,0.44902,0.41569,0.78906
6.464,-0.20049,0.4262,0.44902,0.40392,0.80469
6.472,-0.20293,0.41642,0.44902,0.39412,0.82422
6.48,-0.20782,0.40665,0.46471,0.3902,0.85938
6.488,-0.21027,0.39687,0.48431,0.37451,0.90039
6.496,-0.21271,0.38807,0.50588,0.36471,0.95898
6.504,-0.21516,0.3783,0.52549,0.3549,0.99414
6.512,-0.2176,0.3695,0.55098,0.34902,1.0391
6.52,-0.22005,0.36168,0.57059,0.3549,1.0586
6.528,-0.22005,0.35582,0.58431,0.35882,1.0703
6.536,-0.22005,0.348,0.5902,0.37451,1.0801
6.544,-0.22249,0.34018,0.58039,0.4,1.0098
6.552,-0.22249,0.33236,0.56471,0.42941,0.95508
6.56,-0.22249,0.32356,0.5451,0.46471,0.90039
6.568,-0.22249,0.31574,0.52549,0.49412,0.83008
6.576,-0.22494,0.30792,0.50588,0.52549,0.7793
6.584,-0.22494,0.3001,0.49412,0.53922,0.74023
6.592,-0.22494,0.29228,0.48431,0.5549,0.69922
6.6,-0.22494,0.28446,0.48431,0.56078,0.68945
6.608,-0.22494,0.27566,0.48039,0.58431,0.68945
6.616,-0.22249,0.27077,0.4902,0.61569,0.70898
6.624,-0.22249,0.26686,0.48431,0.64118,0.73047
6.632,-0.22249,0.26295,0.49412,0.62549,0.72461
6.64,-0.22005,0.261,0.4902,0.6098,0.75
6.648,-0.22005,0.26295,0.49412,0.56078,0.78906
6.656,-0.2176,0.26882,0.4902,0.50588,0.7793
6.664,-0.21516,0.28152,0.49412,0.5,0.79492
6.672,-0.21516,0.3001,0.48431,0.50588,0.80469
6.68,-0.21271,0.32454,0.48039,0.49412,0.7793
6.688,-0.21271,0.35484,0.46471,0.5098,0.74414
6.696,-0.21027,0.3871,0.44902,0.52549,0.69531
6.704,-0.21027,0.42131,0.42941,0.55098,0.625
6.712,-0.21027,0.45552,0.42549,0.55098,0.58398
6.72,-0.20782,0.48876,0.42549,0.5549,0.57422
6.728,-0.20538,0.51613,0.42549,0.5451,0.57031
6.736,-0.20538,0.53861,0.42549,0.5451,0.56445
6.744,-0.20293,0.56109,0.42549,0.5451,0.56055
6.752,-0.20049,0.58162,0.42549,0.55098,0.53906
6.76,-0.19804,0.6002,0.41961,0.5451,0.53906
6.768,-0.1956,0.61681,0.42549,0.53529,0.54492
6.776,-0.19315,0.63148,0.42549,0.53529,0.53516
6.784,-0.19071,0.64321,0.41569,0.5902,0.56055
6.792,-0.18582,0.65298,0.40392,0.6902,0.57422
6.8,-0.18337,0.6608,0.46471,0.73529,0.69531
6.808,-0.18093,0.66667,0.65098,0.7902,0.76562
6.816,-0.17604,0.6696,0.88039,0.90588,0.64062
6.824,-0.17359,0.67058,0.96078,0.92157,0.054688
6.832,-0.1687,0.66862,0.5902,0.81569,-0.41992
6.84,-0.16381,0.66471,0.16471,0.82549,-0.45312
6.848,-0.15892,0.65885,0.013725,0.72549,-0.28906
6.856,-0.15159,0.65103,0.0078431,0.48039,-0.20508
6.864,-0.1467,0.64027,0.094118,0.3,0.035156
6.872,-0.14181,0.62854,0.21961,0.27451,0.34961
6.88,-0.13447,0.61486,0.32353,0.36471,0.57031
6.888,-0.12958,0.6002,0.38039,0.43922,0.64453
6.896,-0.12469,0.58651,0.40392,0.46078,0.66406
6.904,-0.12225,0.57283,0.4098,0.47059,0.67969
6.912,-0.11736,0.56012,0.41961,0.47059,0.68555
6.92,-0.11491,0.54741,0.42549,0.47059,0.69531
6.928,-0.11247,0.53666,0.41961,0.47059,0.68945
6.936,-0.11247,0.52786,0.42549,0.46078,0.68945
6.944,-0.11247,0.52004,0.42549,0.46078,0.70508
6.952,-0.11002,0.51124,0.42941,0.46078,0.70898
6.96,-0.11002,0.50147,0.42549,0.46078,0.71484
6.968,-0.11002,0.49267,0.42549,0.46078,0.72461
6.976,-0.11002,0.48289,0.42941,0.4549,0.73047
6.984,-0.10758,0.4741,0.42549,0.44902,0.73438
6.992,-0.10758,0.4653,0.42549,0.4451,0.74023
7,-0.10758,0.45552,0.42549,0.43922,0.75
7.008,-0.10758,0.44575,0.42549,0.43529,0.76562
7.016,-0.11002,0.43597,0.43922,0.41961,0.78906
7.024,-0.11002,0.4262,0.4451,0.40392,0.82031
7.032,-0.11247,0.41642,0.46078,0.39412,0.86914
7.04,-0.11247,0.4086,0.47451,0.38431,0.91016
7.048,-0.11491,0.40078,0.5,0.37451,0.95898
7.056,-0.11491,0.39296,0.51961,0.37059,1.0098
7.064,-0.11491,0.38416,0.53922,0.36471,1.0391
7.072,-0.11491,0.37439,0.5549,0.36471,1.0547
7.08,-0.11736,0.36559,0.57059,0.37451,1.0645
7.088,-0.11736,0.35679,0.57451,0.3902,1.0449
7.096,-0.11736,0.348,0.57059,0.41569,1
7.104,-0.11491,0.34018,0.55098,0.44902,0.93555
7.112,-0.11491,0.33236,0.52941,0.48039,0.86523
7.12,-0.11247,0.32454,0.51569,0.50588,0.79492
7.128,-0.11002,0.31672,0.5,0.52941,0.74023
7.136,-0.11002,0.30987,0.48431,0.53922,0.70508
7.144,-0.10758,0.30401,0.47451,0.5549,0.66992
7.152,-0.10513,0.29912,0.47451,0.57059,0.66992
7.16,-0.10269,0.29326,0.47451,0.5902,0.67578
7.168,-0.10024,0.28641,0.48431,0.61961,0.69922
7.176,-0.0978,0.27957,0.4902,0.62549,0.70898
7.184,-0.095355,0.27468,0.48431,0.62549,0.69922
7.192,-0.090465,0.27175,0.4902,0.60588,0.74023
7.2,-0.085575,0.27468,0.48431,0.55098,0.75391
7.208,-0.080685,0.28348,0.48431,0.50588,0.76562
7.216,-0.075795,0.29912,0.4902,0.4902,0.7793
7.224,-0.070905,0.3216,0.4902,0.48431,0.77539
7.232,-0.066015,0.35093,0.48039,0.4902,0.75977
7.24,-0.061125,0.38416,0.47059,0.5,0.72461
7.248,-0.056235,0.41642,0.46078,0.51569,0.67578
7.256,-0.0489,0.44673,0.43922,0.52941,0.60938
7.264,-0.04401,0.48094,0.43529,0.53529,0.57031
7.272,-0.03912,0.51417,0.43922,0.53529,0.55078
7.28,-0.03423,0.54643,0.42941,0.52941,0.53906
7.288,-0.026895,0.57674,0.42941,0.52941,0.5293
7.296,-0.022005,0.60215,0.42941,0.52941,0.53516
7.304,-0.017115,0.62561,0.42941,0.53529,0.5293
7.312,-0.00978,0.64516,0.42941,0.52941,0.52539
7.32,-0.00489,0.66178,0.42941,0.52941,0.51953
7.328,0,0.67742,0.42941,0.52941,0.51953
7.336,0.00489,0.69013,0.41569,0.59608,0.55078
7.344,0.00978,0.6999,0.41961,0.68627,0.58398
7.352,0.012225,0.70674,0.50588,0.73529,0.71484
7.36,0.017115,0.71163,0.7098,0.8,0.75977
7.368,0.022005,0.71457,0.94118,0.91569,0.55469
7.376,0.026895,0.71554,1.002,0.87647,-0.039062
7.384,0.031785,0.71359,0.52941,0.8,-0.44922
7.392,0.036675,0.7087,0.12941,0.80588,-0.4043
7.4,0.041565,0.70186,0.017647,0.6451,-0.31445
7.408,0.046455,0.6911,0.043137,0.3902,-0.20508
7.416,0.05379,0.67937,0.12941,0.2549,0.070312
7.424,0.061125,0.66569,0.26471,0.2451,0.38086
7.432,0.066015,0.65103,0.36471,0.37059,0.57031
7.44,0.07335,0.63539,0.4,0.42549,0.625
7.448,0.07824,0.61975,0.41961,0.43922,0.64453
7.456,0.085575,0.60704,0.42549,0.44902,0.66016
7.464,0.090465,0.59531,0.43529,0.44902,0.66406
7.472,0.095355,0.58358,0.43922,0.44902,0.66406
7.48,0.0978,0.57185,0.43529,0.4549,0.67578
7.488,0.10024,0.56012,0.43922,0.44902,0.67969
7.496,0.10269,0.54936,0.4451,0.4549,0.68555
7.504,0.10513,0.53959,0.43922,0.4451,0.68945
7.512,0.10513,0.52884,0.4451,0.4451,0.69531
7.52,0.10513,0.51906,0.43922,0.44902,0.70508
7.528,0.10269,0.50831,0.43529,0.44902,0.70898
7.536,0.10269,0.49853,0.43922,0.43922,0.7207
7.544,0.10269,0.48778,0.43922,0.43529,0.73047
7.552,0.10269,0.47605,0.43529,0.43529,0.74023
7.56,0.10269,0.46725,0.43529,0.43529,0.75391
7.568,0.10269,0.45846,0.44902,0.41961,0.77539
7.576,0.10269,0.44966,0.44902,0.4098,0.80469
7.584,0.10269,0.43891,0.47059,0.39412,0.84961
7.592,0.10269,0.42913,0.4902,0.38431,0.88867
7.6,0.10513,0.41935,0.51569,0.37451,0.93555
7.608,0.10513,0.40958,0.52941,0.36471,0.96875
7.616,0.10758,0.3998,0.55098,0.36471,1.0039
7.624,0.10758,0.39003,0.57059,0.36471,1.0195
7.632,0.11002,0.38025,0.58039,0.38039,1.0254
7.64,0.11002,0.37146,0.5902,0.39412,1
7.648,0.11247,0.36266,0.57059,0.42941,0.95898
7.656,0.11491,0.35386,0.56078,0.46078,0.90039
7.664,0.11736,0.34506,0.53922,0.48431,0.83984
7.672,0.1198,0.33822,0.51961,0.50588,0.77539
7.68,0.12225,0.33333,0.50588,0.52549,0.7207
7.688,0.12225,0.32551,0.49412,0.53529,0.67969
7.696,0.12469,0.31769,0.49412,0.5451,0.66406
7.704,0.12469,0.30987,0.49412,0.56078,0.66016
7.712,0.12714,0.30205,0.5,0.58431,0.66406
7.72,0.12714,0.29521,0.5,0.61961,0.68555
7.728,0.12958,0.28837,0.50588,0.62549,0.69531
7.736,0.12958,0.28446,0.5,0.6098,0.70508
7.744,0.13203,0.28543,0.5,0.58431,0.73047
7.752,0.13203,0.29326,0.5,0.51961,0.74023
7.76,0.13203,0.30694,0.5,0.4902,0.74414
7.768,0.13447,0.32845,0.5,0.48431,0.75391
7.776,0.13447,0.35288,0.5,0.48431,0.75977
7.784,0.13692,0.37928,0.4902,0.48431,0.73047
7.792,0.13936,0.41349,0.47451,0.5,0.68945
7.8,0.14181,0.45064,0.46078,0.52549,0.62891
7.808,0.14425,0.48876,0.43922,0.53922,0.57031
7.816,0.14425,0.52493,0.43922,0.52941,0.53516
7.824,0.1467,0.55914,0.43529,0.52941,0.52539
7.832,0.14914,0.59042,0.4451,0.52941,0.51953
7.84,0.15159,0.61877,0.4451,0.52941,0.51953
7.848,0.15648,0.64418,0.4451,0.52941,0.51953
7.856,0.15892,0.66667,0.43922,0.52941,0.50977
7.864,0.16137,0.68719,0.43922,0.52549,0.50586
7.872,0.16381,0.70577,0.43529,0.51961,0.5
7.88,0.16626,0.71945,0.43529,0.52941,0.50977
7.888,0.1687,0.72923,0.41961,0.6098,0.53516
7.896,0.17115,0.73998,0.42941,0.69608,0.57422
7.904,0.17359,0.74976,0.5549,0.73137,0.69531
7.912,0.17604,0.7566,0.78039,0.82549,0.71484
7.92,0.17848,0.76149,1.0118,0.93137,0.39453
7.928,0.18093,0.76442,1.0412,0.84118,-0.13867
7.936,0.18582,0.76442,0.43922,0.76078,-0.39844
7.944,0.18826,0.76051,0.068627,0.76667,-0.34961
7.952,0.19315,0.75367,0.0078431,0.52941,-0.31445
7.96,0.19804,0.74291,0.058824,0.2902,-0.16992
7.968,0.20293,0.73118,0.16863,0.21373,0.15625
7.976,0.20782,0.71554,0.29412,0.26863,0.43945
7.984,0.21271,0.70088,0.37451,0.38431,0.59961
7.992,0.21516,0.68622,0.40392,0.42549,0.63477
8,0.22005,0.6696,0.42549,0.43529,0.6543
8.008,0.22249,0.65396,0.43922,0.43922,0.66992
8.016,0.22494,0.63734,0.43922,0.43922,0.67578
8.024,0.22738,0.6217,0.43922,0.4451,0.67969
8.032,0.22983,0.60704,0.43922,0.43922,0.68555
8.04,0.22983,0.59335,0.43922,0.4451,0.68555
8.048,0.23227,0.57967,0.43922,0.43922,0.69531
8.056,0.23227,0.56794,0.43922,0.43529,0.69922
8.064,0.23227,0.55523,0.4451,0.43529,0.70508
8.072,0.23227,0.5435,0.43922,0.43529,0.70898
8.08,0.22983,0.53275,0.44902,0.43529,0.71484
8.088,0.22983,0.52297,0.4451,0.42941,0.7207
8.096,0.22738,0.51417,0.4451,0.42549,0.73047
8.104,0.22738,0.5044,0.44902,0.41961,0.74023
8.112,0.22494,0.49267,0.44902,0.41569,0.75391
8.12,0.22494,0.48192,0.44902,0.4098,0.77539
8.128,0.22249,0.47116,0.47059,0.4,0.81445
8.136,0.22249,0.46041,0.47451,0.39412,0.84961
8.144,0.22249,0.44868,0.49412,0.3902,0.88867
8.152,0.22249,0.43793,0.51569,0.3902,0.93555
8.16,0.22005,0.4262,0.53922,0.3902,0.95898
8.168,0.22005,0.41544,0.5549,0.38431,0.98438
8.176,0.22005,0.40469,0.57059,0.3902,1
8.184,0.22005,0.39296,0.5902,0.39412,1.0039
8.192,0.22249,0.38416,0.5902,0.4098,0.96875
8.2,0.22249,0.37634,0.58431,0.43529,0.92383
8.208,0.22494,0.36755,0.57059,0.46078,0.85938
8.216,0.22494,0.35875,0.5451,0.48431,0.80469
8.224,0.22494,0.34995,0.53529,0.50588,0.74414
8.232,0.22738,0.34115,0.51569,0.51569,0.69922
8.24,0.22738,0.33236,0.50588,0.51961,0.66406
8.248,0.22738,0.32356,0.5,0.51961,0.63477
8.256,0.22738,0.31378,0.49412,0.51961,0.61523
8.264,0.22738,0.30499,0.5,0.52941,0.61914
8.272,0.22738,0.29717,0.5,0.5549,0.64062
8.28,0.22738,0.2913,0.5098,0.58039,0.66992
8.288,0.22738,0.29032,0.51569,0.60588,0.68555
8.296,0.22494,0.29228,0.51569,0.6,0.69531
8.304,0.22494,0.3001,0.5098,0.5902,0.7207
8.312,0.22249,0.31476,0.51569,0.5451,0.75
8.32,0.22249,0.33529,0.5098,0.4902,0.75391
8.328,0.22494,0.36168,0.51569,0.47451,0.76562
8.336,0.22494,0.39394,0.51961,0.46471,0.77539
8.344,0.22494,0.43011,0.5098,0.46471,0.75
8.352,0.22494,0.46725,0.49412,0.47451,0.71484
8.36,0.22738,0.50538,0.48039,0.4902,0.66016
8.368,0.22738,0.54154,0.46471,0.5098,0.5957
8.376,0.22738,0.57478,0.46078,0.5098,0.55469
8.384,0.22983,0.60606,0.4549,0.51569,0.53906
8.392,0.22983,0.63343,0.44902,0.5098,0.52539
8.4,0.23227,0.65494,0.44902,0.50588,0.51953
8.408,0.23472,0.67253,0.4451,0.50588,0.51953
8.416,0.23716,0.6911,0.44902,0.50588,0.50977
8.424,0.23716,0.7087,0.4451,0.5,0.50977
8.432,0.23961,0.72532,0.4549,0.49412,0.51562
8.44,0.24205,0.73998,0.4549,0.49412,0.51562
8.448,0.2445,0.75269,0.4451,0.5451,0.53906
8.456,0.2445,0.76246,0.43922,0.6451,0.56445
8.464,0.24694,0.76931,0.51569,0.7,0.66992
8.472,0.24939,0.77419,0.71569,0.76078,0.73438
8.48,0.25183,0.77615,0.97059,0.89608,0.5957
8.488,0.25428,0.77419,1.0608,0.90588,0.044922
8.496,0.25672,0.76931,0.66078,0.77059,-0.34375
8.504,0.25917,0.76246,0.18431,0.76667,-0.375
8.512,0.26406,0.75269,0.029412,0.61569,-0.30859
8.52,0.2665,0.73998,0.04902,0.3451,-0.22852
8.528,0.26895,0.72532,0.13922,0.18824,0.025391
8.536,0.27139,0.7087,0.26863,0.17843,0.35547
8.544,0.27628,0.6911,0.37451,0.3098,0.58008
8.552,0.27873,0.67351,0.42549,0.38431,0.6543
8.56,0.28362,0.65494,0.44902,0.39412,0.66992
8.568,0.28606,0.63636,0.46078,0.40392,0.68555
8.576,0.28851,0.61975,0.47059,0.4098,0.68945
8.584,0.28851,0.60411,0.47059,0.40392,0.69531
8.592,0.29095,0.58944,0.47059,0.40392,0.69922
8.6,0.29095,0.57576,0.47451,0.4,0.70898
8.608,0.29095,0.56403,0.47451,0.3902,0.70898
8.616,0.29095,0.55327,0.48039,0.3902,0.71484
8.624,0.29095,0.54252,0.48039,0.3902,0.70898
8.632,0.29095,0.53177,0.48039,0.3902,0.7207
8.64,0.29095,0.52004,0.47451,0.3902,0.72461
8.648,0.28851,0.50831,0.47451,0.3902,0.73047
8.656,0.28851,0.49658,0.47451,0.38431,0.73438
8.664,0.28606,0.48485,0.47451,0.38431,0.75
8.672,0.28606,0.4741,0.47451,0.37451,0.75977
8.68,0.28362,0.46237,0.47451,0.37451,0.77539
8.688,0.28117,0.45064,0.47451,0.36471,0.79883
8.696,0.27628,0.43793,0.5,0.36471,0.84375
8.704,0.27384,0.4262,0.51961,0.35882,0.87891
8.712,0.27139,0.41642,0.5451,0.34902,0.91992
8.72,0.26895,0.4086,0.56078,0.3451,0.95508
8.728,0.2665,0.39883,0.58431,0.3451,0.98438
8.736,0.26406,0.38807,0.6,0.3451,1.0039
8.744,0.26406,0.3783,0.61569,0.34902,1.0137
8.752,0.26161,0.36852,0.61961,0.36471,0.99414
8.76,0.26161,0.35875,0.62549,0.3902,0.95898
8.768,0.26406,0.34897,0.6098,0.41569,0.91016
8.776,0.26406,0.34018,0.59608,0.43529,0.84961
8.784,0.26406,0.33138,0.57451,0.46078,0.78906
8.792,0.26406,0.32258,0.56078,0.47451,0.74023
8.8,0.26406,0.31281,0.5451,0.48431,0.69922
8.808,0.26406,0.30401,0.53529,0.4902,0.66406
8.816,0.26406,0.29423,0.53529,0.49412,0.65039
8.824,0.26406,0.28739,0.5451,0.50588,0.66016
8.832,0.26161,0.28152,0.55098,0.52941,0.67969
8.84,0.26161,0.27566,0.5451,0.56078,0.70508
8.848,0.26161,0.27273,0.5549,0.57059,0.70898
8.856,0.26161,0.27273,0.5549,0.56078,0.7207
8.864,0.25917,0.27957,0.5549,0.53922,0.75
8.872,0.25917,0.29228,0.55098,0.47451,0.76562
8.88,0.25917,0.31281,0.55098,0.43529,0.77539
8.888,0.25917,0.34018,0.55098,0.43529,0.78516
8.896,0.25917,0.37341,0.5451,0.43529,0.7793
8.904,0.25917,0.41056,0.53529,0.43529,0.75391
8.912,0.26161,0.44868,0.51961,0.4451,0.71484
8.92,0.26161,0.4868,0.50588,0.47059,0.65039
8.928,0.26161,0.52004,0.49412,0.48431,0.5957
8.936,0.26161,0.54839,0.4902,0.48431,0.56055
8.944,0.26161,0.57869,0.48431,0.48431,0.55078
8.952,0.26161,0.60704,0.48431,0.47451,0.53516
8.96,0.26161,0.63343,0.48431,0.47451,0.5293
8.968,0.26406,0.65787,0.4902,0.47059,0.52539
8.976,0.2665,0.67937,0.48431,0.47059,0.52539
8.984,0.26895,0.6999,0.49412,0.47451,0.5293
8.992,0.26895,0.7175,0.4902,0.46078,0.52539
9,0.27139,0.73314,0.5,0.47059,0.5293
9.008,0.27139,0.74682,0.47451,0.56078,0.55078
9.016,0.27384,0.75855,0.4902,0.64118,0.58984
9.024,0.27384,0.76735,0.61569,0.68627,0.69922
9.032,0.27628,0.77224,0.8451,0.78627,0.70898
9.04,0.27628,0.77322,1.0765,0.8902,0.3457
9.048,0.27873,0.77224,1.0961,0.7902,-0.17383
9.056,0.28117,0.76833,0.46078,0.7098,-0.38477
9.064,0.28362,0.76149,0.10392,0.67647,-0.31836
9.072,0.28362,0.75171,0.04902,0.46078,-0.28516
9.08,0.28606,0.739,0.098039,0.21961,-0.12891
9.088,0.28851,0.72434,0.23333,0.14902,0.19531
9.096,0.29095,0.7087,0.35882,0.2098,0.49023
9.104,0.2934,0.6911,0.43529,0.32353,0.62891
9.112,0.29584,0.67449,0.47451,0.35882,0.66992
9.12,0.29584,0.65787,0.48431,0.37451,0.68555
9.128,0.29829,0.64125,0.4902,0.38039,0.69531
9.136,0.29829,0.62659,0.49412,0.38431,0.69922
9.144,0.29829,0.6129,0.5,0.38039,0.71484
9.152,0.29829,0.59824,0.5,0.38431,0.70898
9.16,0.29829,0.58456,0.5,0.38039,0.71484
9.168,0.29829,0.57087,0.5098,0.38039,0.72461
9.176,0.29584,0.55914,0.50588,0.37451,0.72461
9.184,0.2934,0.54741,0.5098,0.37451,0.73438
9.192,0.29095,0.53568,0.51569,0.37059,0.73438
9.2,0.28851,0.52395,0.50588,0.37059,0.73438
9.208,0.28362,0.51124,0.5,0.36471,0.74414
9.216,0.28117,0.49951,0.50588,0.36471,0.75
9.224,0.27628,0.48778,0.50588,0.36471,0.76562
9.232,0.27139,0.47605,0.51961,0.34902,0.7793
9.24,0.26895,0.46628,0.51569,0.3451,0.80469
9.248,0.26406,0.4565,0.52941,0.33922,0.83398
9.256,0.25917,0.44086,0.53922,0.33922,0.86914
9.264,0.25428,0.42131,0.56471,0.32941,0.91406
9.272,0.25183,0.40665,0.58431,0.32353,0.95508
9.28,0.24939,0.39296,0.6098,0.32353,0.98438
9.288,0.24694,0.38123,0.61961,0.32353,1.0098
9.296,0.2445,0.37048,0.64118,0.33922,1.0195
9.304,0.24205,0.35973,0.64118,0.34902,1.0137
9.312,0.24205,0.34995,0.65098,0.36471,0.98438
9.32,0.24205,0.34018,0.64118,0.38431,0.93945
9.328,0.24205,0.3304,0.62549,0.40392,0.88477
9.336,0.24205,0.3216,0.6098,0.42941,0.82422
9.344,0.24205,0.31378,0.5902,0.4451,0.76953
9.352,0.24205,0.30792,0.57451,0.46078,0.7207
9.36,0.23961,0.3001,0.56471,0.46471,0.68555
9.368,0.23716,0.29228,0.5549,0.47451,0.66406
9.376,0.23472,0.28348,0.56471,0.47451,0.6543
9.384,0.23227,0.27566,0.57059,0.48431,0.66992
9.392,0.22738,0.26784,0.57451,0.51569,0.69531
9.4,0.22494,0.26197,0.57059,0.55098,0.71484
9.408,0.22249,0.25904,0.57451,0.5549,0.7207
9.416,0.22005,0.26002,0.57059,0.53922,0.73438
9.424,0.22005,0.26686,0.57451,0.5098,0.77539
9.432,0.2176,0.27957,0.57059,0.4451,0.7793
9.44,0.2176,0.29912,0.57059,0.41569,0.78906
9.448,0.21516,0.3216,0.57059,0.41569,0.79492
9.456,0.21516,0.34604,0.56078,0.4098,0.77539
9.464,0.21516,0.37732,0.55098,0.41569,0.75
9.472,0.21516,0.41153,0.53529,0.42941,0.69922
9.48,0.21516,0.4477,0.51569,0.44902,0.63477
9.488,0.21516,0.48289,0.50588,0.46078,0.58398
9.496,0.21516,0.51613,0.50588,0.44902,0.55469
9.504,0.21516,0.54643,0.5,0.4549,0.54492
9.512,0.21516,0.5738,0.5,0.4549,0.53516
9.52,0.2176,0.59922,0.5,0.44902,0.5293
9.528,0.2176,0.62072,0.5,0.44902,0.5293
9.536,0.2176,0.64027,0.5,0.43922,0.52539
9.544,0.2176,0.65689,0.5,0.44902,0.5293
9.552,0.22005,0.6696,0.5,0.4451,0.5293
9.56,0.22005,0.67937,0.49412,0.47451,0.53906
9.568,0.22005,0.68817,0.47451,0.57059,0.56055
9.576,0.22005,0.69697,0.5098,0.64118,0.625
9.584,0.22249,0.70283,0.67059,0.7,0.70898
9.592,0.22249,0.70674,0.91176,0.82157,0.66016
9.6,0.22249,0.70772,1.0961,0.87647,0.18555
9.608,0.22249,0.70577,0.84118,0.77059,-0.2793
9.616,0.22494,0.70088,0.33529,0.72549,-0.38477
9.624,0.22494,0.69306,0.062745,0.6451,-0.30859
9.632,0.22738,0.68328,0.04902,0.39412,-0.25
9.64,0.22983,0.6696,0.12941,0.18431,-0.054688
9.648,0.23227,0.65494,0.26471,0.14314,0.29102
9.656,0.23227,0.64027,0.38039,0.23922,0.55078
9.664,0.23472,0.62659,0.4451,0.32941,0.66016
9.672,0.23716,0.61193,0.47059,0.36471,0.68555
9.68,0.23716,0.59629,0.48431,0.36471,0.69531
9.688,0.23716,0.58162,0.48431,0.37059,0.70898
9.696,0.23716,0.56598,0.49412,0.37451,0.72461
9.704,0.23716,0.5523,0.4902,0.38039,0.7207
9.712,0.23716,0.53959,0.5,0.37451,0.7207
9.72,0.23227,0.52688,0.5,0.37059,0.72461
9.728,0.22983,0.51515,0.5,0.37059,0.73047
9.736,0.22494,0.5044,0.5,0.37451,0.73438
9.744,0.22005,0.49365,0.5,0.37059,0.74023
9.752,0.21271,0.48289,0.5,0.36471,0.74414
9.76,0.20782,0.4741,0.49412,0.36471,0.74023
9.768,0.20049,0.4653,0.5,0.36471,0.75391
9.776,0.1956,0.45455,0.5,0.35882,0.77539
9.784,0.18826,0.44477,0.5,0.3549,0.78516
9.792,0.18093,0.43402,0.5,0.35882,0.79883
9.8,0.17359,0.42326,0.50588,0.3549,0.82422
9.808,0.16626,0.41251,0.51569,0.3451,0.85938
9.816,0.15892,0.40274,0.53529,0.33922,0.90039
9.824,0.15159,0.39198,0.56078,0.33529,0.93945
9.832,0.14425,0.38221,0.57451,0.33529,0.98047
9.84,0.13936,0.37243,0.5902,0.32941,1.0039
9.848,0.13203,0.36266,0.6098,0.33922,1.0254
9.856,0.12714,0.35288,0.62549,0.34902,1.0391
9.864,0.1198,0.34409,0.63529,0.35882,1.0293
9.872,0.11491,0.33627,0.62941,0.38039,0.99414
9.88,0.11247,0.32942,0.61961,0.40392,0.94922
9.888,0.10758,0.3216,0.6,0.43529,0.88477
9.896,0.10269,0.31378,0.58431,0.4549,0.82422
9.904,0.10024,0.30596,0.56471,0.47451,0.76953
9.912,0.095355,0.29717,0.55098,0.48431,0.72461
9.92,0.090465,0.28935,0.53922,0.48431,0.68945
9.928,0.085575,0.28055,0.53529,0.48431,0.66992
9.936,0.07824,0.27273,0.53529,0.4902,0.66406
9.944,0.07335,0.26393,0.5451,0.51569,0.67969
9.952,0.066015,0.25709,0.5451,0.55098,0.69922
9.96,0.05868,0.25122,0.5451,0.57451,0.72461
9.968,0.051345,0.25024,0.55098,0.57059,0.73438
9.976,0.04401,0.25318,0.5451,0.56078,0.74414
9.984,0.036675,0.261,0.53922,0.51961,0.7793
9.992,0.031785,0.27566,0.5451,0.4549,0.78516
10,0.02445,0.29619,0.5451,0.43529,0.79883
10.008,0.017115,0.32258,0.5451,0.43529,0.79492
10.016,0.012225,0.35386,0.53922,0.42549,0.79883
10.024,0.007335,0.38905,0.51961,0.43529,0.74414
10.032,0.002445,0.42522,0.5098,0.4549,0.69922
10.04,-0.002445,0.46041,0.4902,0.47451,0.62891
10.048,-0.00489,0.49365,0.48431,0.48039,0.58008
10.056,-0.00978,0.5259,0.47451,0.47451,0.56445
10.064,-0.012225,0.55523,0.48039,0.47059,0.55469
10.072,-0.017115,0.58065,0.47451,0.47059,0.54492
10.08,-0.01956,0.60117,0.48039,0.47059,0.53906
10.088,-0.02445,0.61877,0.47451,0.47059,0.53906
10.096,-0.026895,0.63539,0.48039,0.46471,0.53906
10.104,-0.031785,0.65103,0.48039,0.47451,0.54492
10.112,-0.03423,0.66471,0.48431,0.46471,0.54492
10.12,-0.03912,0.67742,0.46471,0.5098,0.55078
10.128,-0.041565,0.68719,0.4549,0.6098,0.57031
10.136,-0.046455,0.69501,0.5098,0.66471,0.66406
10.144,-0.0489,0.70088,0.6902,0.72157,0.74023
10.152,-0.05379,0.70283,0.93137,0.85098,0.63477
10.16,-0.05868,0.70186,1.0471,0.87647,0.089844
10.168,-0.061125,0.69795,0.7,0.77647,-0.375
10.176,-0.06357,0.6911,0.22941,0.76078,-0.43945
10.184,-0.066015,0.68231,0.033333,0.65098,-0.29492
10.192,-0.066015,0.67155,0.029412,0.4,-0.20898
10.2,-0.06846,0.65885,0.12353,0.21373,0.019531
10.208,-0.06846,0.64516,0.26471,0.18431,0.3457
10.216,-0.06846,0.62952,0.38431,0.28431,0.58008
10.224,-0.06846,0.61388,0.43922,0.36471,0.66016
10.232,-0.070905,0.59922,0.4549,0.38431,0.67969
10.24,-0.070905,0.58456,0.46078,0.4,0.69531
10.248,-0.07335,0.57087,0.47059,0.39412,0.70898
10.256,-0.075795,0.55718,0.47451,0.4,0.70898
10.264,-0.07824,0.54545,0.47059,0.39412,0.70898
10.272,-0.08313,0.53372,0.46471,0.39412,0.70898
10.28,-0.08802,0.52199,0.47059,0.4,0.71484
10.288,-0.09291,0.51222,0.46471,0.39412,0.7207
10.296,-0.10024,0.50342,0.47451,0.3902,0.73438
10.304,-0.10513,0.49365,0.47451,0.3902,0.73438
10.312,-0.11247,0.48387,0.47451,0.3902,0.74023
10.32,-0.1198,0.47312,0.47451,0.3902,0.75
10.328,-0.12714,0.46237,0.47451,0.38431,0.75977
10.336,-0.13447,0.45064,0.48039,0.38431,0.77539
10.344,-0.14181,0.43988,0.47451,0.37059,0.78906
10.352,-0.14914,0.42913,0.48431,0.36471,0.81445
10.36,-0.15648,0.41935,0.49412,0.3549,0.83398
10.368,-0.16137,0.4086,0.5,0.34902,0.875
10.376,-0.16626,0.39883,0.52549,0.33922,0.91406
10.384,-0.17115,0.38905,0.55098,0.33529,0.95508
10.392,-0.17604,0.38123,0.58039,0.31961,1
10.4,-0.18093,0.37341,0.5902,0.31961,1.0391
10.408,-0.18582,0.36559,0.6098,0.33922,1.0586
10.416,-0.19071,0.35582,0.62549,0.35882,1.0645
10.424,-0.19315,0.34702,0.62549,0.37059,1.0449
10.432,-0.1956,0.33822,0.61569,0.4098,1.0039
10.44,-0.20049,0.32942,0.59608,0.43529,0.94531
10.448,-0.20293,0.32063,0.58039,0.46078,0.88867
10.456,-0.20538,0.31281,0.5549,0.48431,0.83008
10.464,-0.20782,0.30401,0.5451,0.5098,0.76953
10.472,-0.21271,0.29619,0.51961,0.52549,0.73047
10.48,-0.21516,0.28739,0.52549,0.53922,0.70898
10.488,-0.2176,0.27957,0.51961,0.5549,0.70898
10.496,-0.22005,0.2737,0.52941,0.58039,0.7207
10.504,-0.22249,0.26784,0.52941,0.6098,0.74023
10.512,-0.22494,0.26197,0.52549,0.61961,0.74414
10.52,-0.22738,0.25709,0.52941,0.6,0.75
10.528,-0.22983,0.25415,0.52549,0.57059,0.77539
10.536,-0.23227,0.25513,0.53529,0.5,0.78516
10.544,-0.23472,0.26197,0.52549,0.48039,0.80469
10.552,-0.23472,0.27566,0.51961,0.47451,0.80469
10.56,-0.23716,0.29619,0.51961,0.47451,0.79492
10.568,-0.23716,0.32258,0.5098,0.48039,0.76562
10.576,-0.23961,0.35386,0.49412,0.4902,0.71484
10.584,-0.23961,0.38807,0.47451,0.51569,0.6543
10.592,-0.24205,0.42424,0.47059,0.51961,0.60547
10.6,-0.24205,0.45455,0.47451,0.51961,0.58398
10.608,-0.24205,0.48289,0.47059,0.51569,0.57031
10.616,-0.2445,0.51124,0.46471,0.5098,0.56055
10.624,-0.2445,0.53861,0.46078,0.5098,0.55078
10.632,-0.2445,0.56403,0.46471,0.5098,0.56055
10.64,-0.2445,0.58749,0.46078,0.51569,0.55469
10.648,-0.2445,0.60704,0.46078,0.51569,0.55078
10.656,-0.2445,0.62366,0.4549,0.51569,0.55078
10.664,-0.24694,0.63832,0.44902,0.52941,0.54492
10.672,-0.24939,0.65103,0.42941,0.62549,0.56445
10.68,-0.25183,0.66178,0.46078,0.69608,0.62891
10.688,-0.25428,0.6696,0.60588,0.73529,0.74023
10.696,-0.25672,0.67449,0.83137,0.82549,0.75391
10.704,-0.26161,0.67742,1.0118,0.88627,0.27539
10.712,-0.26406,0.6784,0.81569,0.83137,-0.26953
10.72,-0.2665,0.67546,0.33922,0.8,-0.43359
10.728,-0.2665,0.67155,0.058824,0.80588,-0.30859
10.736,-0.26895,0.66471,0.029412,0.5549,-0.21484
10.744,-0.26895,0.65494,0.084314,0.31961,-0.054688
10.752,-0.27139,0.64321,0.2,0.23333,0.25586
10.76,-0.27139,0.6305,0.32941,0.28431,0.51953
10.768,-0.27139,0.61584,0.39412,0.37451,0.62891
10.776,-0.27384,0.60117,0.42549,0.41961,0.66992
10.784,-0.27628,0.58651,0.43922,0.43529,0.68555
10.792,-0.27873,0.57283,0.44902,0.43529,0.68555
10.8,-0.28362,0.55914,0.44902,0.43529,0.69531
10.808,-0.29095,0.54839,0.44902,0.43922,0.70508
10.816,-0.29829,0.53861,0.44902,0.4451,0.70898
10.824,-0.30562,0.52786,0.4451,0.4451,0.71484
10.832,-0.3154,0.51711,0.44902,0.4451,0.7207
10.84,-0.32518,0.50733,0.4549,0.43922,0.71484
10.848,-0.33496,0.49756,0.46078,0.4451,0.73438
10.856,-0.34719,0.48778,0.46471,0.43922,0.74414
10.864,-0.35697,0.47801,0.46078,0.4451,0.75391
10.872,-0.36675,0.46921,0.4549,0.43922,0.75391
10.88,-0.37653,0.45943,0.46078,0.43529,0.76953
10.888,-0.38631,0.44966,0.46078,0.42549,0.78516
10.896,-0.39609,0.43891,0.46471,0.41569,0.79883
10.904,-0.40342,0.42913,0.46078,0.41569,0.82422
10.912,-0.41076,0.41838,0.47451,0.39412,0.875
10.92,-0.41809,0.41056,0.4902,0.38431,0.91406
10.928,-0.42543,0.40274,0.51569,0.37059,0.95898
10.936,-0.43032,0.39492,0.53922,0.36471,1
10.944,-0.43276,0.38612,0.5549,0.35882,1.0449
10.952,-0.43765,0.37732,0.58039,0.35882,1.084
10.96,-0.4401,0.36755,0.58431,0.36471,1.084
10.968,-0.44254,0.35777,0.5902,0.38431,1.0703
10.976,-0.44499,0.34897,0.5902,0.40392,1.0352
10.984,-0.44499,0.34018,0.57059,0.42941,0.96875
10.992,-0.44499,0.3304,0.56078,0.46471,0.91016
11,-0.44499,0.32258,0.5451,0.4902,0.84375
11.008,-0.44499,0.31378,0.52549,0.5098,0.78906
11.016,-0.44254,0.30596,0.51569,0.52941,0.75391
11.024,-0.4401,0.3001,0.49412,0.55098,0.70508
11.032,-0.43765,0.29423,0.49412,0.56078,0.68555
11.04,-0.43276,0.28837,0.5,0.58039,0.68555
11.048,-0.42787,0.28152,0.5,0.59608,0.69922
11.056,-0.42054,0.27468,0.5,0.62941,0.7207
11.064,-0.4132,0.26979,0.5,0.6451,0.73438
11.072,-0.40587,0.26588,0.5,0.62549,0.73438
11.08,-0.39853,0.26686,0.5,0.6,0.77539
11.088,-0.38875,0.27175,0.5,0.5451,0.78516
11.096,-0.37897,0.2825,0.5,0.5098,0.79883
11.104,-0.37164,0.30108,0.5,0.5,0.80469
11.112,-0.36186,0.32454,0.5,0.5,0.81445
11.12,-0.35452,0.35386,0.48431,0.50588,0.78516
11.128,-0.34719,0.38319,0.47451,0.51569,0.74023
11.136,-0.33741,0.41153,0.46078,0.53529,0.67969
11.144,-0.33007,0.44379,0.44902,0.5451,0.625
11.152,-0.32029,0.47703,0.44902,0.5451,0.59961
11.16,-0.31296,0.50831,0.43922,0.55098,0.57422
11.168,-0.30318,0.53763,0.43529,0.55098,0.56445
11.176,-0.29095,0.56403,0.42941,0.5451,0.56055
11.184,-0.28117,0.58847,0.43529,0.55098,0.55469
11.192,-0.27139,0.60899,0.43922,0.5451,0.54492
11.2,-0.26161,0.62659,0.43922,0.5451,0.54492
11.208,-0.24939,0.64223,0.4451,0.53529,0.54492
11.216,-0.23961,0.65494,0.43922,0.5451,0.54492
11.224,-0.22738,0.66569,0.42549,0.62549,0.56445
11.232,-0.21516,0.67253,0.43922,0.70588,0.61523
11.24,-0.20049,0.67546,0.55098,0.7451,0.75391
11.248,-0.18582,0.6784,0.7549,0.82157,0.78906
11.256,-0.1687,0.68035,0.96667,0.92549,0.49023
11.264,-0.15403,0.67937,0.99216,0.85686,-0.10938
11.272,-0.13692,0.67546,0.46078,0.80588,-0.44922
11.28,-0.11736,0.67058,0.11961,0.81569,-0.34961
11.288,-0.10024,0.66276,0.043137,0.64118,-0.25391
11.296,-0.08313,0.652,0.068627,0.4,-0.12891
11.304,-0.06357,0.64809,0.16863,0.27451,0.15625
11.312,-0.046455,0.64614,0.29412,0.29412,0.44531
11.32,-0.02934,0.63636,0.38431,0.4,0.60938
11.328,-0.012225,0.62366,0.41961,0.4451,0.65039
11.336,0.002445,0.61095,0.43922,0.46078,0.66406
11.344,0.017115,0.59922,0.4451,0.47059,0.68555
11.352,0.031785,0.58651,0.4451,0.47451,0.68555
11.36,0.04401,0.57478,0.44902,0.47451,0.68945
11.368,0.05379,0.56403,0.44902,0.47451,0.68945
11.376,0.066015,0.55327,0.44902,0.47059,0.69922
11.384,0.07335,0.54252,0.44902,0.47451,0.69922
11.392,0.08313,0.53275,0.4549,0.47059,0.70898
11.4,0.08802,0.52297,0.4549,0.47059,0.70898
11.408,0.095355,0.51222,0.4549,0.46471,0.72461
11.416,0.10024,0.50244,0.44902,0.46078,0.73438
11.424,0.10513,0.49169,0.44902,0.44902,0.73438
11.432,0.11002,0.48094,0.4549,0.4451,0.75
11.44,0.11491,0.47116,0.44902,0.43529,0.75391
11.448,0.11736,0.46237,0.4549,0.43529,0.77539
11.456,0.12225,0.45259,0.46078,0.41961,0.79492
11.464,0.12469,0.44184,0.47059,0.41569,0.82422
11.472,0.12958,0.43109,0.48431,0.4,0.875
11.48,0.13203,0.42131,0.5,0.3902,0.92383
11.488,0.13692,0.41056,0.51961,0.38431,0.96875
11.496,0.14425,0.40078,0.5451,0.38039,1.0039
11.504,0.14914,0.39101,0.56471,0.38039,1.0254
11.512,0.15403,0.38123,0.58431,0.38431,1.0449
11.52,0.15892,0.37146,0.59608,0.3902,1.0547
11.528,0.16137,0.3607,0.5902,0.4098,1.0195
11.536,0.16626,0.35191,0.58431,0.43922,0.96875
11.544,0.17115,0.34409,0.56078,0.47451,0.90039
11.552,0.17604,0.33724,0.5451,0.50588,0.83984
11.56,0.18337,0.32942,0.52549,0.52941,0.78516
11.568,0.19071,0.3216,0.50588,0.55098,0.72461
11.576,0.19804,0.31378,0.4902,0.57059,0.67578
11.584,0.20538,0.30596,0.48431,0.57451,0.64062
11.592,0.21271,0.29717,0.48039,0.58431,0.64062
11.6,0.22249,0.28935,0.49412,0.60588,0.6543
11.608,0.23227,0.2825,0.50588,0.63529,0.67578
11.616,0.24205,0.27664,0.5,0.65098,0.68555
11.624,0.25428,0.2737,0.5,0.64118,0.68555
11.632,0.26406,0.27468,0.51569,0.61961,0.7207
11.64,0.27628,0.28152,0.5098,0.57059,0.74414
11.648,0.28851,0.29326,0.5,0.52549,0.74023
11.656,0.30073,0.31085,0.5,0.51569,0.75
11.664,0.3154,0.33627,0.5,0.51569,0.75391
11.672,0.32518,0.36755,0.4902,0.5098,0.73438
11.68,0.33741,0.40469,0.47451,0.52941,0.69922
11.688,0.34719,0.44379,0.47059,0.5451,0.64453
11.696,0.35941,0.48387,0.44902,0.56471,0.58398
11.704,0.36919,0.52199,0.4451,0.56078,0.55078
11.712,0.37897,0.55816,0.4451,0.56471,0.53516
11.72,0.38631,0.5914,0.43922,0.56078,0.51953
11.728,0.39364,0.61975,0.4451,0.5549,0.50977
11.736,0.40342,0.64614,0.43922,0.56078,0.50586
11.744,0.41076,0.6696,0.4451,0.56078,0.51562
11.752,0.41809,0.68719,0.43922,0.5549,0.50586
11.76,0.42787,0.70088,0.44902,0.56078,0.50977
11.768,0.43765,0.71554,0.44902,0.5549,0.50586
11.776,0.44743,0.72825,0.42941,0.6098,0.5293
11.784,0.45721,0.739,0.42549,0.7098,0.55469
11.792,0.46699,0.74878,0.50588,0.76078,0.67578
11.8,0.47922,0.75562,0.71569,0.82157,0.73438
11.808,0.49144,0.75953,0.95686,0.94706,0.56445
11.816,0.50367,0.76051,1.0314,0.89608,0.0058594
11.824,0.51589,0.75855,0.58431,0.79608,-0.4043
11.832,0.52812,0.75367,0.14314,0.78627,-0.42969
11.84,0.54034,0.74585,0.017647,0.62941,-0.33984
11.848,0.55257,0.73509,0.04902,0.37059,-0.24023
11.856,0.56479,0.72239,0.13922,0.2451,0.03125
11.864,0.57457,0.7087,0.26863,0.23922,0.35547
11.872,0.5868,0.69501,0.35882,0.38039,0.55469
11.88,0.59658,0.67937,0.40392,0.44902,0.625
11.888,0.60636,0.66276,0.42549,0.46078,0.64453
11.896,0.61614,0.64614,0.42941,0.47059,0.6543
11.904,0.62592,0.6305,0.42941,0.47451,0.66406
11.912,0.63325,0.61584,0.43922,0.47451,0.66992
11.92,0.64303,0.60215,0.43922,0.47059,0.66406
11.928,0.65037,0.58944,0.43529,0.47451,0.66992
11.936,0.65526,0.57674,0.43529,0.47059,0.66406
11.944,0.66259,0.56598,0.43922,0.47451,0.68555
11.952,0.66748,0.55523,0.43922,0.47059,0.68555
11.96,0.67237,0.5435,0.43529,0.47451,0.68555
11.968,0.67971,0.53372,0.4451,0.46471,0.69531
11.976,0.6846,0.52395,0.44902,0.46078,0.70508
11.984,0.69193,0.5132,0.43922,0.46078,0.70898
11.992,0.69682,0.50244,0.43529,0.4549,0.71484
12,0.70416,0.49169,0.43922,0.44902,0.73438
12.008,0.70905,0.47996,0.43922,0.44902,0.75391
12.016,0.71638,0.46725,0.44902,0.43529,0.78516
12.024,0.72372,0.45552,0.4549,0.42941,0.81445
12.032,0.73105,0.44477,0.48039,0.41961,0.86523
12.04,0.73839,0.43304,0.5,0.41569,0.91016
12.048,0.74572,0.42229,0.51961,0.4098,0.94922
12.056,0.75306,0.41153,0.53922,0.41569,0.97461
12.064,0.76039,0.40176,0.5549,0.4098,0.99023
12.072,0.76773,0.39296,0.57059,0.41569,0.99023
12.08,0.77506,0.38612,0.58039,0.42941,0.97461
12.088,0.77995,0.3783,0.57059,0.44902,0.93555
12.096,0.78729,0.3695,0.56078,0.47059,0.87891
12.104,0.79218,0.3607,0.53922,0.49412,0.82031
12.112,0.79707,0.35191,0.51961,0.51961,0.75977
12.12,0.79951,0.34311,0.5,0.53922,0.71484
12.128,0.8044,0.33333,0.4902,0.53922,0.66992
12.136,0.8044,0.32356,0.48431,0.5451,0.64062
12.144,0.80685,0.31476,0.4902,0.5549,0.64062
12.152,0.80685,0.30596,0.49412,0.57451,0.65039
12.16,0.80685,0.29814,0.5,0.6,0.66992
12.168,0.80685,0.2913,0.5,0.62549,0.68555
12.176,0.80685,0.28837,0.50588,0.61569,0.68555
12.184,0.80685,0.29032,0.5,0.6,0.71484
12.192,0.8044,0.29717,0.49412,0.55098,0.73438
12.2,0.80196,0.30987,0.5,0.49412,0.74414
12.208,0.80196,0.3304,0.5,0.48431,0.75391
12.216,0.79707,0.35777,0.50588,0.47451,0.75977
12.224,0.79462,0.39101,0.5,0.47451,0.74023
12.232,0.78973,0.42717,0.47451,0.48431,0.70508
12.24,0.78484,0.46725,0.46471,0.49412,0.6543
12.248,0.77751,0.50733,0.4549,0.5098,0.59961
12.256,0.77017,0.54643,0.44902,0.5098,0.55469
12.264,0.76039,0.5826,0.44902,0.50588,0.53906
12.272,0.75306,0.61779,0.44902,0.5,0.5293
12.28,0.74328,0.64516,0.4549,0.49412,0.51953
12.288,0.73594,0.66862,0.44902,0.4902,0.51562
12.296,0.72616,0.69208,0.4549,0.48431,0.51562
12.304,0.71638,0.71457,0.4549,0.48431,0.51953
12.312,0.70905,0.73509,0.4549,0.48431,0.51562
12.32,0.69927,0.75464,0.46078,0.48039,0.51953
12.328,0.68949,0.77224,0.44902,0.52941,0.53906
12.336,0.68215,0.7869,0.43529,0.62941,0.56055
12.344,0.67482,0.79863,0.50588,0.68627,0.66016
12.352,0.66748,0.80938,0.7,0.74118,0.73438
12.36,0.66259,0.81623,0.95098,0.86667,0.60938
12.368,0.65526,0.82014,1.0569,0.88039,0.076172
12.376,0.65281,0.82111,0.67647,0.74118,-0.33398
12.384,0.65037,0.81818,0.18824,0.73529,-0.38477
12.392,0.64792,0.81232,0.017647,0.6098,-0.31836
12.4,0.64792,0.80352,0.033333,0.3451,-0.25
12.408,0.64548,0.79179,0.12353,0.19412,0.0097656
12.416,0.64548,0.7781,0.25882,0.17843,0.33984
12.424,0.64303,0.76149,0.37059,0.30392,0.57031
12.432,0.64303,0.74389,0.42549,0.37451,0.64453
12.44,0.63814,0.72532,0.43529,0.4,0.66992
12.448,0.6357,0.70577,0.44902,0.41569,0.68555
12.456,0.63081,0.68719,0.44902,0.41569,0.68945
12.464,0.62592,0.66862,0.44902,0.41569,0.68945
12.472,0.62103,0.65103,0.44902,0.41961,0.69922
12.48,0.61369,0.63441,0.4549,0.41569,0.70898
12.488,0.60636,0.61975,0.44902,0.41569,0.70898
12.496,0.59902,0.60802,0.4549,0.41569,0.70898
12.504,0.58924,0.59433,0.44902,0.41569,0.70898
12.512,0.58191,0.58162,0.46471,0.41569,0.7207
12.52,0.57457,0.56891,0.46078,0.4098,0.72461
12.528,0.56724,0.55621,0.4549,0.40392,0.73438
12.536,0.55746,0.5435,0.46078,0.40392,0.73438
12.544,0.55012,0.53177,0.44902,0.40392,0.75
12.552,0.54279,0.52004,0.4549,0.39412,0.75391
12.56,0.53301,0.50733,0.44902,0.3902,0.77539
12.568,0.52567,0.49462,0.46078,0.3902,0.79883
12.576,0.51834,0.48289,0.47451,0.3902,0.83984
12.584,0.51345,0.47019,0.4902,0.38039,0.87891
12.592,0.50611,0.45943,0.51569,0.37059,0.91992
12.6,0.50122,0.45064,0.53922,0.36471,0.95508
12.608,0.49389,0.43988,0.56471,0.36471,0.98438
12.616,0.489,0.42815,0.57059,0.37059,1.0039
12.624,0.48411,0.41642,0.58431,0.38039,1.0098
12.632,0.47922,0.40469,0.59608,0.39412,0.99023
12.64,0.47433,0.39296,0.5902,0.41569,0.94922
12.648,0.47188,0.38221,0.57451,0.43529,0.9043
12.656,0.46944,0.37048,0.5549,0.46078,0.84375
12.664,0.46699,0.35973,0.53529,0.48431,0.78906
12.672,0.46455,0.34995,0.51961,0.5,0.74023
12.68,0.46455,0.3392,0.50588,0.5098,0.69531
12.688,0.4621,0.32942,0.49412,0.51569,0.66016
12.696,0.4621,0.3216,0.49412,0.5098,0.64062
12.704,0.4621,0.31574,0.4902,0.52549,0.63477
12.712,0.4621,0.30792,0.5,0.52941,0.64062
12.72,0.4621,0.30108,0.5,0.5549,0.66016
12.728,0.4621,0.29619,0.51569,0.58431,0.69531
12.736,0.4621,0.29521,0.51961,0.59608,0.70898
12.744,0.46455,0.3001,0.51961,0.58039,0.71484
12.752,0.46455,0.31183,0.51961,0.5549,0.75
12.76,0.46699,0.3304,0.52549,0.4902,0.76562
12.768,0.46944,0.35679,0.51569,0.46078,0.77539
12.776,0.47433,0.38905,0.51961,0.4549,0.76953
12.784,0.47677,0.4262,0.51569,0.43922,0.7793
12.792,0.48166,0.4653,0.5,0.44902,0.74414
12.8,0.48655,0.49951,0.4902,0.4549,0.69922
12.808,0.49144,0.53177,0.47451,0.47451,0.63477
12.816,0.49633,0.565,0.46471,0.48431,0.57422
12.824,0.50122,0.59824,0.46078,0.48431,0.54492
12.832,0.50611,0.62952,0.4549,0.48431,0.53516
12.84,0.511,0.65787,0.46078,0.47451,0.52539
12.848,0.51589,0.68426,0.46471,0.47451,0.52539
12.856,0.52078,0.7087,0.46471,0.47059,0.51953
12.864,0.52567,0.73021,0.47059,0.47059,0.51953
12.872,0.52812,0.74976,0.46471,0.47059,0.51953
12.88,0.53301,0.76735,0.46471,0.47059,0.51953
12.888,0.53545,0.78201,0.46078,0.48431,0.52539
12.896,0.54034,0.79374,0.4451,0.57451,0.56055
12.904,0.54279,0.80352,0.46078,0.65098,0.60547
12.912,0.54523,0.80841,0.59608,0.6902,0.7207
12.92,0.55012,0.81036,0.83137,0.77647,0.73438
12.928,0.55257,0.81036,1.0667,0.85686,0.35547
12.936,0.55501,0.80743,1.0824,0.77647,-0.16016
12.944,0.55746,0.80156,0.43922,0.71569,-0.37891
12.952,0.56235,0.79277,0.07451,0.72157,-0.31445
12.96,0.56479,0.78104,0.023529,0.47451,-0.28906
12.968,0.56724,0.7654,0.068627,0.22941,-0.14453
12.976,0.56968,0.7478,0.2,0.15882,0.17969
12.984,0.57213,0.72923,0.31961,0.21961,0.47461
12.992,0.57702,0.70968,0.40392,0.33529,0.62891
13,0.57702,0.69013,0.4451,0.37451,0.66992
13.008,0.57946,0.67155,0.4549,0.38431,0.68555
13.016,0.58191,0.65494,0.46471,0.3902,0.69531
13.024,0.58435,0.6393,0.46471,0.39412,0.69922
13.032,0.58435,0.62366,0.47451,0.3902,0.70898
13.04,0.58435,0.60899,0.47451,0.39412,0.71484
13.048,0.58435,0.59531,0.47451,0.39412,0.72461
13.056,0.58435,0.58162,0.47451,0.39412,0.71484
13.064,0.58191,0.56794,0.47451,0.3902,0.71484
13.072,0.58191,0.55425,0.47451,0.39412,0.72461
13.08,0.57946,0.54154,0.47451,0.3902,0.73047
13.088,0.57702,0.52884,0.47451,0.3902,0.73438
13.096,0.57457,0.51613,0.47451,0.38039,0.74414
13.104,0.56968,0.50342,0.47451,0.38039,0.75
13.112,0.56724,0.48974,0.47451,0.37059,0.75391
13.12,0.56235,0.47898,0.48039,0.37059,0.76562
13.128,0.55746,0.46823,0.48431,0.36471,0.79492
13.136,0.55501,0.4565,0.49412,0.35882,0.83008
13.144,0.55012,0.44379,0.5098,0.34902,0.86914
13.152,0.54523,0.43206,0.52941,0.3451,0.91406
13.16,0.54279,0.42033,0.55098,0.3451,0.94922
13.168,0.54034,0.4086,0.57059,0.33922,0.98438
13.176,0.53545,0.39687,0.5902,0.33922,1.0098
13.184,0.53301,0.38612,0.60588,0.3451,1.0254
13.192,0.52812,0.37439,0.61569,0.3549,1.0293
13.2,0.52567,0.36364,0.61961,0.37059,1.0039
13.208,0.52078,0.35288,0.61569,0.4,0.95508
13.216,0.51834,0.34311,0.5902,0.42549,0.89453
13.224,0.51345,0.33431,0.58039,0.4451,0.84375
13.232,0.511,0.32747,0.56078,0.46078,0.78906
13.24,0.50611,0.31867,0.5451,0.47451,0.74023
13.248,0.50367,0.30987,0.53529,0.48431,0.70898
13.256,0.49878,0.3001,0.53529,0.50588,0.69922
13.264,0.49389,0.29032,0.53922,0.52549,0.70898
13.272,0.48655,0.28055,0.53529,0.56471,0.73047
13.28,0.48166,0.27175,0.5451,0.57451,0.72461
13.288,0.47433,0.26491,0.53922,0.56078,0.73047
13.296,0.46699,0.26295,0.53922,0.53529,0.76562
13.304,0.45966,0.26588,0.53922,0.47451,0.7793
13.312,0.45232,0.27566,0.53922,0.43922,0.78906
13.32,0.44743,0.29228,0.53529,0.43529,0.79492
13.328,0.4401,0.31281,0.52549,0.42941,0.78516
13.336,0.43276,0.33724,0.5098,0.4451,0.75977
13.344,0.42543,0.3695,0.5,0.4549,0.7207
13.352,0.42054,0.39785,0.48039,0.48039,0.66016
13.36,0.4132,0.42326,0.47451,0.48431,0.60547
13.368,0.40587,0.45455,0.46471,0.48431,0.58008
13.376,0.40098,0.4868,0.46471,0.48431,0.56445
13.384,0.39364,0.51808,0.46078,0.48431,0.56055
13.392,0.38875,0.54741,0.4549,0.48431,0.54492
13.4,0.38142,0.57478,0.46078,0.48431,0.53906
13.408,0.37653,0.59922,0.46471,0.48431,0.54492
13.416,0.36919,0.6217,0.47451,0.48431,0.54492
13.424,0.3643,0.64125,0.46471,0.48039,0.53906
13.432,0.35697,0.65591,0.47059,0.48039,0.54492
13.44,0.34963,0.66764,0.44902,0.56078,0.57031
13.448,0.3423,0.6784,0.44902,0.65098,0.59961
13.456,0.33496,0.68915,0.5451,0.69608,0.70898
13.464,0.32763,0.69795,0.78039,0.76078,0.73438
13.472,0.32029,0.70479,1.0118,0.86667,0.42969
13.48,0.3154,0.7087,1.0471,0.8,-0.12891
13.488,0.31051,0.71065,0.46078,0.7549,-0.43945
13.496,0.30562,0.70968,0.084314,0.76667,-0.35938
13.504,0.30073,0.70577,0.013725,0.56078,-0.2793
13.512,0.29584,0.69892,0.058824,0.3,-0.13867
13.52,0.2934,0.68817,0.17451,0.2,0.16602
13.528,0.29095,0.67644,0.3098,0.23333,0.46484
13.536,0.28851,0.66276,0.4,0.33922,0.61914
13.544,0.28606,0.64907,0.43529,0.38039,0.66406
13.552,0.28362,0.63441,0.44902,0.3902,0.68945
13.56,0.27873,0.61779,0.4549,0.4,0.69922
13.568,0.27628,0.60215,0.46078,0.40392,0.70508
13.576,0.27139,0.58651,0.46471,0.40392,0.70508
13.584,0.2665,0.57185,0.47059,0.4098,0.71484
13.592,0.26161,0.55816,0.47451,0.40392,0.7207
13.6,0.25672,0.54448,0.47451,0.4,0.70898
13.608,0.25183,0.53177,0.47451,0.39412,0.73047
13.616,0.2445,0.52004,0.47451,0.3902,0.73438
13.624,0.23716,0.50831,0.47451,0.39412,0.74023
13.632,0.22983,0.49756,0.47451,0.3902,0.75
13.64,0.22249,0.48778,0.48039,0.3902,0.75391
13.648,0.21516,0.47801,0.47451,0.38431,0.76953
13.656,0.20538,0.46823,0.47451,0.3902,0.78516
13.664,0.1956,0.45846,0.47451,0.38431,0.79883
13.672,0.18582,0.4477,0.48039,0.37451,0.83008
13.68,0.17359,0.43695,0.48431,0.36471,0.85547
13.688,0.16381,0.4262,0.5,0.3549,0.89453
13.696,0.15648,0.41544,0.51961,0.3451,0.94531
13.704,0.1467,0.40469,0.5451,0.33922,0.99023
13.712,0.13936,0.39296,0.57059,0.33529,1.0137
13.72,0.13203,0.38319,0.58431,0.33922,1.0449
13.728,0.12469,0.37243,0.6,0.3451,1.0742
13.736,0.11736,0.36266,0.61569,0.3451,1.0645
13.744,0.11247,0.35386,0.6098,0.37451,1.0352
13.752,0.10513,0.34702,0.59608,0.39412,0.97461
13.76,0.10024,0.33822,0.58039,0.42941,0.91016
13.768,0.095355,0.3304,0.56078,0.4549,0.85938
13.776,0.090465,0.32063,0.5451,0.48039,0.80469
13.784,0.085575,0.31183,0.51961,0.49412,0.74414
13.792,0.080685,0.30303,0.51569,0.50588,0.70898
13.8,0.07335,0.29326,0.5098,0.5098,0.68555
13.808,0.06846,0.28446,0.51569,0.52549,0.69531
13.816,0.06357,0.27566,0.52549,0.5451,0.70898
13.824,0.05868,0.26784,0.52941,0.57451,0.73438
13.832,0.051345,0.261,0.52549,0.58431,0.74414
13.84,0.046455,0.25709,0.52549,0.57059,0.73438
13.848,0.04401,0.25611,0.51961,0.5451,0.77539
13.856,0.03912,0.25904,0.51961,0.48431,0.78516
13.864,0.03423,0.26686,0.51569,0.46078,0.79492
13.872,0.031785,0.28055,0.5098,0.4549,0.78906
13.88,0.02934,0.3001,0.51569,0.4451,0.79883
13.888,0.026895,0.32551,0.5,0.4549,0.77539
13.896,0.022005,0.35484,0.48431,0.46078,0.72461
13.904,0.01956,0.38807,0.46471,0.4902,0.65039
13.912,0.017115,0.42131,0.4549,0.49412,0.5957
13.92,0.01467,0.45357,0.4549,0.5,0.58398
13.928,0.00978,0.48485,0.4549,0.49412,0.57031
13.936,0.007335,0.5132,0.44902,0.5,0.56055
13.944,0.00489,0.53861,0.44902,0.5,0.57031
13.952,0,0.56207,0.44902,0.5,0.55078
13.96,-0.00489,0.58065,0.4549,0.49412,0.54492
13.968,-0.007335,0.59433,0.44902,0.49412,0.53516
13.976,-0.012225,0.60899,0.44902,0.49412,0.5293
13.984,-0.01467,0.6217,0.4451,0.4902,0.53906
13.992,-0.01956,0.63245,0.42941,0.59608,0.57031
14,-0.022005,0.64125,0.42549,0.67647,0.63477
14.008,-0.026895,0.64809,0.56471,0.71569,0.75391
14.016,-0.031785,0.65298,0.79608,0.7902,0.77539
14.024,-0.03423,0.65591,1.002,0.86078,0.41602
14.032,-0.03912,0.65591,0.87059,0.80588,-0.17969
14.04,-0.041565,0.65298,0.3902,0.78627,-0.44336
14.048,-0.04401,0.64712,0.078431,0.7902,-0.33008
14.056,-0.046455,0.6393,0.029412,0.58039,-0.25391
14.064,-0.046455,0.6305,0.062745,0.33922,-0.125
14.072,-0.0489,0.61975,0.16471,0.23333,0.17969
14.08,-0.0489,0.60704,0.3,0.26863,0.4707
14.088,-0.0489,0.59238,0.38431,0.37059,0.625
14.096,-0.051345,0.57771,0.41569,0.41569,0.67578
14.104,-0.051345,0.56207,0.42941,0.42941,0.68555
14.112,-0.05379,0.54741,0.43922,0.43529,0.69922
14.12,-0.056235,0.53372,0.42941,0.43529,0.70508
14.128,-0.056235,0.52102,0.43922,0.43529,0.70508
14.136,-0.061125,0.50929,0.4451,0.43529,0.70898
14.144,-0.06357,0.49853,0.43922,0.43529,0.70898
14.152,-0.066015,0.48876,0.4451,0.43529,0.70898
14.16,-0.06846,0.47801,0.44902,0.43529,0.73047
14.168,-0.07335,0.47019,0.4451,0.42941,0.73438
14.176,-0.07824,0.46237,0.4451,0.41961,0.73438
14.184,-0.08313,0.45455,0.44902,0.41569,0.75391
14.192,-0.08802,0.44575,0.44902,0.4098,0.75391
14.2,-0.095355,0.43597,0.4549,0.40392,0.7793
14.208,-0.10024,0.4262,0.4549,0.4098,0.78906
14.216,-0.10513,0.41642,0.4549,0.39412,0.80469
14.224,-0.11247,0.40665,0.46078,0.3902,0.82031
14.232,-0.11736,0.39687,0.47451,0.37451,0.85938
14.24,-0.1198,0.38807,0.48431,0.36471,0.9043
14.248,-0.12469,0.3783,0.5098,0.3549,0.94922
14.256,-0.12714,0.36852,0.52549,0.3451,0.98438
14.264,-0.12958,0.35973,0.5451,0.3451,1.0254
14.272,-0.13203,0.35191,0.56078,0.33922,1.0449
14.28,-0.13447,0.34506,0.57451,0.34902,1.0703
14.288,-0.13692,0.33724,0.58039,0.36471,1.0742
14.296,-0.13692,0.32942,0.58431,0.38431,1.0449
14.304,-0.13936,0.32063,0.57059,0.4098,0.99414
14.312,-0.13936,0.31281,0.56078,0.43922,0.92969
14.32,-0.14181,0.30401,0.52941,0.47059,0.85938
14.328,-0.14181,0.29619,0.51569,0.49412,0.79883
14.336,-0.14425,0.28837,0.5,0.5098,0.75
14.344,-0.14425,0.28055,0.4902,0.52941,0.70898
14.352,-0.1467,0.27273,0.48431,0.53529,0.67969
14.36,-0.1467,0.26491,0.49412,0.5549,0.68555
14.368,-0.1467,0.25806,0.5,0.58039,0.71484
14.376,-0.1467,0.2522,0.5,0.60588,0.73438
14.384,-0.1467,0.24829,0.50588,0.6098,0.73438
14.392,-0.1467,0.24536,0.5,0.59608,0.75
14.4,-0.1467,0.24536,0.49412,0.56078,0.7793
14.408,-0.1467,0.24927,0.5,0.50588,0.78516
14.416,-0.14914,0.26002,0.4902,0.48431,0.80469
14.424,-0.14914,0.27761,0.4902,0.48431,0.82031
14.432,-0.1467,0.30205,0.48431,0.48039,0.79883
14.44,-0.1467,0.33138,0.47451,0.48431,0.77539
14.448,-0.1467,0.36461,0.47059,0.49412,0.7207
14.456,-0.14425,0.3998,0.44902,0.51961,0.67578
14.464,-0.14425,0.435,0.43529,0.52941,0.60547
14.472,-0.14181,0.46921,0.43529,0.52941,0.58398
14.48,-0.14181,0.49756,0.43529,0.52941,0.57031
14.488,-0.13936,0.52102,0.42941,0.52941,0.57422
14.496,-0.13936,0.54545,0.42941,0.52941,0.57031
14.504,-0.13692,0.56794,0.42941,0.52941,0.55469
14.512,-0.13692,0.58847,0.43529,0.52549,0.55469
14.52,-0.13447,0.60704,0.42549,0.52941,0.54492
14.528,-0.13447,0.62268,0.42549,0.52941,0.51953
14.536,-0.13203,0.63636,0.43529,0.5451,0.55469
14.544,-0.12958,0.64809,0.41961,0.63529,0.5957
14.552,-0.12958,0.65787,0.43922,0.70588,0.6543
14.56,-0.12714,0.66569,0.58039,0.74118,0.78906
14.568,-0.12469,0.67155,0.8,0.81569,0.80469
14.576,-0.12225,0.67449,0.97647,0.87059,0.34961
14.584,-0.1198,0.67449,0.8,0.82157,-0.23438
14.592,-0.11736,0.67253,0.33922,0.8,-0.42969
14.6,-0.11491,0.66764,0.068627,0.81569,-0.31836
14.608,-0.11247,0.6608,0.033333,0.5902,-0.24023
14.616,-0.11002,0.65103,0.07451,0.35882,-0.089844
14.624,-0.10513,0.63832,0.17843,0.26863,0.23438
14.632,-0.10269,0.62561,0.29412,0.3098,0.50586
14.64,-0.0978,0.61095,0.38039,0.39412,0.62891
14.648,-0.095355,0.59629,0.4098,0.43529,0.66992
14.656,-0.09291,0.58162,0.42549,0.4451,0.68555
14.664,-0.090465,0.56891,0.42941,0.4549,0.68555
14.672,-0.08802,0.55523,0.42549,0.46078,0.69922
14.68,-0.08802,0.5435,0.43529,0.4549,0.70508
14.688,-0.085575,0.53275,0.42549,0.46078,0.70508
14.696,-0.085575,0.52297,0.43529,0.44902,0.71484
14.704,-0.085575,0.5132,0.43529,0.4451,0.70898
14.712,-0.085575,0.50342,0.43922,0.4451,0.71484
14.72,-0.085575,0.49365,0.43922,0.43922,0.7207
14.728,-0.085575,0.48387,0.4451,0.43529,0.73047
14.736,-0.085575,0.4741,0.43529,0.43529,0.74023
14.744,-0.08802,0.46432,0.43529,0.43529,0.74414
14.752,-0.08802,0.45552,0.42941,0.43529,0.75977
14.76,-0.090465,0.44575,0.43529,0.42549,0.7793
14.768,-0.090465,0.43597,0.42941,0.41569,0.79492
14.776,-0.09291,0.42522,0.43529,0.41569,0.82031
14.784,-0.095355,0.41544,0.4451,0.40392,0.85547
14.792,-0.095355,0.40762,0.46471,0.3902,0.90039
14.8,-0.0978,0.3998,0.48431,0.36471,0.94922
14.808,-0.0978,0.39198,0.50588,0.35882,0.99023
14.816,-0.0978,0.38221,0.52941,0.3549,1.0254
14.824,-0.0978,0.37341,0.5451,0.34902,1.0547
14.832,-0.0978,0.36364,0.56471,0.35882,1.0742
14.84,-0.0978,0.35484,0.57059,0.36471,1.0547
14.848,-0.095355,0.34604,0.57059,0.3902,1.0352
14.856,-0.09291,0.33724,0.56078,0.41569,0.98047
14.864,-0.09291,0.32845,0.53922,0.4549,0.9043
14.872,-0.090465,0.31965,0.52549,0.48039,0.83984
14.88,-0.08802,0.31085,0.5098,0.50588,0.78516
14.888,-0.085575,0.30303,0.49412,0.51569,0.73047
14.896,-0.08313,0.29521,0.48431,0.52941,0.68945
14.904,-0.080685,0.28837,0.48039,0.55098,0.66992
14.912,-0.080685,0.28348,0.48431,0.56471,0.66406
14.92,-0.07824,0.27664,0.4902,0.5902,0.68555
14.928,-0.07824,0.26979,0.48431,0.61961,0.70898
14.936,-0.075795,0.26491,0.4902,0.62549,0.70898
14.944,-0.07335,0.26197,0.5,0.60588,0.72461
14.952,-0.070905,0.26295,0.4902,0.57451,0.76562
14.96,-0.06846,0.26979,0.49412,0.51569,0.7793
14.968,-0.06357,0.2825,0.48431,0.49412,0.78516
14.976,-0.061125,0.30108,0.48039,0.4902,0.78906
14.984,-0.056235,0.32649,0.47451,0.48431,0.77539
14.992,-0.051345,0.35777,0.46471,0.5,0.75391
15,-0.0489,0.39101,0.4549,0.5098,0.70508
15.008,-0.04401,0.42229,0.4451,0.52941,0.65039
15.016,-0.03912,0.45064,0.43529,0.53529,0.59961
15.024,-0.03423,0.48192,0.42941,0.53529,0.57422
15.032,-0.02934,0.51222,0.43529,0.53529,0.55469
15.04,-0.022005,0.54154,0.43529,0.52941,0.55078
15.048,-0.017115,0.56891,0.43529,0.52941,0.54492
15.056,-0.012225,0.59335,0.42549,0.52941,0.52539
15.064,-0.007335,0.61486,0.42549,0.53529,0.52539
15.072,-0.002445,0.63343,0.42941,0.52941,0.52539
15.08,0.002445,0.65005,0.42549,0.52941,0.51953
15.088,0.007335,0.66471,0.41569,0.5549,0.53516
15.096,0.00978,0.67742,0.40392,0.63529,0.56055
15.104,0.01467,0.68719,0.42549,0.71569,0.625
15.112,0.022005,0.69404,0.56471,0.7549,0.76562
15.12,0.026895,0.69795,0.7902,0.84118,0.78516
15.128,0.031785,0.70186,0.98627,0.90196,0.35938
15.136,0.036675,0.70283,0.80588,0.82157,-0.22852
15.144,0.041565,0.70088,0.32353,0.7902,-0.43945
15.152,0.046455,0.69697,0.029412,0.80588,-0.35938
15.16,0.051345,0.69013,0.0039216,0.55098,-0.30859
15.168,0.05868,0.68035,0.058824,0.32353,-0.13477
15.176,0.066015,0.66862,0.17451,0.24902,0.19531
15.184,0.070905,0.65494,0.29412,0.30392,0.46094
15.192,0.07824,0.64027,0.37059,0.41569,0.60547
15.2,0.08313,0.62366,0.39412,0.44902,0.64062
15.208,0.090465,0.60802,0.4098,0.46078,0.6543
15.216,0.095355,0.59335,0.41569,0.46078,0.66016
15.224,0.10024,0.58065,0.41961,0.46078,0.66406
15.232,0.10269,0.56891,0.4098,0.46471,0.67578
15.24,0.10758,0.55718,0.41569,0.46078,0.67578
15.248,0.11002,0.54545,0.41961,0.46471,0.67969
15.256,0.11002,0.5347,0.41569,0.46471,0.68555
15.264,0.11247,0.52395,0.41569,0.46078,0.68555
15.272,0.11247,0.51417,0.42549,0.4549,0.69531
15.28,0.11491,0.5044,0.42549,0.4549,0.70508
15.288,0.11247,0.49462,0.42549,0.44902,0.70898
15.296,0.11247,0.48485,0.42549,0.4451,0.72461
15.304,0.11247,0.4741,0.42549,0.43922,0.7207
15.312,0.11247,0.46432,0.42549,0.43529,0.73438
15.32,0.11247,0.45552,0.42549,0.43529,0.75391
15.328,0.11247,0.44673,0.42549,0.42941,0.7793
15.336,0.11247,0.43695,0.42941,0.42549,0.82031
15.344,0.11247,0.42717,0.44902,0.41569,0.85938
15.352,0.11247,0.4174,0.46471,0.40392,0.90039
15.36,0.11247,0.40665,0.49412,0.39412,0.94531
15.368,0.11491,0.39687,0.5098,0.3902,0.97461
15.376,0.11491,0.38612,0.53529,0.3902,1.0039
15.384,0.11736,0.37634,0.5451,0.3902,1.0137
15.392,0.1198,0.36657,0.5549,0.4098,1.0195
15.4,0.12469,0.3607,0.5549,0.42549,0.98047
15.408,0.12958,0.35679,0.5451,0.44902,0.92383
15.416,0.13447,0.34995,0.52941,0.47451,0.875
15.424,0.13692,0.34506,0.51961,0.5,0.81445
15.432,0.14181,0.3392,0.5,0.51569,0.75391
15.44,0.1467,0.33236,0.48431,0.53529,0.70508
15.448,0.15159,0.32356,0.48039,0.5451,0.66992
15.456,0.15403,0.31574,0.47451,0.55098,0.6543
15.464,0.15892,0.30694,0.47451,0.57451,0.65039
15.472,0.16381,0.29814,0.48431,0.59608,0.66406
15.48,0.16626,0.29032,0.48431,0.62941,0.68945
15.488,0.17115,0.28446,0.48431,0.63529,0.69531
15.496,0.17359,0.28348,0.4902,0.61961,0.70508
15.504,0.17848,0.28739,0.48039,0.58431,0.74023
15.512,0.18093,0.29814,0.48431,0.52549,0.75
15.52,0.18582,0.31672,0.47451,0.5,0.75391
15.528,0.19071,0.33724,0.47451,0.5,0.76562
15.536,0.1956,0.36266,0.48431,0.4902,0.75391
15.544,0.20049,0.39492,0.47451,0.5,0.73047
15.552,0.20293,0.43109,0.44902,0.5098,0.67969
15.56,0.20782,0.46921,0.43529,0.53529,0.61914
15.568,0.21271,0.50733,0.42549,0.53922,0.56445
15.576,0.2176,0.54448,0.41961,0.5451,0.54492
15.584,0.22249,0.57869,0.41961,0.5451,0.53516
15.592,0.22738,0.61095,0.41961,0.53922,0.51953
15.6,0.23472,0.64027,0.41569,0.53922,0.51562
15.608,0.23961,0.66667,0.41961,0.53529,0.50977
15.616,0.24694,0.69013,0.4098,0.53922,0.5
15.624,0.25183,0.71163,0.41569,0.53529,0.5
15.632,0.25917,0.73021,0.41961,0.52941,0.5
15.64,0.26406,0.74389,0.4098,0.5451,0.51953
15.648,0.27139,0.75562,0.40392,0.64118,0.55078
15.656,0.27628,0.76735,0.42941,0.71569,0.61523
15.664,0.28117,0.7781,0.57451,0.7549,0.73047
15.672,0.28606,0.7869,0.81176,0.8451,0.75
15.68,0.29095,0.79374,1.0157,0.90588,0.31445
15.688,0.29829,0.79668,0.83137,0.82157,-0.21484
15.696,0.30562,0.79668,0.31961,0.7902,-0.4082
15.704,0.31051,0.79277,0.013725,0.79608,-0.35352
15.712,0.31785,0.78592,-0.015686,0.52549,-0.30469
15.72,0.32518,0.77615,0.043137,0.29412,-0.125
15.728,0.33252,0.76246,0.16471,0.2451,0.20117
15.736,0.33985,0.7478,0.27451,0.3098,0.48047
15.744,0.34719,0.73314,0.35882,0.41961,0.61914
15.752,0.35208,0.71554,0.37451,0.4451,0.64062
15.76,0.35697,0.69697,0.4,0.4549,0.66406
15.768,0.3643,0.6784,0.40392,0.46078,0.66992
15.776,0.36919,0.6608,0.4,0.46471,0.66406
15.784,0.37408,0.64321,0.41569,0.46078,0.67578
15.792,0.37897,0.62659,0.41569,0.46078,0.68555
15.8,0.38142,0.61095,0.41569,0.46078,0.69531
15.808,0.38631,0.59629,0.42549,0.46078,0.69922
15.816,0.38875,0.58358,0.42941,0.44902,0.70508
15.824,0.3912,0.57087,0.42941,0.4451,0.70898
15.832,0.39364,0.55816,0.43529,0.4451,0.70898
15.84,0.39609,0.54741,0.42549,0.4451,0.71484
15.848,0.39853,0.53763,0.42549,0.4451,0.7207
15.856,0.39853,0.5259,0.42549,0.43529,0.73438
15.864,0.40098,0.51417,0.42549,0.43529,0.75
15.872,0.40342,0.50147,0.42549,0.43529,0.75977
15.88,0.40342,0.48974,0.42549,0.42941,0.78906
15.888,0.40342,0.47801,0.43529,0.41961,0.82031
15.896,0.40587,0.46628,0.44902,0.41569,0.86523
15.904,0.40831,0.45357,0.47059,0.4098,0.9043
15.912,0.41076,0.44184,0.4902,0.40392,0.93945
15.92,0.41565,0.43011,0.5098,0.40392,0.98047
15.928,0.41809,0.41838,0.52941,0.4,1
15.936,0.42054,0.40665,0.5451,0.40392,1.0137
15.944,0.42298,0.39492,0.5549,0.41569,1.0039
15.952,0.42787,0.38514,0.56471,0.42941,0.98047
15.96,0.43032,0.37732,0.55098,0.44902,0.92969
15.968,0.43276,0.36755,0.52941,0.48431,0.86914
15.976,0.43521,0.35777,0.51961,0.50588,0.81445
15.984,0.43765,0.348,0.50588,0.51961,0.75391
15.992,0.43765,0.3392,0.49412,0.52941,0.70898
16,0.4401,0.32942,0.48039,0.53922,0.67969
16.008,0.4401,0.31965,0.47451,0.5549,0.66406
16.016,0.44254,0.31085,0.48039,0.57059,0.66992
16.024,0.44254,0.30108,0.4902,0.6,0.68555
16.032,0.44254,0.29326,0.4902,0.62549,0.70508
16.04,0.44254,0.28837,0.48431,0.62941,0.69922
16.048,0.44254,0.28739,0.4902,0.61569,0.7207
16.056,0.44254,0.29032,0.48431,0.57059,0.75391
16.064,0.44254,0.29912,0.4902,0.5098,0.76562
16.072,0.44254,0.31476,0.48431,0.4902,0.7793
16.08,0.44254,0.33724,0.48431,0.48431,0.76953
16.088,0.44254,0.36657,0.48039,0.48431,0.75977
16.096,0.44254,0.40078,0.47451,0.49412,0.73438
16.104,0.44254,0.43891,0.4549,0.5098,0.68945
16.112,0.44254,0.47703,0.4451,0.52941,0.62891
16.12,0.44254,0.51515,0.42549,0.53922,0.58008
16.128,0.44254,0.55132,0.42549,0.53529,0.55078
16.136,0.44499,0.58553,0.42549,0.53529,0.53906
16.144,0.44499,0.61681,0.42549,0.53922,0.5293
16.152,0.44499,0.64614,0.41961,0.53922,0.51953
16.16,0.44499,0.66862,0.41569,0.52941,0.52539
16.168,0.44743,0.68719,0.41961,0.53529,0.51953
16.176,0.44743,0.70674,0.42549,0.52941,0.51953
16.184,0.44988,0.72532,0.42549,0.52941,0.51953
16.192,0.44988,0.74291,0.41961,0.5549,0.5293
16.2,0.45232,0.75855,0.40392,0.6549,0.55469
16.208,0.45477,0.77224,0.43529,0.72157,0.62891
16.216,0.45721,0.78299,0.59608,0.77059,0.73047
16.224,0.45721,0.79179,0.83529,0.88039,0.73438
16.232,0.45966,0.79765,1.0314,0.93725,0.24023
16.24,0.4621,0.80059,0.79608,0.82157,-0.23438
16.248,0.46455,0.79961,0.27451,0.78039,-0.375
16.256,0.46699,0.79472,-0.0019608,0.71569,-0.31836
16.264,0.47188,0.78788,-0.015686,0.47059,-0.2793
16.272,0.47433,0.77713,0.058824,0.25882,-0.080078
16.28,0.47922,0.76442,0.19412,0.22353,0.25586
16.288,0.48166,0.74878,0.31373,0.3098,0.51953
16.296,0.48411,0.73216,0.38431,0.40392,0.63477
16.304,0.489,0.71359,0.40392,0.42941,0.66016
16.312,0.49144,0.69404,0.41961,0.43922,0.68555
16.32,0.49389,0.67546,0.42549,0.44902,0.69531
16.328,0.49389,0.65689,0.42941,0.44902,0.70508
16.336,0.49633,0.6393,0.42549,0.4549,0.70508
16.344,0.49633,0.6217,0.42549,0.4451,0.70898
16.352,0.49878,0.60606,0.42549,0.44902,0.71484
16.36,0.49878,0.5914,0.43529,0.43922,0.7207
16.368,0.49878,0.57967,0.42941,0.44902,0.7207
16.376,0.49878,0.56794,0.42941,0.4451,0.73047
16.384,0.49878,0.55621,0.43529,0.43922,0.73438
16.392,0.49878,0.54448,0.43529,0.43922,0.74023
16.4,0.49633,0.53079,0.43529,0.43529,0.74414
16.408,0.49633,0.51808,0.43529,0.43529,0.75391
16.416,0.49389,0.50538,0.43529,0.42941,0.75977
16.424,0.49144,0.49267,0.43922,0.42549,0.7793
16.432,0.489,0.47996,0.43922,0.41961,0.79883
16.44,0.48655,0.46628,0.4549,0.41569,0.83984
16.448,0.48411,0.45357,0.47059,0.40392,0.87891
16.456,0.48166,0.44184,0.49412,0.40392,0.92383
16.464,0.47922,0.42913,0.51961,0.4,0.95898
16.472,0.47922,0.41935,0.53529,0.39412,0.98438
16.48,0.47677,0.41056,0.5451,0.40392,1.0039
16.488,0.47433,0.40078,0.57059,0.4,1.0137
16.496,0.47433,0.39003,0.58039,0.41569,1.0039
16.504,0.47188,0.37928,0.57451,0.42941,0.96875
16.512,0.47188,0.36852,0.56078,0.46078,0.91992
16.52,0.47188,0.35777,0.5451,0.48431,0.86523
16.528,0.47188,0.348,0.52549,0.50588,0.79883
16.536,0.47433,0.33724,0.50588,0.51569,0.75
16.544,0.47433,0.32747,0.5,0.52941,0.70898
16.552,0.47433,0.31672,0.48039,0.53529,0.67578
16.56,0.47433,0.30596,0.47451,0.52941,0.65039
16.568,0.47433,0.29619,0.47451,0.53922,0.64062
16.576,0.47677,0.28837,0.47451,0.5549,0.64453
16.584,0.47677,0.2825,0.48039,0.58039,0.66406
16.592,0.47677,0.27664,0.4902,0.61569,0.69922
16.6,0.47433,0.27468,0.48431,0.62549,0.70898
16.608,0.47433,0.27859,0.49412,0.6098,0.71484
16.616,0.47433,0.28739,0.5,0.58431,0.75391
16.624,0.47433,0.30401,0.5,0.52549,0.76953
16.632,0.47433,0.32845,0.5,0.4902,0.7793
16.64,0.47188,0.35875,0.49412,0.48431,0.78516
16.648,0.47188,0.39296,0.5,0.48039,0.7793
16.656,0.47188,0.43109,0.48039,0.48431,0.75391
16.664,0.47188,0.46921,0.47059,0.49412,0.71484
16.672,0.47188,0.50635,0.44902,0.51569,0.65039
16.68,0.46944,0.53861,0.43529,0.52941,0.58984
16.688,0.46944,0.56598,0.42549,0.52549,0.55469
16.696,0.46699,0.59531,0.42549,0.52549,0.54492
16.704,0.46699,0.62268,0.42941,0.51569,0.53516
16.712,0.46699,0.64809,0.42549,0.51569,0.52539
16.72,0.46455,0.67155,0.42549,0.51569,0.51953
16.728,0.46455,0.69306,0.43529,0.51569,0.52539
16.736,0.46455,0.71163,0.43529,0.5098,0.51953
16.744,0.46455,0.72923,0.43922,0.5098,0.51953
16.752,0.4621,0.74389,0.4451,0.51569,0.52539
16.76,0.4621,0.7566,0.41961,0.6,0.55469
16.768,0.4621,0.76735,0.43529,0.68039,0.5957
16.776,0.4621,0.77419,0.56078,0.72549,0.70508
16.784,0.4621,0.7781,0.7902,0.81569,0.73047
16.792,0.4621,0.7781,1.0275,0.91569,0.38086
16.8,0.46455,0.77517,1.051,0.82157,-0.14453
16.808,0.46455,0.77028,0.41961,0.7549,-0.37891
16.816,0.46455,0.76246,0.04902,0.76078,-0.33008
16.824,0.46699,0.75171,-0.0019608,0.51961,-0.29492
16.832,0.46699,0.73803,0.04902,0.26863,-0.14844
16.84,0.46944,0.72141,0.17451,0.19412,0.16992
16.848,0.46944,0.70381,0.3,0.24902,0.4707
16.856,0.47188,0.68524,0.38431,0.35882,0.62891
16.864,0.47188,0.66569,0.41569,0.4098,0.66406
16.872,0.47433,0.64712,0.42941,0.41569,0.68555
16.88,0.47433,0.62952,0.43922,0.41961,0.69531
16.888,0.47433,0.61388,0.4451,0.42549,0.70508
16.896,0.47433,0.6002,0.4451,0.42549,0.70898
16.904,0.47188,0.58553,0.44902,0.41961,0.71484
16.912,0.47188,0.57185,0.44902,0.42549,0.7207
16.92,0.46944,0.55914,0.44902,0.41961,0.7207
16.928,0.46699,0.54643,0.44902,0.41961,0.72461
16.936,0.46455,0.53372,0.44902,0.41961,0.73047
16.944,0.45966,0.52102,0.4549,0.41569,0.73438
16.952,0.45721,0.50831,0.4549,0.41569,0.73438
16.96,0.45477,0.4956,0.46078,0.41569,0.75
16.968,0.44988,0.48387,0.4549,0.4098,0.74414
16.976,0.44743,0.47214,0.4549,0.4098,0.75391
16.984,0.44254,0.46041,0.46078,0.4,0.77539
16.992,0.4401,0.4477,0.46078,0.39412,0.79492
17,0.43765,0.43793,0.46471,0.39412,0.82422
17.008,0.43521,0.42815,0.47451,0.3902,0.85938
17.016,0.43032,0.4174,0.5098,0.38431,0.9043
17.024,0.42787,0.40665,0.52941,0.37451,0.94531
17.032,0.42543,0.39492,0.5451,0.37451,0.97461
17.04,0.42298,0.38416,0.56471,0.37451,1
17.048,0.42054,0.37243,0.5902,0.37451,1.0137
17.056,0.41809,0.36266,0.59608,0.3902,1.0254
17.064,0.41565,0.35191,0.60588,0.4,0.98438
17.072,0.4132,0.34115,0.5902,0.42549,0.94922
17.08,0.41076,0.33138,0.58039,0.4451,0.89453
17.088,0.40831,0.3216,0.56078,0.47059,0.83008
17.096,0.40831,0.31183,0.53922,0.49412,0.7793
17.104,0.40587,0.30401,0.51961,0.5098,0.74023
17.112,0.40342,0.29619,0.51961,0.51569,0.70898
17.12,0.40098,0.28739,0.51961,0.53529,0.70508
17.128,0.39853,0.27859,0.52549,0.55098,0.70898
17.136,0.39609,0.26979,0.51961,0.58431,0.72461
17.144,0.3912,0.26197,0.52549,0.59608,0.73438
17.152,0.38875,0.25611,0.52549,0.58039,0.73438
17.16,0.38142,0.25318,0.51961,0.56078,0.75391
17.168,0.37653,0.25611,0.51961,0.49412,0.76953
17.176,0.37164,0.26491,0.51961,0.46078,0.78516
17.184,0.36675,0.28152,0.51961,0.4549,0.78516
17.192,0.36186,0.30499,0.51569,0.44902,0.78516
17.2,0.35697,0.33529,0.5,0.46078,0.75977
17.208,0.35208,0.36559,0.4902,0.46471,0.7207
17.216,0.34719,0.39589,0.47059,0.49412,0.6543
17.224,0.34474,0.43206,0.46471,0.5,0.60547
17.232,0.33985,0.46921,0.46078,0.5,0.57422
17.24,0.33741,0.50538,0.4549,0.49412,0.57031
17.248,0.33252,0.54057,0.46471,0.4902,0.56055
17.256,0.32763,0.57283,0.47059,0.4902,0.55078
17.264,0.32274,0.60215,0.47451,0.48431,0.55078
17.272,0.3154,0.62854,0.47059,0.48431,0.55078
17.28,0.31051,0.65298,0.47451,0.48431,0.54492
17.288,0.30318,0.67449,0.46471,0.48431,0.53906
17.296,0.29829,0.69306,0.47059,0.5,0.54492
17.304,0.29095,0.71065,0.44902,0.58039,0.57031
17.312,0.28362,0.72239,0.4451,0.66078,0.59961
17.32,0.27628,0.73118,0.57451,0.7,0.69922
17.328,0.26895,0.73998,0.81176,0.79608,0.70898
17.336,0.26161,0.7478,1.0314,0.8902,0.33984
17.344,0.25428,0.75367,1.0471,0.81569,-0.18945
17.352,0.24939,0.75562,0.40392,0.76078,-0.42383
17.36,0.24205,0.75464,0.058824,0.76667,-0.33984
17.368,0.23716,0.74976,0.013725,0.51961,-0.28906
17.376,0.23227,0.74291,0.068627,0.27451,-0.13477
17.384,0.22738,0.73118,0.2,0.19412,0.19531
17.392,0.22249,0.7175,0.32353,0.24902,0.49023
17.4,0.2176,0.70186,0.4098,0.3549,0.64453
17.408,0.21271,0.68426,0.43922,0.3902,0.67578
17.416,0.20782,0.66764,0.44902,0.4098,0.68555
17.424,0.20293,0.652,0.46078,0.41569,0.70898
17.432,0.19804,0.63441,0.46471,0.41569,0.70898
17.44,0.19071,0.61779,0.47059,0.4098,0.71484
17.448,0.18582,0.59335,0.47451,0.41569,0.7207
17.456,0.17848,0.56598,0.47059,0.4098,0.73047
17.464,0.17115,0.54643,0.47451,0.4098,0.73438
17.472,0.16381,0.53079,0.47451,0.4098,0.73047
17.48,0.15648,0.51711,0.47451,0.40392,0.74414
17.488,0.14914,0.5044,0.47451,0.4098,0.75
17.496,0.13936,0.49267,0.47059,0.40392,0.74414
17.504,0.13203,0.48094,0.47059,0.40392,0.75391
17.512,0.12225,0.47019,0.47451,0.4,0.7793
17.52,0.11247,0.46041,0.47451,0.3902,0.78516
17.528,0.10269,0.45259,0.47451,0.3902,0.79883
17.536,0.09291,0.44282,0.47451,0.37451,0.81445
17.544,0.08313,0.43304,0.4902,0.36471,0.85938
17.552,0.07335,0.42326,0.50588,0.36471,0.90039
17.56,0.066015,0.41251,0.52549,0.35882,0.94922
17.568,0.056235,0.40176,0.55098,0.34902,0.99023
17.576,0.0489,0.39198,0.57059,0.3451,1.0137
17.584,0.041565,0.38123,0.5902,0.3451,1.0547
17.592,0.03423,0.37146,0.61569,0.3451,1.0703
17.6,0.02934,0.3607,0.61961,0.3549,1.0488
17.608,0.02445,0.35093,0.61569,0.38431,1.0195
17.616,0.01956,0.34213,0.6,0.4098,0.96484
17.624,0.01467,0.33431,0.5902,0.42941,0.9043
17.632,0.00978,0.32845,0.57059,0.4549,0.83984
17.64,0.00489,0.32063,0.55098,0.48039,0.7793
17.648,0.002445,0.31183,0.53922,0.4902,0.72461
17.656,-0.00489,0.30205,0.52941,0.50588,0.68555
17.664,-0.00978,0.29326,0.52549,0.5098,0.68945
17.672,-0.017115,0.28446,0.52941,0.51961,0.70508
17.68,-0.022005,0.27566,0.53922,0.55098,0.70898
17.688,-0.02934,0.26686,0.52941,0.58431,0.72461
17.696,-0.03423,0.25904,0.53922,0.5902,0.73047
17.704,-0.041565,0.25415,0.5451,0.57059,0.74414
17.712,-0.046455,0.25415,0.53922,0.53529,0.7793
17.72,-0.05379,0.25904,0.5451,0.47451,0.78906
17.728,-0.05868,0.26784,0.52549,0.46078,0.78516
17.736,-0.06357,0.28152,0.53922,0.4549,0.79883
17.744,-0.06846,0.30108,0.53529,0.44902,0.79492
17.752,-0.07335,0.32649,0.51961,0.46078,0.77539
17.76,-0.07824,0.35582,0.5,0.47059,0.73438
17.768,-0.08313,0.38807,0.48039,0.49412,0.66992
17.776,-0.08802,0.41935,0.47059,0.5098,0.60938
17.784,-0.09291,0.45064,0.47451,0.50588,0.58398
17.792,-0.095355,0.48094,0.46078,0.50588,0.57422
17.8,-0.10024,0.50831,0.46078,0.5098,0.56055
17.808,-0.10269,0.53372,0.4549,0.5,0.54492
17.816,-0.10758,0.55523,0.46471,0.5,0.55078
17.824,-0.11002,0.57576,0.47059,0.49412,0.56055
17.832,-0.11491,0.59042,0.47451,0.49412,0.55469
17.84,-0.1198,0.60313,0.47059,0.4902,0.55078
17.848,-0.12225,0.61486,0.46471,0.51569,0.55469
17.856,-0.12714,0.62561,0.44902,0.6,0.58984
17.864,-0.12958,0.63441,0.47451,0.67647,0.65039
17.872,-0.13203,0.64125,0.61569,0.70588,0.75391
17.88,-0.13447,0.64516,0.84118,0.7902,0.75977
17.888,-0.13692,0.64809,1.0275,0.86078,0.32422
17.896,-0.13692,0.64712,0.85098,0.80588,-0.24023
17.904,-0.13692,0.64321,0.3549,0.78039,-0.43359
17.912,-0.13692,0.63734,0.058824,0.79608,-0.32422
17.92,-0.13447,0.62854,0.023529,0.55098,-0.24414
17.928,-0.12958,0.61779,0.078431,0.3098,-0.09375
17.936,-0.12469,0.60606,0.20392,0.21961,0.23438
17.944,-0.11736,0.59335,0.33529,0.26471,0.50977
17.952,-0.11247,0.58162,0.41569,0.3549,0.64453
17.96,-0.10269,0.56891,0.43529,0.4,0.66406
17.968,-0.095355,0.55523,0.44902,0.41569,0.67969
17.976,-0.08802,0.54252,0.46471,0.41961,0.69922
17.984,-0.080685,0.52884,0.46471,0.41961,0.70898
17.992,-0.075795,0.51613,0.46078,0.42549,0.7207
18,-0.06846,0.50342,0.46078,0.41961,0.70898
18.008,-0.06846,0.49267,0.46471,0.41961,0.71484
18.016,-0.066015,0.48094,0.47059,0.41961,0.73438
18.024,-0.06846,0.47116,0.47059,0.42549,0.73438
18.032,-0.06846,0.46041,0.46471,0.42549,0.74414
18.04,-0.07335,0.45064,0.46471,0.42549,0.75
18.048,-0.07824,0.44184,0.47059,0.4098,0.74023
18.056,-0.08802,0.43402,0.47059,0.4098,0.75977
18.064,-0.095355,0.42424,0.47451,0.40392,0.7793
18.072,-0.10513,0.41447,0.47059,0.4,0.7793
18.08,-0.11491,0.40371,0.47451,0.3902,0.80469
18.088,-0.12469,0.39296,0.47451,0.38431,0.82422
18.096,-0.13447,0.38221,0.48039,0.38039,0.85547
18.104,-0.14181,0.37048,0.5098,0.35882,0.90039
18.112,-0.15159,0.35875,0.52941,0.3451,0.95508
18.12,-0.15648,0.348,0.5451,0.3451,0.99023
18.128,-0.16381,0.33724,0.56471,0.3451,1.0195
18.136,-0.17115,0.32747,0.5902,0.33922,1.0547
18.144,-0.17604,0.31769,0.59608,0.3451,1.0703
18.152,-0.18337,0.30987,0.60588,0.35882,1.0586
18.16,-0.18826,0.30303,0.6,0.3902,1.0137
18.168,-0.1956,0.29326,0.58039,0.41961,0.94531
18.176,-0.20293,0.28446,0.57059,0.4549,0.9043
18.184,-0.21027,0.27468,0.5451,0.48431,0.83398
18.192,-0.2176,0.26393,0.52941,0.50588,0.7793
18.2,-0.22738,0.25415,0.50588,0.52941,0.73047
18.208,-0.23472,0.24536,0.5,0.53922,0.70508
18.216,-0.2445,0.23558,0.50588,0.5549,0.67969
18.224,-0.25183,0.22581,0.5098,0.57059,0.66992
18.232,-0.26406,0.21701,0.51961,0.59608,0.70898
18.24,-0.27384,0.20821,0.50588,0.62941,0.7207
18.248,-0.28606,0.20137,0.5,0.63529,0.71484
18.256,-0.29829,0.19844,0.51569,0.61569,0.73438
18.264,-0.31051,0.19844,0.50588,0.57451,0.76562
18.272,-0.32274,0.20039,0.5098,0.5098,0.77539
18.28,-0.33252,0.20821,0.5098,0.4902,0.76562
18.288,-0.34474,0.2219,0.5098,0.49412,0.78906
18.296,-0.35697,0.24242,0.5,0.4902,0.80469
18.304,-0.36919,0.26784,0.49412,0.5,0.74414
18.312,-0.37897,0.29717,0.48039,0.5098,0.68945
18.32,-0.3912,0.32845,0.47059,0.52941,0.64453
18.328,-0.39853,0.3607,0.47451,0.52941,0.5957
18.336,-0.40831,0.39198,0.47059,0.52549,0.56445
18.344,-0.41565,0.42033,0.47451,0.51961,0.55469
18.352,-0.42054,0.44575,0.46471,0.52549,0.54492
18.36,-0.42787,0.4653,0.46471,0.51961,0.53906
18.368,-0.43276,0.47996,0.4549,0.52941,0.5293
18.376,-0.43765,0.49169,0.4549,0.52549,0.51953
18.384,-0.44254,0.50147,0.46078,0.51961,0.53516
18.392,-0.44743,0.50831,0.46471,0.5098,0.53516
18.4,-0.44988,0.51222,0.4549,0.53922,0.53906
18.408,-0.45477,0.51417,0.44902,0.63529,0.58008
18.416,-0.45721,0.5132,0.48431,0.69608,0.67578
18.424,-0.45966,0.51026,0.65098,0.73137,0.7793
18.432,-0.45966,0.50538,0.88039,0.81176,0.78516
18.44,-0.4621,0.49853,1.0216,0.85098,0.2207
18.448,-0.4621,0.48974,0.7549,0.7902,-0.34961
18.456,-0.4621,0.47801,0.30392,0.8,-0.47461
18.464,-0.4621,0.46628,0.07451,0.75098,-0.33008
18.472,-0.4621,0.45259,0.058824,0.53529,-0.19922
18.48,-0.45966,0.43402,0.11373,0.32353,-0.029297
18.488,-0.45966,0.41153,0.23922,0.2549,0.2793
18.496,-0.45966,0.38416,0.35882,0.30392,0.53516
18.504,-0.4621,0.35582,0.42941,0.3902,0.64062
18.512,-0.46455,0.32551,0.4549,0.41569,0.67969
18.52,-0.46944,0.29521,0.47059,0.42549,0.69531
18.528,-0.47433,0.26882,0.47059,0.43529,0.68555
18.536,-0.47922,0.24633,0.46471,0.43529,0.68555
18.544,-0.48655,0.22874,0.47451,0.43529,0.69922
18.552,-0.49389,0.21505,0.47451,0.43529,0.69922
18.56,-0.50122,0.20723,0.46471,0.43922,0.70898
18.568,-0.50856,0.2043,0.48039,0.42549,0.73047
18.576,-0.51834,0.20528,0.47451,0.41961,0.73438
18.584,-0.52567,0.20723,0.48039,0.41569,0.73438
18.592,-0.53545,0.21212,0.48431,0.41569,0.73438
18.6,-0.54523,0.21799,0.47059,0.41569,0.74414
18.608,-0.55501,0.22385,0.47451,0.41569,0.75977
18.616,-0.56235,0.23069,0.47451,0.4,0.76562
18.624,-0.57213,0.23656,0.48039,0.4,0.78516
18.632,-0.58191,0.24242,0.48039,0.3902,0.80469
18.64,-0.58924,0.24829,0.4902,0.38039,0.83008
18.648,-0.59658,0.2522,0.5,0.36471,0.87891
18.656,-0.60391,0.25611,0.51569,0.3549,0.92383
18.664,-0.61125,0.25904,0.53529,0.33922,0.96875
18.672,-0.61614,0.26295,0.5549,0.32353,1.0039
18.68,-0.62103,0.26588,0.57059,0.32353,1.0293
18.688,-0.62592,0.26784,0.5902,0.32941,1.0645
18.696,-0.63081,0.26882,0.60588,0.32941,1.0801
18.704,-0.63325,0.26882,0.6,0.34902,1.0586
18.712,-0.63814,0.26686,0.5902,0.38039,1.0195
18.72,-0.64303,0.26393,0.57451,0.41569,0.95508
18.728,-0.64792,0.261,0.56471,0.4451,0.89453
18.736,-0.65281,0.25611,0.53922,0.47451,0.83008
18.744,-0.6577,0.25122,0.51961,0.5,0.76953
18.752,-0.66504,0.24536,0.50588,0.51569,0.71484
18.76,-0.66993,0.23949,0.5,0.52941,0.68945
18.768,-0.67726,0.23363,0.5,0.5451,0.67969
18.776,-0.6846,0.22972,0.5,0.56471,0.67578
18.784,-0.68949,0.22581,0.51569,0.5902,0.70508
18.792,-0.69438,0.2219,0.50588,0.6098,0.71484
18.8,-0.69927,0.21896,0.51569,0.59608,0.70898
18.808,-0.70171,0.21799,0.51961,0.58039,0.73438
18.816,-0.70416,0.21994,0.51569,0.53529,0.77539
18.824,-0.7066,0.22581,0.5098,0.48431,0.76953
18.832,-0.7066,0.23558,0.50588,0.48039,0.78516
18.84,-0.70905,0.25024,0.5098,0.47451,0.79883
18.848,-0.70905,0.26882,0.4902,0.47451,0.77539
18.856,-0.71149,0.29228,0.48039,0.48431,0.75
18.864,-0.71149,0.31867,0.4902,0.4902,0.70508
18.872,-0.71394,0.34702,0.46078,0.51569,0.64062
18.88,-0.71394,0.37341,0.44902,0.52941,0.58984
18.888,-0.71638,0.39785,0.4549,0.51961,0.57031
18.896,-0.71638,0.42326,0.44902,0.51961,0.56055
18.904,-0.71638,0.44673,0.4451,0.52549,0.54492
18.912,-0.71638,0.46725,0.44902,0.51569,0.54492
18.92,-0.71638,0.48583,0.43922,0.51569,0.54492
18.928,-0.71394,0.50049,0.43922,0.51961,0.54492
18.936,-0.71149,0.5132,0.43922,0.51961,0.54492
18.944,-0.70905,0.52297,0.4451,0.51569,0.53906
18.952,-0.7066,0.53177,0.42941,0.5549,0.56055
18.96,-0.70171,0.53666,0.42549,0.65098,0.58398
18.968,-0.69682,0.53959,0.48039,0.70588,0.69922
18.976,-0.69193,0.53959,0.66471,0.7549,0.79883
18.984,-0.6846,0.53763,0.88627,0.86667,0.70508
18.992,-0.67726,0.53177,0.98235,0.88627,0.13086
19,-0.66993,0.52395,0.65098,0.77059,-0.375
19.008,-0.66015,0.51124,0.21373,0.76078,-0.44336
19.016,-0.65037,0.49658,0.033333,0.68039,-0.30469
19.024,-0.64303,0.47801,0.062745,0.42941,-0.21484
19.032,-0.63325,0.45846,0.11961,0.25882,0.0058594
19.04,-0.62347,0.43695,0.23333,0.23333,0.32422
19.048,-0.61369,0.41349,0.34902,0.33529,0.56055
19.056,-0.60636,0.38905,0.4,0.41569,0.63477
19.064,-0.59658,0.36559,0.41961,0.43922,0.65039
19.072,-0.58924,0.34311,0.42549,0.44902,0.66406
19.08,-0.58191,0.3216,0.42941,0.44902,0.67578
19.088,-0.57457,0.30303,0.43529,0.4549,0.68555
19.096,-0.56968,0.28837,0.43922,0.4549,0.68945
19.104,-0.56235,0.27664,0.43922,0.44902,0.68555
19.112,-0.55746,0.26393,0.43922,0.4451,0.69531
19.12,-0.55257,0.25024,0.4451,0.43922,0.69531
19.128,-0.54768,0.23558,0.43922,0.43529,0.68945
19.136,-0.54279,0.21896,0.4451,0.43529,0.70898
19.144,-0.5379,0.19941,0.44902,0.42941,0.7207
19.152,-0.53545,0.17791,0.43922,0.42549,0.72461
19.16,-0.53056,0.15543,0.43922,0.41961,0.73047
19.168,-0.52812,0.13099,0.44902,0.40392,0.74414
19.176,-0.52323,0.10655,0.4451,0.4,0.75391
19.184,-0.52078,0.082111,0.4451,0.4,0.77539
19.192,-0.51589,0.057674,0.4549,0.3902,0.81055
19.2,-0.51345,0.038123,0.46078,0.38039,0.84375
19.208,-0.50856,0.022483,0.47451,0.36471,0.88867
19.216,-0.50367,0.010753,0.5,0.36471,0.92969
19.224,-0.50122,0.0048876,0.51569,0.3549,0.96875
19.232,-0.49633,0.001955,0.5451,0.3549,1.0098
19.24,-0.49144,0.00097752,0.57059,0.34902,1.0391
19.248,-0.489,0,0.57451,0.3549,1.0391
19.256,-0.48655,0,0.57059,0.38039,1.0254
19.264,-0.48411,0,0.57059,0.39412,0.98047
19.272,-0.48411,0,0.55098,0.42941,0.91992
19.28,-0.48411,0,0.5549,0.44902,0.85938
19.288,-0.48411,0,0.51961,0.48039,0.79492
19.296,-0.48655,0,0.5,0.51569,0.75
19.304,-0.48655,0,0.4902,0.51961,0.68945
19.312,-0.489,0,0.47059,0.52941,0.6543
19.32,-0.49144,0,0.47451,0.53922,0.65039
19.328,-0.49389,0,0.4902,0.57059,0.66406
19.336,-0.49389,0,0.49412,0.6,0.68945
19.344,-0.49633,0,0.5,0.62549,0.69922
19.352,-0.49633,0,0.5,0.59608,0.69531
19.36,-0.49633,0,0.49412,0.58431,0.71484
19.368,-0.49389,0,0.48431,0.5451,0.74023
19.376,-0.49389,0,0.49412,0.48431,0.73438
19.384,-0.49389,0,0.47059,0.4902,0.75391
19.392,-0.49389,0,0.48039,0.47451,0.75391
19.4,-0.49633,0.00097752,0.4902,0.46471,0.73438
19.408,-0.49878,0.01173,0.47451,0.48039,0.70508
19.416,-0.50122,0.036168,0.46078,0.50588,0.65039
19.424,-0.50611,0.072336,0.4451,0.51961,0.58984
19.432,-0.511,0.11339,0.4451,0.52549,0.55078
19.44,-0.51589,0.15738,0.44902,0.51961,0.54492
19.448,-0.52078,0.20137,0.44902,0.52549,0.53906
19.456,-0.52812,0.24536,0.43922,0.52549,0.52539
19.464,-0.53301,0.28739,0.4451,0.52549,0.51953
19.472,-0.5379,0.32649,0.4451,0.51961,0.51953
19.48,-0.54279,0.36364,0.44902,0.51961,0.51953
19.488,-0.54768,0.39687,0.43922,0.5098,0.50977
19.496,-0.55257,0.46823,0.44902,0.5098,0.51953
19.504,-0.55501,0.55425,0.42941,0.57059,0.54492
19.512,-0.55501,0.60215,0.42549,0.67059,0.56445
19.52,-0.55746,0.6305,0.50588,0.71569,0.69531
19.528,-0.55501,0.64809,0.7,0.7902,0.75
19.536,-0.55501,0.65982,0.93137,0.92157,0.57031
19.544,-0.55012,0.66667,1.0118,0.86667,0.0058594
19.552,-0.54523,0.67058,0.58431,0.77059,-0.36914
19.56,-0.5379,0.67155,0.14902,0.76667,-0.39453
19.568,-0.53056,0.6696,0.023529,0.61569,-0.31836
19.576,-0.52323,0.66569,0.043137,0.3549,-0.22461
19.584,-0.51345,0.65982,0.12353,0.23333,0.050781
19.592,-0.50122,0.652,0.2549,0.22353,0.38086
19.6,-0.49144,0.64223,0.35882,0.35882,0.58984
19.608,-0.48166,0.63245,0.4,0.42549,0.64453
19.616,-0.46944,0.62366,0.41569,0.43529,0.66406
19.624,-0.4621,0.61486,0.40392,0.4549,0.67578
19.632,-0.45232,0.60508,0.42549,0.46078,0.68945
19.64,-0.44254,0.59531,0.42549,0.4549,0.68555
19.648,-0.43276,0.58553,0.42549,0.46078,0.69531
19.656,-0.42298,0.57674,0.42549,0.44902,0.69922
19.664,-0.41565,0.56891,0.43529,0.4451,0.70508
19.672,-0.40587,0.56305,0.42549,0.4451,0.69922
19.68,-0.39853,0.55621,0.42941,0.44902,0.70898
19.688,-0.3912,0.55132,0.43922,0.43922,0.71484
19.696,-0.38142,0.54545,0.41961,0.4451,0.70508
19.704,-0.37653,0.54057,0.41961,0.43922,0.7207
19.712,-0.37164,0.53568,0.4451,0.43529,0.74023
19.72,-0.36675,0.53177,0.43922,0.42941,0.75
19.728,-0.36186,0.52884,0.42549,0.42549,0.75391
19.736,-0.35697,0.5259,0.42549,0.41569,0.77539
19.744,-0.35452,0.52395,0.4451,0.41569,0.81445
19.752,-0.34963,0.52199,0.4549,0.4098,0.84375
19.76,-0.34474,0.52102,0.46078,0.40392,0.88477
19.768,-0.33985,0.52004,0.4902,0.3902,0.92969
19.776,-0.33496,0.51906,0.51961,0.38431,0.96875
19.784,-0.33252,0.51808,0.52549,0.3902,0.99023
19.792,-0.32763,0.51613,0.5451,0.38431,1.0098
19.8,-0.32518,0.51515,0.5549,0.39412,1.0137
19.808,-0.32029,0.51222,0.57059,0.4098,1
19.816,-0.31785,0.50831,0.56471,0.43922,0.95898
19.824,-0.31296,0.50342,0.5451,0.46078,0.90039
19.832,-0.31296,0.49853,0.53529,0.4902,0.83984
19.84,-0.31051,0.49365,0.51961,0.51569,0.7793
19.848,-0.30807,0.48583,0.50588,0.52549,0.73438
19.856,-0.30807,0.47801,0.5,0.52941,0.69531
19.864,-0.30562,0.46823,0.49412,0.5451,0.66406
19.872,-0.30562,0.45846,0.4902,0.56471,0.66992
19.88,-0.30562,0.4477,0.5,0.5902,0.68945
19.888,-0.30562,0.43695,0.5,0.61961,0.70508
19.896,-0.30562,0.4262,0.5,0.62549,0.71484
19.904,-0.30562,0.41838,0.5,0.60588,0.70508
19.912,-0.30562,0.41447,0.50588,0.57451,0.75
19.92,-0.30562,0.41447,0.5,0.51961,0.75977
19.928,-0.30318,0.41935,0.5,0.48431,0.75977
19.936,-0.30318,0.42815,0.5,0.48431,0.76562
19.944,-0.30073,0.44184,0.5,0.48039,0.76953
19.952,-0.29829,0.46041,0.4902,0.48431,0.74023
19.96,-0.2934,0.48094,0.48039,0.49412,0.69922
19.968,-0.29095,0.50342,0.46078,0.52549,0.64453
19.976,-0.28606,0.52688,0.4451,0.52941,0.58398
19.984,-0.27873,0.54936,0.43529,0.52941,0.55078
19.992,-0.27384,0.56989,0.42941,0.52941,0.54492
20,-0.2665,0.59042,0.4451,0.52549,0.53516
20.008,-0.25672,0.60899,0.43529,0.52941,0.52539
20.016,-0.24694,0.62659,0.42941,0.52549,0.51953
20.024,-0.23716,0.64223,0.43922,0.51961,0.51953
20.032,-0.22738,0.65591,0.4451,0.51569,0.51953
20.04,-0.2176,0.66764,0.43922,0.5098,0.51953
20.048,-0.20538,0.67937,0.42549,0.52941,0.52539
20.056,-0.1956,0.69208,0.42549,0.61569,0.56445
20.064,-0.18337,0.70283,0.43529,0.7,0.60547
20.072,-0.17359,0.71359,0.56078,0.7451,0.70898
20.08,-0.16381,0.72336,0.7902,0.83529,0.73438
20.088,-0.15159,0.73118,1.0275,0.91569,0.36523
20.096,-0.14181,0.73705,1.0373,0.83137,-0.1543
20.104,-0.13203,0.74096,0.39412,0.76667,-0.36914
20.112,-0.1198,0.74194,0.052941,0.72549,-0.33008
20.12,-0.10758,0.74096,0.013725,0.5,-0.29883
20.128,-0.095355,0.73705,0.062745,0.26471,-0.13477
20.136,-0.08313,0.73216,0.18431,0.20392,0.18555
20.144,-0.06846,0.7263,0.3098,0.26471,0.47461
20.152,-0.05379,0.71945,0.38431,0.38039,0.60938
20.16,-0.041565,0.70968,0.41569,0.41961,0.6543
20.168,-0.02934,0.6999,0.42549,0.42941,0.67578
20.176,-0.01467,0.68817,0.43922,0.43529,0.68945
20.184,-0.00489,0.67742,0.43922,0.43529,0.69531
20.192,0.00489,0.66667,0.4451,0.43529,0.70898
20.2,0.012225,0.65689,0.4451,0.43529,0.70508
20.208,0.01956,0.64712,0.44902,0.43529,0.70898
20.216,0.02445,0.63832,0.4451,0.43529,0.70898
20.224,0.02934,0.6305,0.44902,0.43529,0.7207
20.232,0.031785,0.62268,0.4451,0.43529,0.7207
20.24,0.03423,0.61486,0.44902,0.41961,0.72461
20.248,0.03423,0.60899,0.43922,0.42549,0.73047
20.256,0.03423,0.60411,0.4451,0.41961,0.73438
20.264,0.03423,0.59824,0.44902,0.41569,0.74023
20.272,0.031785,0.59238,0.4549,0.41569,0.75391
20.28,0.031785,0.58651,0.46078,0.41569,0.7793
20.288,0.02934,0.58065,0.46471,0.40392,0.79883
20.296,0.02934,0.57478,0.46471,0.4,0.82031
20.304,0.026895,0.56794,0.47451,0.39412,0.85547
20.312,0.026895,0.56109,0.49412,0.3902,0.90039
20.32,0.026895,0.55327,0.51961,0.37451,0.93945
20.328,0.026895,0.54545,0.5451,0.37059,0.96875
20.336,0.02934,0.53666,0.5549,0.37451,1
20.344,0.02934,0.52884,0.57059,0.37059,1.0039
20.352,0.031785,0.52199,0.58431,0.38039,0.99414
20.36,0.03423,0.51613,0.5902,0.39412,0.96484
20.368,0.036675,0.51026,0.57059,0.42941,0.91406
20.376,0.03912,0.50342,0.5549,0.44902,0.85547
20.384,0.04401,0.49756,0.53922,0.46471,0.79492
20.392,0.0489,0.49169,0.51961,0.48431,0.74023
20.4,0.05379,0.48583,0.50588,0.49412,0.68945
20.408,0.05868,0.47996,0.5,0.5,0.66016
20.416,0.06357,0.4741,0.5098,0.50588,0.6543
20.424,0.06846,0.46921,0.5,0.52941,0.65039
20.432,0.07335,0.46432,0.51569,0.57451,0.68555
20.44,0.080685,0.45943,0.51961,0.5902,0.69922
20.448,0.085575,0.4565,0.51569,0.58039,0.68945
20.456,0.090465,0.4565,0.52549,0.56471,0.72461
20.464,0.095355,0.45943,0.51961,0.51961,0.75
20.472,0.10024,0.4653,0.5098,0.47451,0.74414
20.48,0.10513,0.47507,0.51569,0.46078,0.75
20.488,0.11002,0.48876,0.50588,0.4549,0.75
20.496,0.11491,0.50635,0.5098,0.4549,0.73047
20.504,0.11736,0.52688,0.48039,0.46471,0.69922
20.512,0.12225,0.55034,0.46471,0.49412,0.64453
20.52,0.12469,0.5738,0.44902,0.51569,0.58398
20.528,0.12714,0.59726,0.4451,0.51569,0.54492
20.536,0.12958,0.61877,0.43922,0.5098,0.51953
20.544,0.13203,0.64027,0.4451,0.50588,0.50977
20.552,0.13203,0.65885,0.42941,0.5098,0.5
20.56,0.13447,0.67449,0.41961,0.51569,0.49414
20.568,0.13692,0.68719,0.42941,0.51569,0.5
20.576,0.13692,0.70088,0.43922,0.5098,0.50586
20.584,0.13692,0.71457,0.43922,0.50588,0.5
20.592,0.13936,0.7263,0.42941,0.50588,0.49023
20.6,0.14181,0.73803,0.41569,0.56471,0.51953
20.608,0.14425,0.74878,0.41569,0.6549,0.53906
20.616,0.1467,0.75758,0.4902,0.7,0.63477
20.624,0.14914,0.7654,0.67647,0.77059,0.68555
20.632,0.15648,0.77224,0.92549,0.90196,0.51953
20.64,0.16137,0.77615,1.0275,0.85098,-0.0097656
20.648,0.1687,0.77908,0.6,0.76667,-0.38477
20.656,0.17848,0.77908,0.13922,0.75098,-0.41406
20.664,0.18826,0.77713,-0.011765,0.6098,-0.34375
20.672,0.19804,0.77419,0.0078431,0.34902,-0.26953
20.68,0.20782,0.76931,0.11373,0.2098,0.0058594
20.688,0.22005,0.76246,0.24902,0.2,0.33008
20.696,0.23227,0.75367,0.35882,0.32353,0.55469
20.704,0.2445,0.74487,0.41961,0.38431,0.625
20.712,0.25672,0.73412,0.42941,0.4098,0.64062
20.72,0.26895,0.72336,0.43529,0.41961,0.6543
20.728,0.27873,0.71359,0.43529,0.42941,0.66406
20.736,0.29095,0.70381,0.4451,0.42941,0.67578
20.744,0.30073,0.69501,0.44902,0.41961,0.68555
20.752,0.31051,0.68622,0.44902,0.41961,0.68555
20.76,0.31785,0.6784,0.4549,0.42549,0.68945
20.768,0.32763,0.67253,0.44902,0.42549,0.69531
20.776,0.33496,0.66667,0.4549,0.41961,0.70898
20.784,0.3423,0.6608,0.46078,0.41569,0.70898
20.792,0.34719,0.65494,0.4549,0.41961,0.70898
20.8,0.35208,0.64809,0.46078,0.41961,0.72461
20.808,0.35697,0.64223,0.46078,0.41569,0.74023
20.816,0.36186,0.63539,0.46471,0.41961,0.75391
20.824,0.36186,0.62854,0.46078,0.42549,0.77539
20.832,0.3643,0.6217,0.47451,0.41961,0.79883
20.84,0.36675,0.61486,0.48431,0.42549,0.82422
20.848,0.36675,0.60802,0.51569,0.41961,0.875
20.856,0.36675,0.60117,0.53529,0.41569,0.92383
20.864,0.36675,0.59433,0.57451,0.4098,0.98047
20.872,0.3643,0.58847,0.60588,0.4098,1.0195
20.88,0.3643,0.58358,0.62549,0.41569,1.0488
20.888,0.36186,0.57771,0.6451,0.41961,1.0742
20.896,0.35941,0.57185,0.67059,0.42941,1.084
20.904,0.35452,0.56598,0.67647,0.44902,1.0703
20.912,0.35208,0.56012,0.66471,0.48039,1.0254
20.92,0.34719,0.55523,0.65098,0.50588,0.97461
20.928,0.3423,0.54936,0.63529,0.53922,0.91406
20.936,0.33741,0.54448,0.61569,0.5549,0.85547
20.944,0.33252,0.53959,0.6098,0.57059,0.81055
20.952,0.32518,0.5347,0.59608,0.58039,0.77539
20.96,0.31785,0.52884,0.58039,0.6,0.75391
20.968,0.31051,0.52297,0.58039,0.61569,0.75977
20.976,0.30073,0.51808,0.58431,0.6451,0.76953
20.984,0.2934,0.5132,0.58039,0.67059,0.78906
20.992,0.28362,0.51026,0.57451,0.66471,0.78906
21,0.27384,0.50831,0.58431,0.65098,0.79883
21.008,0.26406,0.50733,0.58039,0.6098,0.83008
21.016,0.25428,0.50929,0.57059,0.55098,0.82422
21.024,0.2445,0.51711,0.57059,0.52549,0.83984
21.032,0.23227,0.52786,0.57059,0.51569,0.84961
