Time [s], RESP, II, V, AVR, PLETH
0,0.30258,0.66471,0.97461,0.23438,0.4868
0.008,0.32472,0.67059,0.98047,0.22461,0.46921
0.016,0.34686,0.65098,0.97461,0.24609,0.45259
0.024,0.37023,0.6902,0.96484,0.2207,0.43988
0.032,0.3936,0.7,0.95898,0.21094,0.42815
0.04,0.41943,0.68039,0.96484,0.2207,0.4174
0.048,0.44403,0.7,0.95508,0.21094,0.40665
0.056,0.4674,0.71569,0.95898,0.19531,0.39687
0.064,0.49077,0.72549,0.95508,0.18555,0.39003
0.072,0.51169,0.71569,0.95898,0.19531,0.38416
0.08,0.5326,0.7451,0.94531,0.16992,0.38123
0.088,0.55474,0.76078,0.95508,0.16016,0.3783
0.096,0.57688,0.77059,0.95898,0.15039,0.37634
0.104,0.59779,0.81176,0.95508,0.11523,0.37439
0.112,0.61993,0.82549,0.95898,0.099609,0.37243
0.12,0.64084,0.86667,0.94922,0.080078,0.37048
0.128,0.66298,0.87059,0.94531,0.076172,0.36852
0.136,0.68266,0.90196,0.94531,0.054688,0.36657
0.144,0.70357,0.91569,0.93945,0.044922,0.36266
0.152,0.72079,0.91176,0.94531,0.054688,0.35973
0.16,0.73801,0.92157,0.94531,0.050781,0.35582
0.168,0.75277,0.90196,0.96484,0.070312,0.35191
0.176,0.76753,0.86078,0.96875,0.099609,0.34897
0.184,0.78229,0.82549,0.97461,0.125,0.34506
0.192,0.79705,0.78039,0.98047,0.16602,0.34115
0.2,0.81058,0.75098,0.99414,0.18945,0.33724
0.208,0.82411,0.72549,0.99023,0.21094,0.33431
0.216,0.83641,0.6902,0.99023,0.23438,0.3304
0.224,0.84748,0.7,0.98438,0.22461,0.32747
0.232,0.85855,0.67647,0.99023,0.23438,0.32551
0.24,0.86839,0.6902,0.99414,0.22461,0.32258
0.248,0.87946,0.67647,0.99414,0.24023,0.32063
0.256,0.89053,0.68039,0.99414,0.23047,0.31867
0.264,0.90283,0.66471,1,0.24023,0.31672
0.272,0.91513,0.67647,0.99414,0.23047,0.31476
0.28,0.92743,0.66078,1,0.24609,0.31281
0.288,0.94096,0.67647,0.99023,0.23047,0.31085
0.296,0.95449,0.68627,0.99414,0.22461,0.3089
0.304,0.96802,0.68039,0.99414,0.22461,0.30792
0.312,0.98032,0.67059,0.99023,0.23438,0.30596
0.32,0.99262,0.67059,0.99023,0.24609,0.30401
0.328,1.0037,0.67647,0.99023,0.23438,0.30205
0.336,1.0148,0.66471,0.99023,0.24023,0.29912
0.344,1.0258,0.68627,0.99023,0.22461,0.29521
0.352,1.0369,0.71569,1.0039,0.20508,0.29228
0.36,1.0467,0.72549,1.0039,0.20117,0.29032
0.368,1.0566,0.7098,1.0098,0.21094,0.2913
0.376,1.064,0.72549,0.99023,0.19531,0.29619
0.384,1.0726,0.7451,0.97461,0.17578,0.30596
0.392,1.08,0.78627,0.95898,0.14453,0.32063
0.4,1.0873,0.7451,0.93945,0.17578,0.34018
0.408,1.091,0.74118,0.94922,0.18555,0.36461
0.416,1.0959,0.70588,0.95508,0.2207,0.38807
0.424,1.0984,0.68039,0.94922,0.23047,0.41251
0.432,1.1009,0.66471,0.94922,0.23438,0.43891
0.44,1.1009,0.66078,0.94531,0.23438,0.46628
0.448,1.1009,0.63529,0.95898,0.24609,0.49365
0.456,1.0996,0.64118,0.95508,0.25,0.51613
0.464,1.0984,0.62549,0.95898,0.26562,0.53568
0.472,1.0972,0.62941,0.95898,0.25586,0.5523
0.48,1.0947,0.61961,0.96484,0.25977,0.565
0.488,1.0923,0.6098,0.98047,0.26953,0.57478
0.496,1.0898,0.51961,1.0488,0.37109,0.5826
0.504,1.0861,0.47451,1.1602,0.39453,0.58847
0.512,1.0824,0.88039,1.2891,0.064453,0.59238
0.52,1.0787,1.5039,1.1387,-0.49805,0.59629
0.528,1.0738,1.5039,0.88477,-0.49805,0.59824
0.536,1.0701,1.4824,0.83008,-0.42383,0.6002
0.544,1.0652,0.7549,0.9043,0.17969,0.6002
0.552,1.0615,0.46471,0.86914,0.4043,0.60117
0.56,1.0566,0.50588,0.89453,0.36523,0.6002
0.568,1.0517,0.53529,0.92383,0.33008,0.59824
0.576,1.0467,0.5451,0.94531,0.31445,0.59433
0.584,1.0418,0.55098,0.94922,0.32031,0.58944
0.592,1.0369,0.56078,0.95508,0.29492,0.58065
0.6,1.0295,0.56078,0.95508,0.31445,0.56989
0.608,1.0234,0.56471,0.95508,0.29492,0.55718
0.616,1.0148,0.56078,0.95898,0.30078,0.54448
0.624,1.0074,0.58431,0.95898,0.28516,0.53275
0.632,0.99877,0.58039,0.96484,0.28516,0.51808
0.64,0.99139,0.5902,0.95898,0.28516,0.50244
0.648,0.98278,0.59608,0.96875,0.27539,0.48778
0.656,0.97417,0.60588,0.97461,0.26953,0.4741
0.664,0.96433,0.59608,0.98047,0.27539,0.46139
0.672,0.95572,0.60588,0.96875,0.26953,0.45064
0.68,0.94465,0.6098,0.96875,0.26953,0.44086
0.688,0.93481,0.62549,0.96484,0.25977,0.43402
0.696,0.92497,0.64118,0.96484,0.24609,0.42815
0.704,0.91513,0.65098,0.95508,0.23438,0.42522
0.712,0.90652,0.64118,0.95508,0.24609,0.42229
0.72,0.89791,0.65098,0.94922,0.23438,0.42033
0.728,0.8893,0.67059,0.94922,0.22461,0.41838
0.736,0.87946,0.69608,0.95508,0.20117,0.41642
0.744,0.87085,0.7,0.95898,0.19531,0.41447
0.752,0.86224,0.72157,0.96484,0.17578,0.41153
0.76,0.85363,0.7549,0.96484,0.15039,0.4086
0.768,0.84502,0.7902,0.97461,0.125,0.40567
0.776,0.83641,0.81176,0.96484,0.10547,0.40176
0.784,0.8278,0.83137,0.96875,0.095703,0.39785
0.792,0.81919,0.85098,0.96484,0.085938,0.39394
0.8,0.81181,0.86078,0.96484,0.076172,0.38905
0.808,0.8032,0.87647,0.96484,0.060547,0.38416
0.816,0.79582,0.86078,0.96484,0.076172,0.38123
0.824,0.78598,0.86667,0.95898,0.080078,0.37928
0.832,0.77491,0.82549,0.96484,0.10547,0.37732
0.84,0.76384,0.8,0.96484,0.125,0.37732
0.848,0.75154,0.7451,0.96484,0.16602,0.37634
0.856,0.73924,0.7098,0.96484,0.19531,0.37439
0.864,0.72694,0.67059,0.96484,0.22461,0.37243
0.872,0.71341,0.65098,0.95508,0.24609,0.3695
0.88,0.70111,0.62549,0.95508,0.25977,0.36657
0.888,0.68635,0.62549,0.94531,0.25977,0.36364
0.896,0.67159,0.6098,0.93945,0.26953,0.35973
0.904,0.6556,0.61569,0.94922,0.26562,0.35582
0.912,0.63961,0.6098,0.95508,0.27539,0.35191
0.92,0.62362,0.62549,0.95508,0.26562,0.34995
0.928,0.60763,0.61569,0.95508,0.26953,0.34702
0.936,0.59287,0.6098,0.95898,0.2793,0.34409
0.944,0.57688,0.63529,0.96484,0.25586,0.34115
0.952,0.56335,0.64118,0.96875,0.24609,0.33724
0.96,0.54982,0.62941,0.96875,0.25977,0.33431
0.968,0.53875,0.62549,0.96875,0.26953,0.3304
0.976,0.52768,0.62941,0.96875,0.25586,0.32649
0.984,0.51784,0.61961,0.97461,0.26562,0.32356
0.992,0.508,0.62941,0.96484,0.25977,0.32063
1,0.49938,0.62549,0.96484,0.26562,0.31867
1.008,0.492,0.6451,0.96484,0.24609,0.31769
1.016,0.48462,0.65098,0.98047,0.24023,0.31867
1.024,0.47847,0.67647,0.99023,0.22461,0.3216
1.032,0.47232,0.67647,0.99023,0.23047,0.32649
1.04,0.4674,0.69608,0.97461,0.21484,0.33627
1.048,0.46371,0.7,0.94922,0.20508,0.35093
1.056,0.46002,0.72549,0.93945,0.18555,0.37146
1.064,0.45756,0.73529,0.92969,0.16992,0.39589
1.072,0.45633,0.72157,0.92383,0.18555,0.42326
1.08,0.45633,0.6902,0.93945,0.22461,0.45357
1.088,0.45756,0.67647,0.93945,0.22461,0.48289
1.096,0.45879,0.64118,0.93555,0.24609,0.51222
1.104,0.46002,0.61961,0.93945,0.25586,0.53861
1.112,0.46248,0.6,0.93555,0.26953,0.56207
1.12,0.46371,0.5902,0.93945,0.2793,0.57967
1.128,0.46617,0.59608,0.93945,0.26953,0.59238
1.136,0.4674,0.60588,0.94531,0.27539,0.60508
1.144,0.46986,0.60588,0.93945,0.25977,0.61681
1.152,0.47109,0.58431,0.94922,0.28516,0.62659
1.16,0.47355,0.53922,1.0039,0.3457,0.63539
1.168,0.47478,0.47059,1.0898,0.39062,0.64223
1.176,0.47601,0.71569,1.2598,0.18945,0.64809
1.184,0.47847,1.3667,1.2988,-0.33008,0.65298
1.192,0.47847,1.5039,0.95508,-0.49805,0.65591
1.2,0.4797,1.5039,0.81445,-0.49805,0.65787
1.208,0.4797,0.92157,0.83984,0.025391,0.65885
1.216,0.4797,0.4902,0.83008,0.38086,0.65689
1.224,0.47847,0.47451,0.87891,0.39062,0.65494
1.232,0.47724,0.56078,0.92969,0.31055,0.65298
1.24,0.47601,0.58039,0.94531,0.29492,0.65005
1.248,0.47355,0.56471,0.95508,0.30469,0.64516
1.256,0.47109,0.58039,0.95898,0.29492,0.64027
1.264,0.46863,0.57059,0.95508,0.30469,0.63441
1.272,0.46617,0.58039,0.95898,0.29492,0.62561
1.28,0.46248,0.58431,0.95508,0.28516,0.61681
1.288,0.46002,0.60588,0.95508,0.26953,0.60508
1.296,0.45756,0.60588,0.95898,0.2793,0.5914
1.304,0.4551,0.61569,0.95898,0.26562,0.57478
1.312,0.45264,0.6,0.95898,0.27539,0.55718
1.32,0.45141,0.6098,0.95898,0.26953,0.54154
1.328,0.44895,0.61569,0.96484,0.26953,0.52688
1.336,0.44772,0.62549,0.95898,0.25,0.51222
1.344,0.44649,0.63529,0.96484,0.25,0.49658
1.352,0.44649,0.65098,0.95898,0.24023,0.48289
1.36,0.44649,0.65098,0.95898,0.24609,0.46921
1.368,0.44649,0.64118,0.94922,0.25,0.45846
1.376,0.44649,0.67647,0.95508,0.2207,0.44966
1.384,0.44649,0.68627,0.95898,0.21094,0.44282
1.392,0.44772,0.7,0.95508,0.20117,0.43891
1.4,0.45018,0.71569,0.95898,0.18945,0.435
1.408,0.45264,0.73529,0.95898,0.17578,0.43304
1.416,0.4551,0.7451,0.95898,0.16602,0.43109
1.424,0.45879,0.7902,0.95898,0.13086,0.43011
1.432,0.46002,0.81569,0.95898,0.10547,0.42815
1.44,0.46248,0.8451,0.95508,0.085938,0.42522
1.448,0.46494,0.87059,0.95898,0.064453,0.42229
1.456,0.46617,0.89608,0.95898,0.050781,0.41838
1.464,0.46617,0.90588,0.96484,0.044922,0.41447
1.472,0.4674,0.92549,0.96484,0.03125,0.41153
1.48,0.46617,0.91176,0.96484,0.044922,0.40762
1.488,0.46617,0.90588,0.96484,0.041016,0.40371
1.496,0.46494,0.87059,0.97461,0.070312,0.39883
1.504,0.46371,0.84118,0.97461,0.089844,0.39394
1.512,0.46002,0.7902,0.98047,0.13477,0.39003
1.52,0.45756,0.75098,0.97461,0.16602,0.38612
1.528,0.45264,0.7,0.97461,0.20508,0.38319
1.536,0.44649,0.67647,0.96875,0.2207,0.38123
1.544,0.43911,0.6549,0.96484,0.23438,0.37928
1.552,0.4305,0.65098,0.96484,0.24609,0.37732
1.56,0.42189,0.64118,0.96484,0.24609,0.37732
1.568,0.41205,0.62941,0.96875,0.25586,0.37634
1.576,0.40098,0.62549,0.96484,0.26562,0.37439
1.584,0.38991,0.63529,0.96875,0.25,0.37341
1.592,0.38007,0.6451,0.96484,0.24609,0.37146
1.6,0.37023,0.6451,0.97461,0.25,0.36852
1.608,0.36039,0.65098,0.97461,0.24609,0.36461
1.616,0.35055,0.62941,0.97461,0.25977,0.3871
1.624,0.34071,0.62549,0.96875,0.26562,0.42326
1.632,0.3321,0.63529,0.97461,0.25,0.43988
1.64,0.32349,0.6451,0.97461,0.24609,0.44673
1.648,0.31488,0.63529,0.97461,0.25586,0.44966
1.656,0.30873,0.6451,0.96484,0.24609,0.44966
1.664,0.30135,0.62941,0.96484,0.25,0.4477
1.672,0.29643,0.65098,0.96484,0.24023,0.44673
1.68,0.29151,0.6549,0.96875,0.24609,0.44575
1.688,0.28782,0.67647,0.98047,0.23047,0.4477
1.696,0.2829,0.67059,0.98438,0.24023,0.45259
1.704,0.28044,0.6902,0.97461,0.22461,0.46139
1.712,0.27675,0.7,0.94922,0.21484,0.47507
1.72,0.27552,0.72549,0.93945,0.17969,0.48974
1.728,0.27429,0.7451,0.93945,0.16992,0.50733
1.736,0.27429,0.71569,0.92969,0.18555,0.52981
1.744,0.27429,0.69608,0.92969,0.2207,0.55425
1.752,0.27552,0.67647,0.93945,0.23438,0.57967
1.76,0.27552,0.65098,0.93555,0.24609,0.60411
1.768,0.27675,0.63529,0.93945,0.25,0.62757
1.776,0.27798,0.61569,0.93555,0.26562,0.64809
1.784,0.28044,0.60588,0.93555,0.27539,0.66667
1.792,0.2829,0.6,0.92969,0.26953,0.68328
1.8,0.28659,0.59608,0.94531,0.27539,0.69697
1.808,0.29028,0.60588,0.93945,0.2793,0.70968
1.816,0.29274,0.6,0.94922,0.26953,0.7175
1.824,0.29643,0.60588,0.96875,0.28516,0.72239
1.832,0.29889,0.5,1.0391,0.36523,0.72825
1.84,0.30258,0.48039,1.1289,0.38086,0.73216
1.848,0.30504,0.93137,1.2539,0.0058594,0.73607
1.856,0.3075,1.5039,1.0801,-0.49805,0.739
1.864,0.30996,1.5039,0.84961,-0.49805,0.74096
1.872,0.31365,1.2824,0.82031,-0.26367,0.74096
1.88,0.31611,0.66471,0.85938,0.24609,0.739
1.888,0.31857,0.47451,0.86914,0.4043,0.73607
1.896,0.3198,0.5451,0.91992,0.3457,0.73216
1.904,0.32226,0.58039,0.94531,0.30078,0.72727
1.912,0.32472,0.58431,0.95898,0.30078,0.72239
1.92,0.32595,0.58039,0.96484,0.30078,0.7175
1.928,0.32718,0.57451,0.95898,0.30078,0.71359
1.936,0.32964,0.6,0.96484,0.2793,0.70772
1.944,0.32964,0.60588,0.96484,0.2793,0.70088
1.952,0.33087,0.61569,0.96484,0.26953,0.69208
1.96,0.3321,0.60588,0.96484,0.27539,0.68133
1.968,0.3321,0.61569,0.96484,0.26953,0.6696
1.976,0.3321,0.62549,0.96484,0.26562,0.65689
1.984,0.33333,0.61569,0.96484,0.26953,0.64418
1.992,0.33333,0.62549,0.96484,0.25977,0.62952
2,0.33333,0.62941,0.96875,0.26953,0.61584
2.008,0.33333,0.63529,0.97461,0.25586,0.60215
2.016,0.33333,0.62941,0.96875,0.25977,0.59042
2.024,0.33333,0.65098,0.96875,0.24609,0.58065
2.032,0.33333,0.6549,0.96875,0.24609,0.57087
2.04,0.33333,0.66471,0.96484,0.23047,0.56207
2.048,0.33333,0.66078,0.95898,0.23438,0.55327
2.056,0.33333,0.70588,0.95508,0.20117,0.54643
2.064,0.33333,0.7098,0.95508,0.20117,0.54057
2.072,0.33333,0.73137,0.95508,0.17578,0.53568
2.08,0.33333,0.73529,0.95508,0.17578,0.53079
2.088,0.33456,0.77059,0.94922,0.14453,0.52786
2.096,0.33579,0.7902,0.95508,0.13477,0.52493
2.104,0.33702,0.84118,0.94922,0.095703,0.52297
2.112,0.33825,0.86667,0.94922,0.080078,0.52199
2.12,0.33948,0.88039,0.95508,0.064453,0.52004
2.128,0.34194,0.88627,0.94531,0.060547,0.51906
2.136,0.34317,0.91176,0.95508,0.041016,0.51711
2.144,0.3444,0.92157,0.95508,0.035156,0.51515
2.152,0.34563,0.89608,0.95898,0.054688,0.51222
2.16,0.34563,0.87059,0.96484,0.070312,0.50929
2.168,0.3444,0.84118,0.96875,0.089844,0.50538
2.176,0.3444,0.80588,0.98438,0.12109,0.50244
2.184,0.34071,0.76078,0.99023,0.15039,0.49853
2.192,0.33825,0.72157,0.98438,0.18945,0.49462
2.2,0.33333,0.68039,0.98438,0.21484,0.49169
2.208,0.32841,0.66078,0.98047,0.23047,0.48876
2.216,0.32103,0.6451,0.98047,0.24609,0.48778
2.224,0.31488,0.64118,0.97461,0.24609,0.48583
2.232,0.3075,0.62941,0.98047,0.25977,0.48485
2.24,0.30012,0.62941,0.97461,0.26562,0.48289
2.248,0.29274,0.61961,0.97461,0.26953,0.48192
2.256,0.28536,0.62549,0.97461,0.26562,0.47996
2.264,0.27798,0.61961,0.98438,0.26953,0.47801
2.272,0.2706,0.62941,0.98047,0.25977,0.47605
2.28,0.26322,0.61569,0.98438,0.27539,0.47312
2.288,0.25707,0.62549,0.98438,0.26953,0.47019
2.296,0.24969,0.60588,0.98438,0.2793,0.46823
2.304,0.24354,0.61961,0.98047,0.26953,0.46725
2.312,0.23862,0.6,0.98438,0.28516,0.46725
2.32,0.2337,0.62549,0.97461,0.26562,0.46628
2.328,0.22878,0.63529,0.98047,0.25586,0.4653
2.336,0.22509,0.61961,0.97461,0.26953,0.46334
2.344,0.22263,0.62941,0.97461,0.26562,0.46139
2.352,0.21894,0.64118,0.98438,0.25,0.46041
2.36,0.21894,0.65098,0.99023,0.24609,0.46237
2.368,0.21771,0.67647,0.99023,0.25586,0.46823
2.376,0.21894,0.69608,0.98438,0.22461,0.47898
2.384,0.22017,0.6902,0.96484,0.2207,0.49462
2.392,0.2214,0.72157,0.95508,0.19531,0.51515
2.4,0.22263,0.72549,0.94531,0.17969,0.53861
2.408,0.22386,0.68627,0.93945,0.21094,0.565
2.416,0.22632,0.68039,0.94922,0.22461,0.58944
2.424,0.22878,0.66078,0.95508,0.24609,0.61193
2.432,0.23124,0.62941,0.94531,0.25586,0.63539
2.44,0.23493,0.61961,0.94531,0.25977,0.65689
2.448,0.23862,0.60588,0.94531,0.27539,0.67546
2.456,0.24231,0.6,0.93945,0.26953,0.69208
2.464,0.246,0.58039,0.93945,0.29102,0.70479
2.472,0.24846,0.58039,0.93945,0.28516,0.71457
2.48,0.25215,0.58431,0.94922,0.29102,0.72141
2.488,0.25584,0.58431,0.95508,0.28516,0.7263
2.496,0.2583,0.53922,1,0.33984,0.73021
2.504,0.26199,0.47451,1.0645,0.39453,0.73216
2.512,0.26568,0.59608,1.1797,0.29102,0.73216
2.52,0.26937,1.1314,1.2344,-0.17383,0.73216
2.528,0.27306,1.5039,0.98047,-0.49805,0.73118
2.536,0.27552,1.5039,0.82031,-0.49805,0.72825
2.544,0.27921,0.97059,0.88477,-0.0097656,0.7263
2.552,0.28044,0.51961,0.86914,0.36523,0.72336
2.56,0.28167,0.44902,0.87891,0.41992,0.72141
2.568,0.2829,0.5451,0.91992,0.33984,0.7175
2.576,0.2829,0.56471,0.93945,0.31445,0.71359
2.584,0.28413,0.56078,0.95508,0.31445,0.70968
2.592,0.28413,0.5549,0.94531,0.32031,0.70479
2.6,0.28413,0.57451,0.94531,0.31055,0.69697
2.608,0.28413,0.60588,0.96484,0.26953,0.68915
2.616,0.2829,0.59608,0.95508,0.28516,0.68035
2.624,0.2829,0.62549,0.93945,0.26953,0.67155
2.632,0.28167,0.6,0.95508,0.28516,0.65982
2.64,0.28044,0.5902,0.95508,0.29102,0.64712
2.648,0.28044,0.5902,0.95508,0.28516,0.63245
2.656,0.27921,0.6098,0.94922,0.27539,0.61877
2.664,0.27798,0.6098,0.96484,0.2793,0.60508
2.672,0.27675,0.61569,0.96875,0.26953,0.59238
2.68,0.27675,0.6098,0.95898,0.26953,0.58065
2.688,0.27552,0.64118,0.95508,0.25586,0.56989
2.696,0.27552,0.6098,0.96484,0.27539,0.56109
2.704,0.27429,0.62941,0.94922,0.25586,0.55327
2.712,0.27429,0.6451,0.94531,0.24609,0.54741
2.72,0.27306,0.67647,0.94531,0.22461,0.5435
2.728,0.27306,0.6902,0.95508,0.2207,0.53959
2.736,0.27306,0.68039,0.93945,0.22461,0.53568
2.744,0.27306,0.72549,0.94531,0.18945,0.53177
2.752,0.27429,0.7,0.94531,0.20117,0.52786
2.76,0.27552,0.77059,0.93945,0.14453,0.52395
2.768,0.27675,0.81569,0.95508,0.10547,0.52004
2.776,0.27798,0.80588,0.95898,0.11133,0.51613
2.784,0.27921,0.83137,0.93945,0.089844,0.51124
2.792,0.27921,0.88039,0.94531,0.060547,0.50733
2.8,0.28044,0.86667,0.96484,0.060547,0.50244
2.808,0.28044,0.90588,0.94922,0.035156,0.49853
2.816,0.28167,0.87059,0.95898,0.060547,0.4956
2.824,0.28167,0.86667,0.94531,0.064453,0.49267
2.832,0.28167,0.86667,0.96875,0.070312,0.48876
2.84,0.27921,0.84118,0.98438,0.085938,0.48485
2.848,0.27798,0.78627,0.99023,0.13477,0.47996
2.856,0.27552,0.77059,0.99414,0.14453,0.47703
2.864,0.27183,0.7,0.99023,0.20117,0.4741
2.872,0.26814,0.67647,0.98438,0.22461,0.47116
2.88,0.26568,0.68039,0.97461,0.23047,0.47019
2.888,0.26076,0.64118,0.99023,0.24609,0.46823
2.896,0.25707,0.61569,0.98047,0.26953,0.46628
2.904,0.25092,0.62549,0.96484,0.26562,0.46334
2.912,0.246,0.64118,0.96875,0.25977,0.46139
2.92,0.23985,0.61961,0.98047,0.26953,0.45943
2.928,0.2337,0.6098,0.96484,0.26953,0.4565
2.936,0.22878,0.63529,0.97461,0.26953,0.45357
2.944,0.22263,0.60588,0.98438,0.28516,0.45064
2.952,0.21771,0.6,0.98047,0.29102,0.4477
2.96,0.21279,0.62549,0.97461,0.25977,0.44477
2.968,0.2091,0.6451,0.96875,0.24609,0.44282
2.976,0.20541,0.62549,0.96484,0.26953,0.44086
2.984,0.20172,0.61569,0.96484,0.2793,0.43891
2.992,0.19803,0.61961,0.96484,0.26953,0.43793
3,0.19434,0.61961,0.95508,0.26953,0.43793
3.008,0.19188,0.62941,0.94922,0.26953,0.43695
3.016,0.18942,0.62549,0.96484,0.25586,0.43793
3.024,0.18819,0.66078,0.98047,0.23438,0.43891
3.032,0.18573,0.65098,0.98047,0.24609,0.44086
3.04,0.1845,0.67647,0.97461,0.23438,0.44477
3.048,0.18327,0.68039,0.98047,0.22461,0.45259
3.056,0.18204,0.71569,0.95898,0.20117,0.46432
3.064,0.18204,0.74118,0.94922,0.17578,0.48094
3.072,0.18204,0.70588,0.91992,0.18555,0.50244
3.08,0.18204,0.67059,0.94531,0.23438,0.52688
3.088,0.18204,0.6451,0.95508,0.25,0.55132
3.096,0.18204,0.61569,0.95508,0.27539,0.57576
3.104,0.18327,0.6098,0.93945,0.26953,0.59824
3.112,0.18327,0.61961,0.93945,0.26953,0.61681
3.12,0.18327,0.60588,0.93945,0.26953,0.63148
3.128,0.18204,0.57059,0.94922,0.29492,0.64614
3.136,0.18204,0.56078,0.93945,0.30469,0.65885
3.144,0.18081,0.58039,0.93945,0.29492,0.6696
3.152,0.18081,0.56078,0.94531,0.30469,0.6784
3.16,0.17958,0.52941,0.98047,0.33008,0.68524
3.168,0.17958,0.4902,1.0488,0.38086,0.6911
3.176,0.18081,0.48431,1.1387,0.38477,0.69404
3.184,0.18081,0.90196,1.1895,0.0058594,0.69501
3.192,0.18327,1.5039,1.0293,-0.49805,0.69501
3.2,0.1845,1.5039,0.83984,-0.49805,0.69306
3.208,0.18696,1.1725,0.93945,-0.1543,0.6911
3.216,0.18942,0.64118,0.96875,0.31445,0.68817
3.224,0.19434,0.46078,0.90039,0.42969,0.68426
3.232,0.19926,0.4451,0.89453,0.43945,0.67937
3.24,0.20541,0.51961,0.91406,0.36523,0.67449
3.248,0.21156,0.53922,0.92969,0.3457,0.6696
3.256,0.21771,0.57059,0.94531,0.31445,0.66373
3.264,0.22509,0.5451,0.96484,0.33008,0.65591
3.272,0.23124,0.57451,0.96484,0.30078,0.64809
3.28,0.23862,0.58039,0.96484,0.29492,0.63832
3.288,0.24723,0.58039,0.96875,0.30078,0.62757
3.296,0.25707,0.58431,0.96484,0.29492,0.61486
3.304,0.26814,0.59608,0.96875,0.29102,0.60117
3.312,0.27921,0.6,0.96875,0.28516,0.58847
3.32,0.29028,0.60588,0.97461,0.2793,0.57674
3.328,0.30258,0.5902,0.96484,0.29492,0.56305
3.336,0.31488,0.59608,0.98047,0.28516,0.54839
3.344,0.32718,0.63529,0.95898,0.26562,0.5347
3.352,0.33825,0.62941,0.96875,0.25977,0.52297
3.36,0.34932,0.6451,0.95898,0.25,0.51222
3.368,0.35916,0.66078,0.95508,0.23438,0.50342
3.376,0.37023,0.65098,0.94922,0.24609,0.49462
3.384,0.3813,0.66078,0.94922,0.24023,0.4868
3.392,0.3936,0.67647,0.95508,0.22461,0.48094
3.4,0.4059,0.6549,0.94531,0.24023,0.47605
3.408,0.4182,0.6902,0.95898,0.21094,0.47214
3.416,0.4305,0.67647,0.94922,0.2207,0.47019
3.424,0.44157,0.73137,0.95898,0.17578,0.46823
3.432,0.45264,0.72549,0.96484,0.16602,0.46628
3.44,0.46248,0.7549,0.96484,0.14453,0.46432
3.448,0.47478,0.76667,0.97461,0.14062,0.46139
3.456,0.48708,0.83137,0.95898,0.095703,0.45846
3.464,0.49938,0.85098,0.95508,0.080078,0.45552
3.472,0.51169,0.86078,0.94922,0.064453,0.45259
3.48,0.52399,0.85686,0.95508,0.080078,0.44966
3.488,0.53629,0.87059,0.94531,0.076172,0.44673
3.496,0.54736,0.85098,0.94531,0.099609,0.44282
3.504,0.55843,0.86078,0.95898,0.089844,0.43891
3.512,0.56704,0.8,0.95898,0.14062,0.435
3.52,0.57688,0.7549,0.95898,0.18555,0.43206
3.528,0.58426,0.71569,0.96484,0.21484,0.42913
3.536,0.59164,0.69608,0.96484,0.23438,0.42717
3.544,0.59902,0.66078,0.96484,0.25,0.4262
3.552,0.60517,0.67059,0.96484,0.24609,0.42522
3.56,0.61255,0.62941,0.95898,0.26953,0.42326
3.568,0.6187,0.65098,0.96484,0.25586,0.42229
3.576,0.62485,0.64118,0.96875,0.26562,0.42033
3.584,0.631,0.6451,0.96484,0.25977,0.41935
3.592,0.63592,0.62549,0.96484,0.27539,0.4174
3.6,0.64084,0.61569,0.96484,0.26562,0.41544
3.608,0.64699,0.64118,0.96875,0.25586,0.41447
3.616,0.65437,0.62941,0.96484,0.26953,0.41349
3.624,0.66298,0.6451,0.95898,0.25977,0.41251
3.632,0.67159,0.61569,0.96484,0.2793,0.41056
3.64,0.6802,0.62941,0.96484,0.26953,0.40762
3.648,0.68881,0.61569,0.96484,0.2793,0.40469
3.656,0.69865,0.61961,0.95898,0.26953,0.40176
3.664,0.70849,0.6549,0.96484,0.25,0.37048
3.672,0.71833,0.66078,0.96875,0.25977,0.32356
3.68,0.72694,0.6451,0.98438,0.26562,0.3001
3.688,0.73678,0.6549,0.99023,0.24609,0.28739
3.696,0.74662,0.67647,0.99023,0.25,0.2825
3.704,0.75646,0.7,0.99023,0.2207,0.28446
3.712,0.7663,0.68627,0.97461,0.23438,0.2913
3.72,0.77737,0.72549,0.95898,0.20117,0.30205
3.728,0.78844,0.7451,0.95508,0.17969,0.31769
3.736,0.79828,0.71569,0.93945,0.20117,0.33822
3.744,0.80812,0.67059,0.95508,0.24023,0.36461
3.752,0.81673,0.6549,0.96484,0.25586,0.39296
3.76,0.82657,0.63529,0.96484,0.25,0.42131
3.768,0.83518,0.60588,0.95898,0.26953,0.45064
3.776,0.84379,0.57451,0.95898,0.30078,0.47703
3.784,0.8524,0.58431,0.95898,0.30469,0.50049
3.792,0.86101,0.60588,0.95508,0.26953,0.52004
3.8,0.86839,0.58431,0.95898,0.29102,0.53568
3.808,0.877,0.5902,0.95898,0.2793,0.54839
3.816,0.88315,0.57451,0.96484,0.29492,0.55816
3.824,0.8893,0.58039,1.0137,0.33594,0.56305
3.832,0.89422,0.44902,1.0938,0.41992,0.56794
3.84,0.90037,0.58431,1.1895,0.30469,0.57087
3.848,0.90406,1.1412,1.2344,-0.17383,0.57283
3.856,0.90898,1.5039,1,-0.49805,0.57283
3.864,0.9139,1.5039,0.84961,-0.49805,0.57185
3.872,0.91759,1.0157,0.95508,-0.019531,0.56989
3.88,0.92251,0.56471,0.92969,0.35938,0.56696
3.888,0.92743,0.4549,0.90039,0.41992,0.56403
3.896,0.93235,0.50588,0.91992,0.375,0.56012
3.904,0.93727,0.53922,0.93945,0.33984,0.55425
3.912,0.94096,0.55098,0.96484,0.32422,0.54936
3.92,0.94588,0.56078,0.97461,0.31055,0.54252
3.928,0.95203,0.57059,0.98047,0.31055,0.53372
3.936,0.95818,0.59608,0.98438,0.28516,0.52297
3.944,0.96433,0.58431,0.98438,0.29492,0.51026
3.952,0.97171,0.59608,0.98438,0.28516,0.49853
3.96,0.97909,0.6,0.98047,0.29102,0.48485
3.968,0.98647,0.60588,0.99023,0.27539,0.47214
3.976,0.99385,0.59608,0.99023,0.29492,0.45943
3.984,1.0012,0.6098,0.98438,0.27539,0.44868
3.992,1.0074,0.62941,0.98047,0.26953,0.43793
4,1.0135,0.62941,0.98047,0.26562,0.42913
4.008,1.0197,0.64118,0.96484,0.25977,0.42131
4.016,1.0258,0.62941,0.96484,0.26562,0.41544
4.024,1.032,0.66078,0.95898,0.24609,0.41056
4.032,1.0381,0.6549,0.95508,0.25,0.40665
4.04,1.0443,0.67059,0.94531,0.23438,0.40274
4.048,1.0517,0.67647,0.94531,0.23047,0.40078
4.056,1.0578,0.67647,0.94531,0.2207,0.39785
4.064,1.064,0.67647,0.95508,0.22461,0.39394
4.072,1.0701,0.7098,0.96484,0.19531,0.39101
4.08,1.0775,0.72549,0.96484,0.18555,0.3871
4.088,1.0824,0.75098,0.97461,0.15625,0.38319
4.096,1.0873,0.76667,0.96875,0.15625,0.38025
4.104,1.0923,0.8,0.98047,0.125,0.3783
4.112,1.0972,0.79608,0.98438,0.13086,0.3783
4.12,1.0996,0.84118,0.98047,0.085938,0.3783
4.128,1.1021,0.85686,0.98438,0.080078,0.37928
4.136,1.1021,0.87059,0.97461,0.070312,0.37928
4.144,1.1021,0.88039,0.98047,0.070312,0.3783
4.152,1.0984,0.87059,0.96875,0.076172,0.37634
4.16,1.0959,0.84118,0.96875,0.10547,0.37341
4.168,1.091,0.81176,0.96875,0.125,0.37048
4.176,1.0861,0.77647,0.96484,0.15625,0.36657
4.184,1.0763,0.76078,0.97461,0.16992,0.36266
4.192,1.0677,0.7098,0.96875,0.21094,0.35973
4.2,1.0554,0.68039,0.97461,0.22461,0.35875
4.208,1.0431,0.67059,0.96875,0.24023,0.35777
4.216,1.0295,0.65098,0.96484,0.25,0.35777
4.224,1.0172,0.64118,0.96484,0.26562,0.35777
4.232,1.0049,0.63529,0.96484,0.25586,0.35679
4.24,0.99262,0.65098,0.96484,0.24609,0.35484
4.248,0.97909,0.6451,0.96484,0.26562,0.35386
4.256,0.96679,0.6549,0.96484,0.25,0.35191
4.264,0.95326,0.6451,0.96875,0.25977,0.34897
4.272,0.9385,0.65098,0.96875,0.25586,0.34604
4.28,0.92497,0.65098,0.97461,0.25977,0.34311
4.288,0.91267,0.65098,0.96875,0.24609,0.34213
4.296,0.89914,0.6451,0.97461,0.25586,0.34018
4.304,0.88684,0.65098,0.98047,0.25,0.3392
4.312,0.87577,0.64118,0.98438,0.25977,0.33822
4.32,0.86593,0.6549,0.97461,0.24609,0.33724
4.328,0.85609,0.65098,0.98047,0.25586,0.33529
4.336,0.84748,0.66078,0.97461,0.23438,0.33236
4.344,0.83887,0.66471,0.97461,0.24609,0.32942
4.352,0.83026,0.68039,0.98047,0.23047,0.32845
4.36,0.82288,0.6902,0.98438,0.2207,0.32942
4.368,0.8155,0.69608,0.99023,0.23047,0.33431
4.376,0.80935,0.70588,0.96875,0.2207,0.34409
4.384,0.8032,0.72549,0.95508,0.20117,0.35973
4.392,0.79705,0.7451,0.94531,0.17578,0.38123
4.4,0.79213,0.73137,0.93555,0.16992,0.40762
4.408,0.78721,0.72549,0.92383,0.17578,0.43304
4.416,0.78229,0.7,0.93945,0.2207,0.45846
4.424,0.77614,0.67059,0.93945,0.24023,0.48583
4.432,0.77122,0.6451,0.93945,0.25,0.51222
4.44,0.76507,0.61961,0.93555,0.26562,0.53568
4.448,0.76015,0.59608,0.93945,0.28516,0.55621
4.456,0.75523,0.6,0.93945,0.27539,0.5738
4.464,0.75154,0.5902,0.94531,0.29102,0.58749
4.472,0.74662,0.60588,0.94531,0.26953,0.59824
4.48,0.74293,0.60588,0.95508,0.27539,0.60606
4.488,0.73801,0.59608,0.94922,0.2793,0.61193
4.496,0.73432,0.51961,1.0195,0.36523,0.61779
4.504,0.7294,0.47451,1.1094,0.40039,0.62072
4.512,0.72448,0.71569,1.2695,0.20117,0.62268
4.52,0.71956,1.4373,1.2949,-0.37891,0.62268
4.528,0.71464,1.5039,0.92383,-0.49805,0.62268
4.536,0.70972,1.5039,0.79883,-0.49805,0.62268
4.544,0.70603,0.86078,0.83008,0.089844,0.6217
4.552,0.70111,0.49412,0.82422,0.39062,0.62072
4.56,0.69742,0.48039,0.87891,0.39453,0.61877
4.568,0.69373,0.57059,0.92969,0.31445,0.61584
4.576,0.69004,0.58431,0.94922,0.30078,0.61193
4.584,0.68758,0.5549,0.94531,0.32422,0.60802
4.592,0.68389,0.58431,0.95508,0.29492,0.60215
4.6,0.68266,0.58431,0.95898,0.29102,0.59433
4.608,0.6802,0.5902,0.95898,0.29492,0.58553
4.616,0.67897,0.57451,0.95898,0.30469,0.57576
4.624,0.67774,0.5902,0.95508,0.28516,0.56207
4.632,0.67651,0.59608,0.95898,0.29102,0.54741
4.64,0.67528,0.6,0.95898,0.28516,0.53079
4.648,0.67528,0.58039,0.96484,0.29492,0.51417
4.656,0.67405,0.59608,0.96875,0.28516,0.50049
4.664,0.67405,0.5902,0.97461,0.29102,0.48778
4.672,0.67405,0.61569,0.96875,0.26953,0.47605
4.68,0.67528,0.60588,0.96875,0.28516,0.4653
4.688,0.67651,0.62941,0.96875,0.25586,0.45552
4.696,0.67774,0.63529,0.96484,0.25,0.4477
4.704,0.67897,0.65098,0.95898,0.25,0.44086
4.712,0.68143,0.6549,0.95898,0.24609,0.435
4.72,0.68389,0.68627,0.95508,0.22461,0.43109
4.728,0.68758,0.69608,0.95898,0.21484,0.42717
4.736,0.69004,0.72157,0.95508,0.19531,0.42424
4.744,0.69373,0.73137,0.95898,0.18555,0.42229
4.752,0.69865,0.72549,0.95898,0.16992,0.42033
4.76,0.70234,0.77059,0.96484,0.15039,0.41838
4.768,0.70726,0.81176,0.96875,0.12109,0.41642
4.776,0.71218,0.83137,0.96484,0.099609,0.41447
4.784,0.7171,0.86078,0.96875,0.076172,0.41153
4.792,0.71956,0.87647,0.96484,0.064453,0.40958
4.8,0.72325,0.91176,0.96484,0.041016,0.40762
4.808,0.72571,0.91569,0.96484,0.041016,0.40567
4.816,0.72817,0.91176,0.96484,0.041016,0.40371
4.824,0.7294,0.8902,0.95898,0.060547,0.40176
4.832,0.73063,0.87059,0.97461,0.076172,0.39883
4.84,0.73063,0.82549,0.96875,0.11133,0.39589
4.848,0.73063,0.78039,0.96875,0.15039,0.39394
4.856,0.72817,0.7549,0.96875,0.16602,0.39198
4.864,0.72571,0.70588,0.97461,0.20117,0.38905
4.872,0.72202,0.66471,0.96484,0.23047,0.3871
4.88,0.71833,0.6451,0.96484,0.24609,0.38416
4.888,0.71218,0.65098,0.96484,0.24609,0.38221
4.896,0.70603,0.62941,0.96484,0.25586,0.38025
4.904,0.69619,0.63529,0.95898,0.25,0.3783
4.912,0.68758,0.61961,0.96484,0.26953,0.37732
4.92,0.67774,0.62549,0.96484,0.26562,0.37732
4.928,0.6679,0.6098,0.95898,0.26953,0.37634
4.936,0.6556,0.62941,0.96484,0.25977,0.37537
4.944,0.64453,0.63529,0.97461,0.26562,0.37341
4.952,0.63469,0.62941,0.97461,0.25977,0.37146
4.96,0.62485,0.62941,0.98047,0.26562,0.36852
4.968,0.61501,0.6451,0.96875,0.25,0.36559
4.976,0.6064,0.62549,0.96875,0.26953,0.36364
4.984,0.59656,0.61961,0.96484,0.26562,0.35973
4.992,0.58795,0.62941,0.95898,0.26562,0.35679
5,0.57934,0.62549,0.95508,0.26953,0.35288
5.008,0.57073,0.64118,0.95508,0.25586,0.35191
5.016,0.56335,0.65098,0.95898,0.25,0.35191
5.024,0.55597,0.67647,0.96484,0.23047,0.35386
5.032,0.54982,0.67059,0.97461,0.23047,0.35973
5.04,0.54367,0.7,0.96875,0.20508,0.3695
5.048,0.53875,0.7,0.95508,0.21484,0.38514
5.056,0.53506,0.72549,0.93945,0.18945,0.40665
5.064,0.53137,0.75098,0.93945,0.15625,0.43304
5.072,0.52891,0.7549,0.92383,0.15039,0.46139
5.08,0.52768,0.70588,0.92969,0.20117,0.49071
5.088,0.52645,0.69608,0.93945,0.21484,0.51906
5.096,0.52522,0.67647,0.94531,0.23047,0.54643
5.104,0.52522,0.65098,0.93555,0.24023,0.57087
5.112,0.52645,0.61961,0.93945,0.26562,0.58944
5.12,0.52645,0.62941,0.93945,0.25586,0.60411
5.128,0.52768,0.60588,0.93945,0.26953,0.61779
5.136,0.52768,0.60588,0.93945,0.26953,0.6305
5.144,0.53014,0.60588,0.94922,0.26953,0.64125
5.152,0.53137,0.6098,0.93945,0.25977,0.65103
5.16,0.53383,0.5902,0.96484,0.28516,0.65787
5.168,0.53506,0.52549,1.0254,0.35938,0.66471
5.176,0.53752,0.49412,1.125,0.375,0.67058
5.184,0.53998,0.85686,1.2637,0.076172,0.67351
5.192,0.54121,1.5039,1.1289,-0.48828,0.67644
5.2,0.54367,1.5039,0.875,-0.49805,0.67742
5.208,0.5449,1.4569,0.80469,-0.4082,0.67546
5.216,0.54613,0.75098,0.84375,0.16992,0.67351
5.224,0.54613,0.4902,0.83984,0.39062,0.6696
5.232,0.54736,0.5451,0.90039,0.3457,0.66471
5.24,0.54736,0.57451,0.93555,0.31445,0.65885
5.248,0.54736,0.58431,0.95898,0.30078,0.65298
5.256,0.54613,0.5902,0.96484,0.29492,0.64712
5.264,0.54613,0.58039,0.96484,0.30469,0.6393
5.272,0.54367,0.58431,0.96484,0.29492,0.63245
5.28,0.54244,0.6,0.97461,0.2793,0.62366
5.288,0.53998,0.60588,0.96875,0.27539,0.61388
5.296,0.53875,0.6,0.96484,0.28516,0.60215
5.304,0.53629,0.60588,0.96875,0.27539,0.58847
5.312,0.53506,0.61569,0.98047,0.25977,0.57478
5.32,0.5326,0.61961,0.98047,0.26562,0.56207
5.328,0.53137,0.6098,0.98438,0.27539,0.54741
5.336,0.52891,0.61961,0.98438,0.26953,0.53177
5.344,0.52645,0.61961,0.99023,0.26953,0.51711
5.352,0.52399,0.62941,0.98047,0.25586,0.50342
5.36,0.52153,0.62549,0.97461,0.25977,0.49267
5.368,0.5203,0.6549,0.97461,0.23438,0.48289
5.376,0.51784,0.67059,0.96875,0.23047,0.47312
5.384,0.51661,0.68627,0.96484,0.21484,0.46628
5.392,0.51538,0.69608,0.96484,0.21094,0.46041
5.4,0.51538,0.6902,0.96875,0.21484,0.45552
5.408,0.51415,0.72549,0.96484,0.18555,0.45161
5.416,0.51415,0.7549,0.96484,0.15625,0.45064
5.424,0.51415,0.77647,0.96484,0.15039,0.44966
5.432,0.51415,0.8,0.96484,0.12109,0.4477
5.44,0.51415,0.83529,0.96484,0.095703,0.44575
5.448,0.51538,0.85686,0.97461,0.085938,0.44379
5.456,0.51538,0.88627,0.96484,0.064453,0.44184
5.464,0.51538,0.8902,0.96875,0.054688,0.43988
5.472,0.51538,0.90196,0.96484,0.044922,0.43793
5.48,0.51415,0.92549,0.96875,0.025391,0.43597
5.488,0.51415,0.93725,0.96875,0.015625,0.43402
5.496,0.51292,0.8902,0.97461,0.050781,0.43206
5.504,0.51046,0.86078,0.99023,0.080078,0.43011
5.512,0.508,0.81176,0.99023,0.125,0.42815
5.52,0.50431,0.76667,0.98438,0.16602,0.42717
5.528,0.49938,0.7451,1,0.16992,0.42424
5.536,0.49446,0.72157,0.99023,0.17969,0.42131
5.544,0.48708,0.68039,0.99023,0.2207,0.41838
5.552,0.4797,0.6549,0.99023,0.24023,0.41642
5.56,0.47109,0.63529,0.98438,0.25977,0.41447
5.568,0.46125,0.62941,0.98047,0.25,0.41251
5.576,0.45141,0.63529,0.98438,0.24609,0.41153
5.584,0.44034,0.62941,0.98047,0.25977,0.40958
5.592,0.4305,0.62549,0.98438,0.26953,0.40762
5.6,0.42066,0.61961,0.98047,0.26562,0.40567
5.608,0.41082,0.62941,0.97461,0.25586,0.40469
5.616,0.40098,0.62941,0.99023,0.26953,0.40274
5.624,0.39114,0.6098,0.98438,0.26562,0.40176
5.632,0.3813,0.62549,0.99023,0.2793,0.3998
5.64,0.37146,0.63529,0.98047,0.25,0.39785
5.648,0.36162,0.62941,0.98438,0.25586,0.39492
5.656,0.35301,0.64118,0.97461,0.25,0.39198
5.664,0.34563,0.62941,0.97461,0.26562,0.38807
5.672,0.33825,0.62549,0.96484,0.26953,0.38514
5.68,0.33087,0.6098,0.96484,0.2793,0.38319
5.688,0.32472,0.6451,0.96875,0.25,0.38221
5.696,0.31857,0.66078,0.98438,0.24609,0.38416
5.704,0.31365,0.67647,0.98438,0.22461,0.38905
5.712,0.30873,0.68627,0.99023,0.22461,0.40176
5.72,0.30504,0.70588,0.97461,0.21484,0.42229
5.728,0.30135,0.7,0.95508,0.21484,0.44477
5.736,0.29889,0.7098,0.93945,0.19531,0.47214
5.744,0.29643,0.71569,0.94531,0.18555,0.50244
5.752,0.2952,0.7,0.93945,0.21094,0.5347
5.76,0.29397,0.68039,0.96484,0.23047,0.56598
5.768,0.29274,0.6549,0.95508,0.24609,0.59629
5.776,0.29274,0.62549,0.95508,0.26562,0.62463
5.784,0.29397,0.62941,0.95508,0.25,0.64809
5.792,0.29397,0.59608,0.94922,0.26953,0.66764
5.8,0.2952,0.58431,0.94531,0.28516,0.68231
5.808,0.29643,0.5902,0.93945,0.27539,0.69404
5.816,0.29889,0.60588,0.95508,0.28516,0.70088
5.824,0.30012,0.61961,0.95898,0.25977,0.7087
5.832,0.30135,0.5902,0.98047,0.30078,0.71359
5.84,0.30381,0.49412,1.0449,0.375,0.7175
5.848,0.30504,0.46471,1.1445,0.40039,0.72141
5.856,0.30627,0.93137,1.25,-0.0039062,0.72336
5.864,0.30627,1.5039,1.0742,-0.49805,0.72434
5.872,0.3075,1.5039,0.84961,-0.49805,0.7263
5.88,0.3075,1.2471,0.83398,-0.24023,0.72727
5.888,0.30873,0.6451,0.87891,0.26562,0.72727
5.896,0.30873,0.46078,0.86914,0.41016,0.72532
5.904,0.30873,0.53922,0.91406,0.3457,0.72239
5.912,0.3075,0.57059,0.94922,0.31055,0.7175
5.92,0.3075,0.58039,0.95508,0.29492,0.71163
5.928,0.30627,0.58431,0.96484,0.29492,0.70381
5.936,0.30504,0.58039,0.96484,0.29102,0.69306
5.944,0.30381,0.5902,0.95898,0.29492,0.68133
5.952,0.30258,0.60588,0.96484,0.2793,0.66862
5.96,0.30135,0.5902,0.96484,0.28516,0.65494
5.968,0.29889,0.60588,0.96484,0.2793,0.64027
5.976,0.29766,0.60588,0.95898,0.26953,0.62366
5.984,0.29643,0.63529,0.95508,0.25,0.60802
5.992,0.2952,0.64118,0.96484,0.24609,0.59238
6,0.29397,0.61569,0.96484,0.26953,0.57674
6.008,0.29151,0.60588,0.95898,0.27539,0.56305
6.016,0.29028,0.63529,0.95508,0.25586,0.55132
6.024,0.28782,0.65098,0.95898,0.24609,0.53959
6.032,0.28659,0.6451,0.96484,0.25,0.52981
6.04,0.28413,0.67059,0.94531,0.23047,0.52004
6.048,0.28167,0.66471,0.95508,0.2207,0.51124
6.056,0.28044,0.67647,0.93945,0.22461,0.5044
6.064,0.27798,0.68627,0.94531,0.2207,0.49853
6.072,0.27552,0.69608,0.95508,0.21094,0.49365
6.08,0.27429,0.72549,0.93945,0.17969,0.48974
6.088,0.27306,0.7549,0.93945,0.15039,0.48485
6.096,0.27183,0.7902,0.94531,0.13477,0.47996
6.104,0.2706,0.79608,0.94922,0.125,0.47605
6.112,0.26937,0.82157,0.94531,0.099609,0.47116
6.12,0.26937,0.8451,0.94531,0.080078,0.46628
6.128,0.26937,0.88039,0.94531,0.054688,0.46139
6.136,0.26814,0.8902,0.94922,0.041016,0.45748
6.144,0.26814,0.91569,0.95508,0.025391,0.45259
6.152,0.26691,0.91569,0.95508,0.03125,0.44966
6.16,0.26568,0.92157,0.96484,0.025391,0.4477
6.168,0.26322,0.88039,0.96875,0.054688,0.44477
6.176,0.25953,0.83137,0.98438,0.095703,0.44086
6.184,0.25584,0.8,0.99023,0.12109,0.43597
6.192,0.25215,0.74118,0.99414,0.16992,0.43109
6.2,0.24477,0.72549,0.98438,0.18555,0.4262
6.208,0.23862,0.66078,0.99023,0.23438,0.42326
6.216,0.23124,0.64118,1,0.25,0.42033
6.224,0.22263,0.62941,0.98438,0.24609,0.41838
6.232,0.21525,0.6098,0.98438,0.26562,0.41544
6.24,0.20664,0.60588,0.97461,0.27539,0.41251
6.248,0.19926,0.6098,0.96875,0.26953,0.40958
6.256,0.19188,0.60588,0.96875,0.27539,0.40371
6.264,0.18327,0.60588,0.98438,0.2793,0.3998
6.272,0.17589,0.6098,0.98047,0.26953,0.39589
6.28,0.16728,0.6098,0.98438,0.27539,0.39394
6.288,0.1599,0.62941,0.99023,0.26953,0.39296
6.296,0.15252,0.6098,1.0098,0.26953,0.39198
6.304,0.14514,0.60588,0.99023,0.26562,0.39101
6.312,0.13899,0.61961,0.98438,0.26953,0.39101
6.32,0.13284,0.62941,0.99023,0.25977,0.39003
6.328,0.12792,0.60588,0.98438,0.26953,0.3871
6.336,0.123,0.62941,0.96484,0.25586,0.38416
6.344,0.11685,0.61569,0.99023,0.26562,0.38221
6.352,0.11193,0.60588,0.99023,0.26953,0.38025
6.36,0.10824,0.65098,0.99414,0.24609,0.37928
6.368,0.10332,0.67647,1.0039,0.23438,0.38025
6.376,0.099631,0.6549,1.0098,0.24023,0.38416
6.384,0.094711,0.7,0.99023,0.20508,0.39296
6.392,0.091021,0.72157,0.99023,0.20117,0.40762
6.4,0.086101,0.73137,0.97461,0.17578,0.42815
6.408,0.081181,0.6902,0.95898,0.20117,0.44966
6.416,0.076261,0.7098,0.95508,0.20117,0.47214
6.424,0.071341,0.67059,0.98047,0.24023,0.50049
6.432,0.065191,0.64118,0.98438,0.25,0.53079
6.44,0.059041,0.61961,0.96875,0.24609,0.56012
6.448,0.052891,0.60588,0.96484,0.26953,0.58651
6.456,0.04674,0.6098,0.97461,0.26562,0.60997
6.464,0.04059,0.6,0.98438,0.26953,0.6305
6.472,0.03444,0.60588,0.98047,0.26953,0.64809
6.48,0.02829,0.60588,0.98047,0.26953,0.66178
6.488,0.02214,0.58431,0.99023,0.26953,0.67253
6.496,0.01476,0.57451,1.0137,0.29492,0.67937
6.504,0.0073801,0.5098,1.084,0.37109,0.68328
6.512,0,0.5,1.1895,0.375,0.68426
6.52,-0.0073801,0.91176,1.2441,-0.0039062,0.68328
6.528,-0.01353,1.5039,1.0938,-0.49805,0.68231
6.536,-0.01968,1.5039,0.89453,-0.49805,0.68035
6.544,-0.02583,1.2471,0.98438,-0.21875,0.67644
6.552,-0.02952,0.7,1.0254,0.27539,0.67253
6.56,-0.03444,0.47451,0.94922,0.43555,0.66862
6.568,-0.0369,0.5,0.95508,0.39453,0.66471
6.576,-0.03936,0.55098,0.94922,0.33984,0.65982
6.584,-0.03936,0.58039,0.97461,0.30469,0.65494
6.592,-0.03936,0.59608,0.99023,0.29492,0.64712
6.6,-0.03813,0.6,1,0.30469,0.63734
6.608,-0.03567,0.61961,1,0.27539,0.62659
6.616,-0.03321,0.60588,1.0137,0.29102,0.61486
6.624,-0.02952,0.61569,1.0195,0.27539,0.60117
6.632,-0.0246,0.64118,1.0137,0.26562,0.58651
6.64,-0.02091,0.62941,1.0098,0.27539,0.57087
6.648,-0.01476,0.63529,1.0098,0.26562,0.55425
6.656,-0.0086101,0.62941,1.0098,0.25586,0.53666
6.664,0,0.65098,1.0098,0.25586,0.51906
6.672,0.0073801,0.67059,1.0098,0.24023,0.50049
6.68,0.01599,0.64118,1.0137,0.25977,0.48387
6.688,0.0246,0.67059,1.0039,0.24023,0.46725
6.696,0.03444,0.6902,0.99414,0.23047,0.45259
6.704,0.04551,0.66471,1.0098,0.24023,0.44184
6.712,0.055351,0.68627,0.99414,0.22461,0.43304
6.72,0.065191,0.70588,0.99023,0.20508,0.4262
6.728,0.076261,0.7098,0.98438,0.20508,0.41935
6.736,0.086101,0.72157,0.98047,0.19531,0.41349
6.744,0.098401,0.70588,0.99023,0.19531,0.40762
6.752,0.11193,0.75098,0.96875,0.16602,0.40274
6.76,0.12546,0.76078,0.98047,0.15625,0.39785
6.768,0.13899,0.79608,0.96484,0.13086,0.39394
6.776,0.15129,0.81176,0.98047,0.11523,0.38905
6.784,0.16482,0.83529,0.96484,0.095703,0.38612
6.792,0.17712,0.85098,0.95898,0.089844,0.38319
6.8,0.18942,0.88627,0.95508,0.060547,0.38025
6.808,0.20418,0.90588,0.93945,0.060547,0.37732
6.816,0.21771,0.8902,0.94531,0.060547,0.37537
6.824,0.23247,0.90588,0.93945,0.060547,0.37341
6.832,0.24846,0.91176,0.95898,0.060547,0.37048
6.84,0.26445,0.86078,0.98047,0.095703,0.36657
6.848,0.27921,0.83137,0.98047,0.125,0.36266
6.856,0.2952,0.78039,0.98438,0.16992,0.35875
6.864,0.31119,0.74118,0.98438,0.20117,0.35484
6.872,0.32595,0.73137,0.99023,0.20508,0.34995
6.88,0.34071,0.69608,0.99414,0.24023,0.34604
6.888,0.35547,0.69608,0.97461,0.23438,0.34213
6.896,0.37023,0.65098,0.99414,0.25977,0.33822
6.904,0.38745,0.67647,0.96875,0.24609,0.33724
6.912,0.40467,0.6549,0.97461,0.26562,0.33724
6.92,0.42435,0.67059,0.96484,0.25977,0.33529
6.928,0.4428,0.63529,0.97461,0.2793,0.33236
6.936,0.46125,0.6549,0.98047,0.25586,0.3304
6.944,0.48093,0.67059,0.96484,0.24609,0.32747
6.952,0.49938,0.6549,0.97461,0.25586,0.32551
6.96,0.51784,0.6451,0.96484,0.25977,0.32356
6.968,0.54121,0.66078,0.95508,0.25,0.3216
6.976,0.56335,0.65098,0.95898,0.26562,0.31867
6.984,0.58918,0.67059,0.94922,0.24023,0.31672
6.992,0.61378,0.63529,0.94531,0.26562,0.31476
7,0.64207,0.66078,0.95508,0.25,0.31281
7.008,0.67036,0.66471,0.96875,0.24609,0.31183
7.016,0.69988,0.65098,0.98047,0.25977,0.31183
7.024,0.7294,0.68039,0.98438,0.23438,0.31281
7.032,0.75646,0.67647,0.99023,0.24609,0.31574
7.04,0.78352,0.7,0.96875,0.22461,0.31965
7.048,0.80935,0.72549,0.95898,0.18945,0.32747
7.056,0.83518,0.76078,0.95898,0.16016,0.33724
7.064,0.86224,0.73137,0.93555,0.17578,0.35288
7.072,0.8893,0.73529,0.93945,0.20508,0.37439
7.08,0.91882,0.6902,0.95898,0.24023,0.3998
7.088,0.94711,0.68039,0.93945,0.23047,0.42815
7.096,0.97294,0.6451,0.93945,0.24609,0.45748
7.104,0.99877,0.63529,0.93945,0.25586,0.48289
7.112,1.0221,0.61569,0.94531,0.26953,0.5044
7.12,1.0443,0.6,0.95898,0.28516,0.52493
7.128,1.0677,0.61961,0.96484,0.27539,0.5435
7.136,1.091,0.6,0.97461,0.29492,0.55914
7.144,1.1107,0.59608,0.96875,0.30469,0.57185
7.152,1.1292,0.60588,0.98047,0.26953,0.58162
7.16,1.1292,0.51569,1.0801,0.37109,0.58944
7.168,1.1292,0.47451,1.1699,0.4043,0.59531
7.176,1.1292,0.84118,1.2637,0.080078,0.59824
7.184,1.1292,1.5039,1.1387,-0.49805,0.6002
7.192,1.1292,1.5039,0.9043,-0.49805,0.6002
7.2,1.1292,1.5039,0.86914,-0.41406,0.59922
7.208,1.1292,0.81176,0.99023,0.17969,0.59824
7.216,1.1292,0.52549,0.95508,0.39062,0.59629
7.224,1.1292,0.4902,0.93945,0.4043,0.59433
7.232,1.1292,0.56471,0.95898,0.32031,0.5914
7.24,1.1292,0.5902,0.98438,0.30469,0.58944
7.248,1.1292,0.60588,0.99023,0.28516,0.58553
7.256,1.1292,0.6098,0.99414,0.2793,0.57869
7.264,1.1292,0.59608,1.0039,0.29492,0.56989
7.272,1.1292,0.61961,1.0098,0.26953,0.55914
7.28,1.1292,0.62941,1.0039,0.27539,0.54741
7.288,1.1292,0.62549,0.99414,0.26953,0.5347
7.296,1.1292,0.62941,1.0039,0.26562,0.52102
7.304,1.1292,0.63529,0.99023,0.25977,0.51026
7.312,1.1292,0.62549,0.99023,0.26953,0.49951
7.32,1.1292,0.6451,0.99023,0.25,0.48778
7.328,1.1292,0.65098,0.99023,0.25586,0.47605
7.336,1.1292,0.66078,0.97461,0.24609,0.4653
7.344,1.1292,0.66078,0.98047,0.24023,0.45748
7.352,1.1292,0.67647,0.95508,0.23047,0.45064
7.36,1.1292,0.67059,0.94922,0.24023,0.44575
7.368,1.1292,0.69608,0.94531,0.21484,0.44184
7.376,1.1292,0.68039,0.94531,0.22461,0.43891
7.384,1.1292,0.69608,0.93945,0.21484,0.43695
7.392,1.1292,0.7,0.93555,0.20508,0.43793
7.4,1.1292,0.7,0.93945,0.20117,0.43891
7.408,1.1292,0.72157,0.93555,0.18555,0.44086
7.416,1.1292,0.74118,0.93945,0.17578,0.44282
7.424,1.1292,0.7549,0.93945,0.16016,0.44477
7.432,1.1292,0.78627,0.93555,0.13086,0.44477
7.44,1.1292,0.8,0.93945,0.12109,0.44575
7.448,1.1292,0.81569,0.92969,0.10547,0.44673
7.456,1.1292,0.83137,0.91992,0.099609,0.4477
7.464,1.1292,0.8451,0.92383,0.080078,0.44868
7.472,1.1292,0.86667,0.91992,0.076172,0.44868
7.48,1.1292,0.85098,0.91992,0.080078,0.44868
7.488,1.1292,0.84118,0.91406,0.085938,0.44868
7.496,1.1292,0.81569,0.92383,0.11523,0.44868
7.504,1.1292,0.78627,0.91992,0.14062,0.4477
7.512,1.1292,0.74118,0.92969,0.17578,0.4477
7.52,1.1292,0.72157,0.92383,0.18945,0.44575
7.528,1.1292,0.67647,0.92969,0.22461,0.44477
7.536,1.1292,0.66078,0.92969,0.24023,0.44282
7.544,1.1292,0.63529,0.92969,0.25586,0.43988
7.552,1.1292,0.62941,0.92969,0.26953,0.43793
7.56,1.1292,0.60588,0.91992,0.27539,0.435
7.568,1.1292,0.62941,0.91992,0.25,0.43304
7.576,1.1292,0.62549,0.91992,0.25977,0.43109
7.584,1.1292,0.61961,0.91992,0.26562,0.42913
7.592,1.1292,0.61569,0.91992,0.26953,0.42717
7.6,1.1292,0.6098,0.92383,0.26562,0.42424
7.608,1.1292,0.60588,0.91406,0.26953,0.42229
7.616,1.1292,0.60588,0.92383,0.26562,0.42033
7.624,1.123,0.62549,0.92969,0.25586,0.41642
7.632,1.1156,0.62941,0.92383,0.25,0.41349
7.64,1.091,0.62941,0.92383,0.25,0.41056
7.648,1.0664,0.61961,0.92969,0.25,0.40665
7.656,1.0418,0.61569,0.92969,0.25977,0.40176
7.664,1.0185,0.6098,0.92383,0.26562,0.39785
7.672,0.99754,0.62941,0.92969,0.24609,0.39394
7.68,0.97663,0.63529,0.93945,0.25,0.39198
7.688,0.95695,0.6451,0.94531,0.24609,0.39101
7.696,0.93727,0.6549,0.95508,0.23047,0.39296
7.704,0.91882,0.67647,0.94531,0.22461,0.39687
7.712,0.9016,0.68627,0.92383,0.20508,0.40567
7.72,0.88315,0.72549,0.92383,0.16992,0.41935
7.728,0.86593,0.68039,0.9043,0.19531,0.43793
7.736,0.85117,0.67059,0.9043,0.20508,0.46139
7.744,0.83641,0.6451,0.91406,0.24023,0.48778
7.752,0.82288,0.62941,0.90039,0.24609,0.51711
7.76,0.80935,0.60588,0.89453,0.25977,0.54154
7.768,0.79828,0.58431,0.89453,0.26953,0.56207
7.776,0.78598,0.57059,0.89453,0.28516,0.5826
7.784,0.77491,0.58039,0.90039,0.2793,0.60117
7.792,0.76384,0.5549,0.90039,0.30078,0.61681
7.8,0.75277,0.56471,0.89453,0.29102,0.62757
7.808,0.7417,0.57059,0.89453,0.28516,0.63441
7.816,0.73063,0.56078,0.91016,0.29492,0.64027
7.824,0.71956,0.48039,0.98438,0.38086,0.64418
7.832,0.70972,0.43922,1.0996,0.41016,0.64614
7.84,0.69865,0.8,1.2637,0.11523,0.64712
7.848,0.68881,1.5039,1.1094,-0.48438,0.64809
7.856,0.67897,1.5039,0.83398,-0.49805,0.64809
7.864,0.66913,1.5039,0.74414,-0.47852,0.64712
7.872,0.65806,0.75098,0.77539,0.15625,0.64418
7.88,0.64822,0.4451,0.79883,0.4043,0.64125
7.888,0.63838,0.5098,0.85938,0.35547,0.63636
7.896,0.62977,0.52941,0.90039,0.33008,0.63148
7.904,0.61993,0.5549,0.91406,0.31055,0.62659
7.912,0.61132,0.56078,0.93555,0.31055,0.62072
7.92,0.60271,0.56078,0.92969,0.29492,0.6129
7.928,0.59533,0.56471,0.93945,0.30078,0.60508
7.936,0.58795,0.58039,0.92969,0.29102,0.59531
7.944,0.58057,0.57059,0.93555,0.30078,0.58553
7.952,0.57319,0.58039,0.93945,0.29492,0.57283
7.96,0.56704,0.58431,0.93945,0.28516,0.55718
7.968,0.56212,0.5902,0.93945,0.2793,0.53861
7.976,0.5572,0.6,0.94922,0.26953,0.52004
7.984,0.55228,0.59608,0.95898,0.27539,0.50244
7.992,0.54982,0.60588,0.96484,0.26953,0.4868
8,0.54613,0.61961,0.96484,0.25977,0.47312
8.008,0.5449,0.6098,0.96484,0.26562,0.46237
8.016,0.54244,0.61961,0.96484,0.25977,0.45357
8.024,0.54367,0.62549,0.95898,0.25586,0.44575
8.032,0.5449,0.63529,0.95508,0.24023,0.44086
8.04,0.54859,0.65098,0.94922,0.23438,0.43695
8.048,0.55228,0.67059,0.95508,0.2207,0.43402
8.056,0.5572,0.68039,0.94531,0.21094,0.43109
8.064,0.56089,0.69608,0.95508,0.21484,0.42913
8.072,0.56581,0.72549,0.95508,0.17969,0.4262
8.08,0.57196,0.7451,0.95508,0.15625,0.42424
8.088,0.57811,0.77647,0.95898,0.13477,0.42229
8.096,0.58549,0.80588,0.95898,0.11133,0.41935
8.104,0.5941,0.84118,0.95898,0.089844,0.4174
8.112,0.60271,0.85686,0.96484,0.080078,0.41544
8.12,0.61009,0.87647,0.95898,0.060547,0.41251
8.128,0.6187,0.89608,0.95898,0.044922,0.40958
8.136,0.62608,0.90588,0.95898,0.035156,0.40665
8.144,0.63346,0.88627,0.96484,0.050781,0.40371
8.152,0.63838,0.87059,0.96484,0.064453,0.40176
8.16,0.6433,0.82549,0.97461,0.099609,0.3998
8.168,0.64699,0.79608,0.98438,0.125,0.39687
8.176,0.64945,0.73529,0.98438,0.16992,0.39492
8.184,0.64822,0.7,0.97461,0.18945,0.39296
8.192,0.64699,0.66078,0.98047,0.22461,0.39003
8.2,0.64207,0.6451,0.97461,0.24609,0.38905
8.208,0.63715,0.62941,0.96875,0.23438,0.3871
8.216,0.631,0.61961,0.97461,0.25586,0.38514
8.224,0.62485,0.6098,0.96875,0.25,0.38319
8.232,0.61624,0.60588,0.97461,0.26562,0.37928
8.24,0.60763,0.6,0.96875,0.26953,0.37537
8.248,0.59656,0.60588,0.97461,0.2793,0.37341
8.256,0.58672,0.61569,0.96875,0.26562,0.37146
8.264,0.57442,0.6098,0.97461,0.26953,0.3695
8.272,0.56212,0.62549,0.97461,0.25977,0.36852
8.28,0.54982,0.61569,0.98047,0.26953,0.36657
8.288,0.53875,0.62941,0.97461,0.25977,0.36461
8.296,0.52768,0.61961,0.98047,0.26953,0.36364
8.304,0.51661,0.64118,0.97461,0.24023,0.36266
8.312,0.50677,0.62941,0.98438,0.25586,0.36168
8.32,0.49815,0.62941,0.98047,0.25,0.3607
8.328,0.49077,0.61961,0.97461,0.26562,0.35875
8.336,0.48462,0.64118,0.98047,0.25,0.35679
8.344,0.47847,0.65098,0.99023,0.24023,0.35679
8.352,0.47355,0.67647,0.99023,0.22461,0.35875
8.36,0.47109,0.68039,0.99414,0.2207,0.36266
8.368,0.4674,0.69608,0.98438,0.20117,0.37048
8.376,0.46494,0.6902,0.96484,0.20508,0.38416
8.384,0.46248,0.73137,0.96484,0.16992,0.40469
8.392,0.46125,0.6902,0.95508,0.19531,0.43109
8.4,0.46125,0.69608,0.95508,0.20117,0.45552
8.408,0.46125,0.67059,0.95508,0.23047,0.47996
8.416,0.46125,0.65098,0.96484,0.24023,0.50733
8.424,0.46248,0.62941,0.95898,0.25,0.5347
8.432,0.46371,0.6098,0.95508,0.25977,0.56109
8.44,0.46617,0.59608,0.95898,0.26953,0.58553
8.448,0.46863,0.59608,0.95898,0.27539,0.60606
8.456,0.47232,0.58431,0.95508,0.26953,0.62366
8.464,0.47478,0.58039,0.95898,0.28516,0.63832
8.472,0.47847,0.5902,0.95508,0.26953,0.65005
8.48,0.48093,0.57451,0.96484,0.29492,0.65885
8.488,0.48462,0.5098,1.0254,0.36523,0.66569
8.496,0.48708,0.46078,1.1191,0.4043,0.67155
8.504,0.48954,0.77059,1.2891,0.14453,0.67449
8.512,0.492,1.4529,1.2988,-0.41406,0.67546
8.52,0.49446,1.5039,0.92383,-0.49805,0.67742
8.528,0.49692,1.5039,0.83398,-0.46875,0.6784
8.536,0.49815,0.79608,0.85547,0.125,0.67937
8.544,0.50062,0.46078,0.84375,0.41016,0.67742
8.552,0.50308,0.51569,0.90039,0.35938,0.67644
8.56,0.50554,0.53529,0.93945,0.33594,0.67449
8.568,0.50677,0.56471,0.94922,0.30469,0.67058
8.576,0.50923,0.56078,0.95508,0.31055,0.66569
8.584,0.51169,0.57059,0.95898,0.30469,0.65787
8.592,0.51292,0.56471,0.96484,0.30469,0.65005
8.6,0.51538,0.58039,0.96484,0.29492,0.64418
8.608,0.51661,0.57451,0.96484,0.30078,0.63734
8.616,0.51907,0.59608,0.96484,0.2793,0.62854
8.624,0.5203,0.6,0.96875,0.28516,0.61681
8.632,0.52153,0.5902,0.96875,0.27539,0.60313
8.64,0.52276,0.6,0.96484,0.2793,0.58847
8.648,0.52399,0.60588,0.97461,0.26953,0.57283
8.656,0.52522,0.6098,0.96875,0.26953,0.55718
8.664,0.52645,0.61569,0.98047,0.26953,0.54154
8.672,0.52645,0.61961,0.96875,0.26562,0.5259
8.68,0.52768,0.62941,0.98047,0.26953,0.51222
8.688,0.52891,0.65098,0.96484,0.24609,0.50049
8.696,0.53014,0.6451,0.96875,0.24609,0.48974
8.704,0.53137,0.66471,0.96484,0.23438,0.48094
8.712,0.53383,0.66078,0.96875,0.23047,0.4741
8.72,0.53506,0.69608,0.96484,0.20508,0.46725
8.728,0.53629,0.7,0.96484,0.21094,0.46237
8.736,0.53875,0.73137,0.96484,0.17578,0.45748
8.744,0.54121,0.7549,0.96875,0.15625,0.45455
8.752,0.54367,0.79608,0.96484,0.125,0.45161
8.76,0.54613,0.81176,0.96875,0.11523,0.44868
8.768,0.54859,0.8451,0.96484,0.080078,0.44575
8.776,0.55105,0.86667,0.96484,0.064453,0.44282
8.784,0.55351,0.8902,0.96484,0.050781,0.43988
8.792,0.55474,0.90196,0.96484,0.054688,0.43793
8.8,0.55597,0.91569,0.96875,0.035156,0.43597
8.808,0.5572,0.90588,0.96484,0.041016,0.43402
8.816,0.5572,0.88627,0.97461,0.054688,0.43011
8.824,0.55597,0.85686,0.98047,0.080078,0.42522
8.832,0.55351,0.81569,0.98438,0.11133,0.42033
8.84,0.54982,0.76667,0.99023,0.15625,0.41642
8.848,0.54613,0.72157,0.98438,0.18945,0.41251
8.856,0.54121,0.68627,0.98047,0.2207,0.40958
8.864,0.53629,0.67059,0.98438,0.23047,0.40665
8.872,0.53014,0.65098,0.97461,0.24023,0.40371
8.88,0.52399,0.62941,0.98047,0.25977,0.40176
8.888,0.51538,0.62549,0.98047,0.26562,0.3998
8.896,0.50677,0.61961,0.96875,0.26953,0.39687
8.904,0.49569,0.62549,0.96484,0.26562,0.39589
8.912,0.48585,0.6098,0.97461,0.2793,0.39296
8.92,0.47355,0.62549,0.97461,0.25977,0.38905
8.928,0.46248,0.61569,0.98047,0.26953,0.38416
8.936,0.45018,0.62549,0.98047,0.26562,0.38025
8.944,0.43911,0.61569,0.98438,0.26953,0.37634
8.952,0.42927,0.61961,0.98438,0.26953,0.37243
8.96,0.41943,0.61569,0.99023,0.27539,0.3695
8.968,0.41082,0.64118,0.98438,0.24609,0.36657
8.976,0.40221,0.62549,0.99023,0.26562,0.36266
8.984,0.39606,0.62941,0.98438,0.26953,0.35875
8.992,0.38991,0.61961,0.98438,0.26953,0.35582
9,0.38376,0.62941,0.97461,0.25,0.35386
9.008,0.37884,0.63529,0.98438,0.25586,0.35386
9.016,0.37515,0.66078,0.99023,0.24609,0.35386
9.024,0.37023,0.67059,0.99414,0.24023,0.35679
9.032,0.36777,0.69608,1,0.2207,0.36364
9.04,0.36408,0.7,0.98047,0.20508,0.37634
9.048,0.36285,0.71569,0.95898,0.19531,0.39394
9.056,0.36285,0.74118,0.95508,0.16992,0.4174
9.064,0.36285,0.7,0.93945,0.19531,0.46139
9.072,0.36408,0.67647,0.93945,0.23047,0.49267
9.08,0.36654,0.66078,0.95508,0.25,0.52297
9.088,0.36777,0.67059,0.95898,0.23047,0.565
9.096,0.37146,0.64118,0.94922,0.24609,0.58553
9.104,0.37515,0.6098,0.94531,0.26562,0.60215
9.112,0.37761,0.60588,0.94922,0.26953,0.61877
9.12,0.3813,0.6098,0.94531,0.26562,0.63245
9.128,0.38499,0.5902,0.95508,0.28516,0.64321
9.136,0.38868,0.6,0.95898,0.2793,0.652
9.144,0.39237,0.58039,0.95508,0.29492,0.65982
9.152,0.39729,0.57059,0.96875,0.29102,0.66764
9.16,0.40221,0.49412,1.0488,0.38477,0.67351
9.168,0.4059,0.47451,1.1445,0.39062,0.67742
9.176,0.40959,0.91176,1.2695,0.015625,0.68035
9.184,0.41451,1.5039,1.0996,-0.49805,0.68035
9.192,0.41697,1.5039,0.85938,-0.49805,0.67937
9.2,0.42066,1.2627,0.82422,-0.25391,0.67644
9.208,0.42312,0.66078,0.86523,0.24609,0.67449
9.216,0.42558,0.47451,0.85938,0.40039,0.67253
9.224,0.42681,0.52941,0.9043,0.34961,0.6696
9.232,0.42927,0.56078,0.93555,0.31055,0.66569
9.24,0.4305,0.57059,0.94531,0.30469,0.65982
9.248,0.43173,0.56471,0.95508,0.31445,0.65298
9.256,0.43296,0.58039,0.95508,0.30078,0.64516
9.264,0.43419,0.58431,0.95898,0.29102,0.63636
9.272,0.43542,0.59608,0.95508,0.29102,0.62659
9.28,0.43665,0.5902,0.96484,0.29492,0.61486
9.288,0.43665,0.60588,0.96484,0.2793,0.6002
9.296,0.43665,0.62941,0.95898,0.26562,0.58749
9.304,0.43665,0.61961,0.96484,0.25977,0.5738
9.312,0.43788,0.6098,0.96875,0.2793,0.55621
9.32,0.43665,0.62549,0.96484,0.26562,0.53861
9.328,0.43665,0.61569,0.97461,0.27539,0.52297
9.336,0.43665,0.62549,0.96875,0.26562,0.50733
9.344,0.43665,0.62941,0.96484,0.26953,0.49462
9.352,0.43542,0.65098,0.96875,0.25,0.48387
9.36,0.43542,0.6549,0.96484,0.24609,0.47507
9.368,0.43542,0.65098,0.96484,0.24023,0.46823
9.376,0.43665,0.67059,0.96484,0.23047,0.46237
9.384,0.43788,0.7,0.95898,0.20508,0.45748
9.392,0.43911,0.70588,0.96484,0.21094,0.45259
9.4,0.44157,0.72549,0.95508,0.18555,0.44966
9.408,0.44403,0.74118,0.94922,0.17578,0.44575
9.416,0.44649,0.7902,0.95508,0.13477,0.44184
9.424,0.45018,0.79608,0.96484,0.14062,0.43793
9.432,0.45264,0.83137,0.95508,0.099609,0.435
9.44,0.45633,0.85686,0.94531,0.080078,0.43109
9.448,0.45879,0.88039,0.94922,0.060547,0.42717
9.456,0.46125,0.88627,0.94922,0.060547,0.42326
9.464,0.46248,0.90196,0.95508,0.044922,0.41935
9.472,0.46371,0.91176,0.94922,0.035156,0.41447
9.48,0.46494,0.90588,0.95898,0.044922,0.41056
9.488,0.46617,0.88039,0.95898,0.064453,0.40665
9.496,0.46617,0.85098,0.97461,0.089844,0.40371
9.504,0.46617,0.81176,0.97461,0.125,0.3998
9.512,0.46494,0.78039,0.98047,0.15039,0.39589
9.52,0.46371,0.73137,0.98438,0.18555,0.39296
9.528,0.46002,0.67647,0.99023,0.22461,0.38905
9.536,0.45756,0.66471,0.96875,0.24023,0.38612
9.544,0.45264,0.66078,0.98047,0.24609,0.38221
9.552,0.44772,0.62941,0.98438,0.25977,0.37732
9.56,0.44034,0.61569,0.97461,0.26953,0.37341
9.568,0.43419,0.62549,0.96484,0.26562,0.36852
9.576,0.42681,0.62941,0.96484,0.2793,0.36461
9.584,0.41943,0.6098,0.96484,0.28516,0.3607
9.592,0.41328,0.62941,0.96875,0.26953,0.35973
9.6,0.4059,0.63529,0.98047,0.26953,0.35973
9.608,0.39975,0.61569,0.98047,0.2793,0.35973
9.616,0.39237,0.6098,0.97461,0.26953,0.35973
9.624,0.38745,0.63529,0.98438,0.26562,0.35777
9.632,0.3813,0.62549,0.99023,0.27539,0.35582
9.64,0.37638,0.62941,0.97461,0.25977,0.35386
9.648,0.37146,0.61961,0.96484,0.26953,0.34995
9.656,0.36654,0.63529,0.96484,0.25977,0.34604
9.664,0.36285,0.62941,0.98047,0.26953,0.34409
9.672,0.35916,0.6098,0.98047,0.27539,0.34311
9.68,0.3567,0.63529,0.97461,0.26562,0.34506
9.688,0.35424,0.66078,0.99023,0.24609,0.348
9.696,0.35178,0.65098,0.99023,0.24609,0.35582
9.704,0.35055,0.67647,0.99023,0.22461,0.36755
9.712,0.34932,0.7,0.95898,0.21094,0.38514
9.72,0.35055,0.73137,0.94922,0.17578,0.40762
9.728,0.35055,0.68039,0.93945,0.20508,0.435
9.736,0.35301,0.70588,0.92969,0.20117,0.46334
9.744,0.35424,0.67647,0.95508,0.22461,0.49365
9.752,0.3567,0.6549,0.95898,0.24023,0.52199
9.76,0.35793,0.61569,0.94922,0.26953,0.54741
9.768,0.36039,0.61961,0.93945,0.25977,0.56989
9.776,0.36285,0.5902,0.95508,0.27539,0.58944
9.784,0.36654,0.59608,0.93945,0.27539,0.60606
9.792,0.37023,0.58039,0.94922,0.29492,0.61975
9.8,0.37392,0.5902,0.95508,0.28516,0.6393
9.808,0.37884,0.58039,0.94922,0.29492,0.66471
9.816,0.38376,0.58431,0.94922,0.28516,0.68035
9.824,0.38868,0.52941,1.0039,0.34961,0.69013
9.832,0.3936,0.47059,1.0898,0.41016,0.69208
9.84,0.39729,0.64118,1.1797,0.26562,0.69208
9.848,0.40221,1.202,1.2051,-0.27344,0.6911
9.856,0.40713,1.5039,0.91992,-0.49805,0.6911
9.864,0.41328,1.5039,0.84375,-0.49805,0.68915
9.872,0.4182,0.86667,0.93945,0.11133,0.68719
9.88,0.42312,0.5098,0.88867,0.40039,0.68426
9.888,0.42927,0.4451,0.88477,0.44922,0.67937
9.896,0.43419,0.5,0.89453,0.375,0.67449
9.904,0.44034,0.55098,0.91016,0.33008,0.66764
9.912,0.44526,0.5451,0.93555,0.33594,0.65885
9.92,0.44895,0.58039,0.93555,0.30469,0.64809
9.928,0.45387,0.57059,0.94531,0.31445,0.63539
9.936,0.45756,0.62549,0.93945,0.2793,0.61975
9.944,0.46125,0.58039,0.95898,0.29492,0.60117
9.952,0.46617,0.5902,0.95898,0.2793,0.58162
9.96,0.47109,0.60588,0.95898,0.29492,0.56109
9.968,0.47601,0.60588,0.96484,0.2793,0.53959
9.976,0.4797,0.62549,0.95898,0.26953,0.51906
9.984,0.48339,0.6098,0.96484,0.26953,0.50147
9.992,0.48708,0.63529,0.95898,0.26953,0.48583
10,0.49077,0.62549,0.96875,0.26953,0.46921
10.008,0.49446,0.6451,0.95508,0.25586,0.45064
10.016,0.49938,0.67059,0.94922,0.24023,0.43304
10.024,0.50554,0.67647,0.94531,0.23438,0.41838
10.032,0.51046,0.66471,0.93945,0.24609,0.40665
10.04,0.51907,0.65098,0.94531,0.25,0.39687
10.048,0.52645,0.7098,0.93555,0.21094,0.39003
10.056,0.53629,0.69608,0.94531,0.20508,0.38416
10.064,0.5449,0.68627,0.93945,0.21484,0.3783
10.072,0.55474,0.72549,0.93555,0.18555,0.37048
10.08,0.56458,0.7451,0.93945,0.17578,0.36364
10.088,0.57319,0.76078,0.93945,0.15625,0.35777
10.096,0.58303,0.80588,0.92969,0.12109,0.34897
10.104,0.59533,0.83529,0.92383,0.099609,0.34115
10.112,0.60763,0.82549,0.94531,0.10547,0.33138
10.12,0.62239,0.86667,0.92969,0.080078,0.32258
10.128,0.63592,0.87647,0.93555,0.070312,0.31378
10.136,0.64945,0.90196,0.92383,0.060547,0.30694
10.144,0.66175,0.92549,0.91992,0.044922,0.3001
10.152,0.67405,0.8902,0.92969,0.064453,0.29326
10.16,0.68635,0.87059,0.93945,0.080078,0.28739
10.168,0.69988,0.85098,0.94531,0.099609,0.2825
10.176,0.71341,0.7902,0.96484,0.15039,0.27859
10.184,0.72694,0.76667,0.95898,0.17578,0.27566
10.192,0.74047,0.72157,0.95508,0.20508,0.27468
10.2,0.75523,0.70588,0.96484,0.2207,0.27175
10.208,0.76876,0.66471,0.96484,0.25,0.26686
10.216,0.78352,0.6549,0.94922,0.25586,0.261
10.224,0.79828,0.67647,0.95898,0.24023,0.25513
10.232,0.81058,0.65098,0.95508,0.25977,0.24927
10.24,0.82411,0.67059,0.93945,0.25,0.2434
10.248,0.83641,0.67647,0.95898,0.25586,0.23754
10.256,0.84994,0.63529,0.96875,0.26953,0.23069
10.264,0.86347,0.66471,0.96484,0.24609,0.22483
10.272,0.877,0.67059,0.96484,0.24609,0.21896
10.28,0.89176,0.65098,0.98047,0.25586,0.21408
10.288,0.90652,0.6451,0.95898,0.25977,0.21114
10.296,0.92005,0.67059,0.96484,0.23438,0.20821
10.304,0.93481,0.67059,0.96875,0.24609,0.2043
10.312,0.94711,0.67059,0.95898,0.24609,0.20137
10.32,0.96064,0.67647,0.96484,0.24023,0.19746
10.328,0.9754,0.65098,0.95898,0.25,0.19355
10.336,0.99016,0.67647,0.96875,0.23047,0.19062
10.344,1.0074,0.68039,0.98438,0.23438,0.19062
10.352,1.0246,0.7,0.99023,0.22461,0.19648
10.36,1.0431,0.7,0.99414,0.22461,0.20723
10.368,1.0615,0.73529,0.98438,0.20117,0.22483
10.376,1.0812,0.72549,0.97461,0.20117,0.24927
10.384,1.0996,0.7549,0.95898,0.17578,0.27468
10.392,1.1144,0.72549,0.94531,0.20117,0.30205
10.4,1.1292,0.73137,0.94531,0.19531,0.33529
10.408,1.1292,0.7,0.94922,0.22461,0.37146
10.416,1.1292,0.6902,0.95508,0.23438,0.40762
10.424,1.1292,0.6549,0.94531,0.25586,0.44184
10.432,1.1292,0.62941,0.95508,0.26953,0.47214
10.44,1.1292,0.60588,0.95898,0.29102,0.49658
10.448,1.1292,0.60588,0.96484,0.28516,0.51613
10.456,1.1292,0.6098,0.96875,0.27539,0.53177
10.464,1.1292,0.60588,0.97461,0.2793,0.5435
10.472,1.1292,0.61569,0.96484,0.27539,0.55327
10.48,1.1292,0.5902,0.98438,0.29492,0.56012
10.488,1.1292,0.51961,1.0645,0.375,0.56305
10.496,1.1292,0.47451,1.1602,0.41016,0.56403
10.504,1.1292,0.82157,1.25,0.099609,0.56305
10.512,1.1292,1.5039,1.1387,-0.47461,0.56109
10.52,1.1292,1.5039,0.89453,-0.49805,0.55816
10.528,1.1292,1.4529,0.875,-0.36914,0.55523
10.536,1.1292,0.80588,0.98047,0.17969,0.5523
10.544,1.1292,0.49412,0.93555,0.41016,0.54936
10.552,1.1292,0.47451,0.91406,0.41602,0.54448
10.56,1.1292,0.53529,0.93945,0.35547,0.53763
10.568,1.1292,0.58039,0.95898,0.31445,0.52981
10.576,1.1292,0.58039,0.97461,0.31445,0.51906
10.584,1.1292,0.58431,0.98438,0.30078,0.50831
10.592,1.1292,0.5902,0.99023,0.30469,0.49853
10.6,1.1292,0.58431,0.99023,0.30078,0.48583
10.608,1.1292,0.58431,0.98438,0.30469,0.47019
10.616,1.1292,0.58431,0.98438,0.30469,0.44868
10.624,1.1292,0.60588,0.99023,0.2793,0.42815
10.632,1.1292,0.6098,0.99023,0.2793,0.41447
10.64,1.1292,0.60588,0.99414,0.29102,0.40078
10.648,1.1292,0.6098,0.99023,0.27539,0.39003
10.656,1.1292,0.60588,0.99414,0.2793,0.37928
10.664,1.1292,0.6098,0.99023,0.28516,0.3695
10.672,1.1292,0.62941,0.99023,0.26953,0.3607
10.68,1.1292,0.63529,0.98438,0.25586,0.35288
10.688,1.1292,0.65098,0.98047,0.24609,0.34506
10.696,1.1292,0.6549,0.98438,0.24023,0.3392
10.704,1.1292,0.67647,0.97461,0.22461,0.33431
10.712,1.1292,0.66078,0.98047,0.23438,0.3304
10.72,1.1292,0.6902,0.98047,0.2207,0.32649
10.728,1.1292,0.67647,0.98438,0.22461,0.32258
10.736,1.1292,0.71569,0.98438,0.19531,0.31965
10.744,1.1292,0.73137,0.98438,0.17578,0.31672
10.752,1.1292,0.7451,0.99023,0.15625,0.31378
10.76,1.1292,0.76667,0.99023,0.15039,0.30987
10.768,1.1292,0.79608,0.99023,0.13086,0.30792
10.776,1.1292,0.80588,0.98438,0.13086,0.30596
10.784,1.1292,0.8451,0.97461,0.099609,0.30401
10.792,1.1292,0.85098,0.98438,0.089844,0.30401
10.8,1.1292,0.87059,0.96875,0.070312,0.30205
10.808,1.1292,0.86667,0.97461,0.085938,0.30108
10.816,1.1292,0.86078,0.96875,0.089844,0.3001
10.824,1.1292,0.82549,0.97461,0.12109,0.29912
10.832,1.1292,0.7902,0.97461,0.14453,0.29814
10.84,1.1292,0.7451,0.98047,0.18945,0.29521
10.848,1.1292,0.72157,0.98047,0.21094,0.29326
10.856,1.1292,0.68039,0.98438,0.24023,0.29032
10.864,1.1292,0.66471,0.96875,0.25,0.28739
10.872,1.1292,0.6451,0.96875,0.25977,0.28543
10.88,1.1292,0.64118,0.98047,0.26953,0.28543
10.888,1.1292,0.62549,0.96875,0.28516,0.28641
10.896,1.1292,0.61961,0.97461,0.27539,0.28641
10.904,1.1292,0.64118,0.96875,0.26953,0.28739
10.912,1.1292,0.63529,0.96875,0.26953,0.28641
10.92,1.1292,0.62941,0.98047,0.26953,0.28543
10.928,1.1292,0.62549,0.98047,0.2793,0.2825
10.936,1.1292,0.62941,0.98047,0.26953,0.27859
10.944,1.1292,0.63529,0.98438,0.26562,0.2737
10.952,1.1292,0.6549,0.98438,0.25,0.26784
10.96,1.1292,0.65098,0.99023,0.25586,0.26295
10.968,1.1292,0.6451,0.98438,0.25,0.25904
10.976,1.1292,0.6451,0.99023,0.24609,0.25415
10.984,1.1292,0.65098,0.98047,0.25586,0.25122
10.992,1.1292,0.64118,0.98047,0.26562,0.25024
11,1.1292,0.63529,0.96875,0.25,0.25024
11.008,1.1292,0.64118,0.98047,0.25977,0.2522
11.016,1.1279,0.66471,0.99023,0.24023,0.25904
11.024,1.1279,0.67059,0.99023,0.24609,0.27077
11.032,1.1058,0.6902,0.99414,0.22461,0.28935
11.04,1.0849,0.70588,0.98438,0.2207,0.31574
11.048,1.0627,0.73137,0.96484,0.18945,0.34702
11.056,1.0418,0.75098,0.95898,0.16992,0.38221
11.064,1.0209,0.7098,0.94922,0.18945,0.41838
11.072,0.99877,0.7,0.95508,0.21484,0.45455
11.08,0.97786,0.68039,0.96484,0.22461,0.48387
11.088,0.95572,0.66078,0.94922,0.24023,0.50929
11.096,0.93481,0.62549,0.94922,0.26562,0.53372
11.104,0.91513,0.6,0.94531,0.2793,0.55523
11.112,0.89422,0.5902,0.95898,0.29492,0.57283
11.12,0.87454,0.60588,0.95508,0.27539,0.58553
11.128,0.85609,0.59608,0.95898,0.28516,0.59335
11.136,0.83641,0.6,0.95508,0.27539,0.59726
11.144,0.81673,0.58039,0.96484,0.28516,0.59922
11.152,0.79828,0.58431,0.98047,0.31055,0.6002
11.16,0.77983,0.46471,1.0586,0.4043,0.6002
11.168,0.76138,0.46078,1.1738,0.35938,0.6002
11.176,0.74416,0.96078,1.3145,0,0.59726
11.184,0.72694,1.5039,1.1035,-0.49805,0.59238
11.192,0.71218,1.5039,0.84375,-0.49805,0.58847
11.2,0.69619,1.3373,0.80469,-0.30859,0.58358
11.208,0.68266,0.67059,0.84375,0.24023,0.57576
11.216,0.66913,0.46471,0.85938,0.40039,0.56696
11.224,0.65683,0.51961,0.91016,0.34961,0.55816
11.232,0.6433,0.55098,0.94531,0.32031,0.54936
11.24,0.63223,0.56078,0.96484,0.31445,0.53861
11.248,0.61993,0.56471,0.96484,0.31055,0.52493
11.256,0.60886,0.57059,0.96875,0.30469,0.51124
11.264,0.59902,0.56078,0.96484,0.31445,0.4956
11.272,0.58795,0.58039,0.96484,0.30078,0.47996
11.28,0.57811,0.58431,0.97461,0.29492,0.46628
11.288,0.56827,0.59608,0.96875,0.29102,0.45064
11.296,0.55843,0.58431,0.97461,0.29492,0.435
11.304,0.54736,0.59608,0.97461,0.29102,0.42033
11.312,0.53752,0.58431,0.97461,0.2793,0.40762
11.32,0.52768,0.60588,0.98047,0.27539,0.39589
11.328,0.51784,0.6,0.98047,0.29102,0.38612
11.336,0.508,0.61961,0.98047,0.26953,0.37928
11.344,0.49938,0.62941,0.98047,0.25,0.37439
11.352,0.48954,0.6451,0.97461,0.24609,0.37048
11.36,0.48093,0.65098,0.98047,0.24609,0.36657
11.368,0.47355,0.66078,0.96875,0.23438,0.36461
11.376,0.46494,0.65098,0.96875,0.24609,0.36168
11.384,0.45756,0.67647,0.96484,0.2207,0.35973
11.392,0.45018,0.67059,0.97461,0.22461,0.35679
11.4,0.44403,0.7,0.96875,0.19531,0.35386
11.408,0.43788,0.71569,0.97461,0.18945,0.35093
11.416,0.43173,0.7549,0.98047,0.16016,0.348
11.424,0.42681,0.76667,0.98047,0.15039,0.34409
11.432,0.42189,0.81176,0.99023,0.11523,0.34115
11.44,0.41697,0.82549,0.98438,0.10547,0.33724
11.448,0.41205,0.85098,0.98047,0.089844,0.33236
11.456,0.40713,0.86667,0.97461,0.076172,0.32649
11.464,0.40221,0.88627,0.97461,0.054688,0.32063
11.472,0.39729,0.88627,0.97461,0.060547,0.31378
11.48,0.39114,0.8902,0.96875,0.054688,0.30987
11.488,0.38499,0.86667,0.97461,0.076172,0.30694
11.496,0.37761,0.83137,0.98047,0.10547,0.30499
11.504,0.37023,0.7902,0.98438,0.13477,0.30303
11.512,0.36285,0.7451,0.99023,0.17578,0.30108
11.52,0.35424,0.71569,0.99023,0.19531,0.29912
11.528,0.34563,0.67059,0.99023,0.23047,0.29717
11.536,0.33702,0.66471,0.99023,0.23438,0.29521
11.544,0.32718,0.62941,0.98438,0.25,0.29423
11.552,0.31611,0.62941,0.97461,0.25586,0.29326
11.56,0.30381,0.6098,0.98047,0.26953,0.29326
11.568,0.29274,0.61961,0.98047,0.26562,0.29423
11.576,0.28167,0.61569,0.98438,0.27539,0.29423
11.584,0.2706,0.62549,0.98047,0.26562,0.29423
11.592,0.25953,0.61569,0.99023,0.26953,0.29228
11.6,0.24969,0.62941,0.98438,0.26562,0.28837
11.608,0.23985,0.61961,0.99023,0.25977,0.28543
11.616,0.23124,0.61961,0.99023,0.26953,0.28348
11.624,0.2214,0.6098,0.99023,0.2793,0.28055
11.632,0.21279,0.62941,0.99023,0.25586,0.27664
11.64,0.20541,0.62549,0.99023,0.25,0.2737
11.648,0.19803,0.61961,0.98438,0.26562,0.27273
11.656,0.19065,0.62549,0.98047,0.25586,0.27175
11.664,0.1845,0.61961,0.98047,0.26953,0.2737
11.672,0.17835,0.62941,0.97461,0.25586,0.27761
11.68,0.17343,0.62549,0.98047,0.26562,0.28739
11.688,0.16974,0.65098,0.98438,0.25,0.30303
11.696,0.16605,0.66078,0.99414,0.24023,0.32551
11.704,0.16482,0.68039,1,0.2207,0.35386
11.712,0.16359,0.67647,0.98438,0.22461,0.3871
11.72,0.16236,0.7,0.96484,0.20117,0.42229
11.728,0.16236,0.72549,0.95898,0.17578,0.45846
11.736,0.16236,0.7098,0.93945,0.16602,0.49169
11.744,0.16236,0.69608,0.94531,0.21094,0.52102
11.752,0.16359,0.67647,0.94922,0.21484,0.54741
11.76,0.16359,0.65098,0.95898,0.24609,0.56989
11.768,0.16605,0.62941,0.94922,0.25,0.58651
11.776,0.16728,0.60588,0.94531,0.26953,0.59824
11.784,0.16974,0.60588,0.94922,0.26562,0.60997
11.792,0.17343,0.58039,0.94922,0.28516,0.61877
11.8,0.17712,0.5902,0.94922,0.27539,0.62659
11.808,0.18081,0.58431,0.94922,0.2793,0.63441
11.816,0.1845,0.6,0.94922,0.26953,0.64027
11.824,0.18819,0.57059,0.96484,0.30078,0.64321
11.832,0.19065,0.50588,1.0254,0.37109,0.65298
11.84,0.19311,0.47451,1.125,0.38477,0.66471
11.848,0.19557,0.85686,1.2793,0.070312,0.66862
11.856,0.19803,1.5039,1.1348,-0.49805,0.66862
11.864,0.20049,1.5039,0.87891,-0.49805,0.66569
11.872,0.20295,1.4176,0.80469,-0.37891,0.6608
11.88,0.20418,0.73529,0.84375,0.17578,0.65689
11.888,0.20664,0.47059,0.83398,0.39062,0.65103
11.896,0.2091,0.5451,0.91016,0.33008,0.64516
11.904,0.21033,0.58039,0.94531,0.29492,0.63734
11.912,0.21156,0.58431,0.96484,0.28516,0.62854
11.92,0.21279,0.5902,0.96484,0.2793,0.62072
11.928,0.21402,0.58039,0.96484,0.29492,0.6129
11.936,0.21525,0.5902,0.96484,0.28516,0.60215
11.944,0.21648,0.6,0.97461,0.27539,0.58944
11.952,0.21648,0.6098,0.98047,0.26953,0.57478
11.96,0.21648,0.6,0.98047,0.27539,0.55816
11.968,0.21648,0.60588,0.96875,0.26953,0.54448
11.976,0.21648,0.6,0.97461,0.27539,0.53177
11.984,0.21525,0.62549,0.98047,0.25977,0.51711
11.992,0.21525,0.61569,0.98438,0.26953,0.50244
12,0.21402,0.62549,0.98047,0.25977,0.48876
12.008,0.21402,0.62941,0.99023,0.25586,0.47801
12.016,0.21402,0.63529,0.98047,0.24609,0.47116
12.024,0.21402,0.64118,0.98438,0.24609,0.46628
12.032,0.21402,0.6549,0.98047,0.22461,0.46237
12.04,0.21525,0.66078,0.97461,0.23438,0.45943
12.048,0.21525,0.68039,0.96875,0.2207,0.4565
12.056,0.21648,0.67647,0.96875,0.22461,0.45455
12.064,0.21648,0.7,0.96484,0.20117,0.45552
12.072,0.21771,0.70588,0.96875,0.20117,0.4565
12.08,0.21771,0.73529,0.98047,0.16992,0.45748
12.088,0.21894,0.76667,0.98047,0.15039,0.45748
12.096,0.21894,0.78627,0.97461,0.13086,0.4565
12.104,0.22017,0.80588,0.97461,0.12109,0.45455
12.112,0.2214,0.83137,0.97461,0.099609,0.45259
12.12,0.2214,0.86667,0.98047,0.070312,0.44966
12.128,0.2214,0.88627,0.98047,0.054688,0.44575
12.136,0.21894,0.89608,0.97461,0.050781,0.44282
12.144,0.21771,0.89608,0.98047,0.044922,0.43988
12.152,0.21525,0.88627,0.97461,0.041016,0.43695
12.16,0.21402,0.88627,0.99023,0.060547,0.435
12.168,0.21033,0.86078,0.99023,0.076172,0.43402
12.176,0.20664,0.81176,0.99414,0.12109,0.43402
12.184,0.20172,0.78627,0.99023,0.13477,0.43304
12.192,0.19557,0.73137,1,0.18555,0.43109
12.2,0.18819,0.7,0.99023,0.20508,0.42913
12.208,0.18081,0.67059,0.98438,0.22461,0.4262
12.216,0.1722,0.66078,0.99023,0.23047,0.42326
12.224,0.16359,0.6451,0.98438,0.24023,0.42131
12.232,0.15498,0.63529,0.98047,0.24609,0.41838
12.24,0.14514,0.62941,0.99023,0.25977,0.41544
12.248,0.1353,0.63529,0.98438,0.25,0.41251
12.256,0.12423,0.62941,0.98438,0.25977,0.40958
12.264,0.11316,0.6451,0.98438,0.23438,0.40567
12.272,0.10209,0.65098,0.98438,0.24609,0.40176
12.28,0.092251,0.65098,0.99023,0.24609,0.39785
12.288,0.081181,0.6451,0.99023,0.24023,0.39394
12.296,0.071341,0.64118,0.99023,0.25977,0.39003
12.304,0.062731,0.6451,0.98438,0.25,0.3871
12.312,0.055351,0.63529,0.99023,0.24609,0.38416
12.32,0.04797,0.65098,0.98438,0.24609,0.38319
12.328,0.04305,0.64118,0.99023,0.25,0.38319
12.336,0.0369,0.6451,0.98047,0.24609,0.38319
12.344,0.03321,0.62941,0.98047,0.24609,0.38612
12.352,0.02952,0.65098,0.98047,0.24023,0.39394
12.36,0.02706,0.66471,0.99023,0.24609,0.40762
12.368,0.02337,0.6902,0.99414,0.22461,0.42424
12.376,0.02214,0.68627,1,0.2207,0.44379
12.384,0.02091,0.72157,0.98438,0.19531,0.46921
12.392,0.01968,0.7098,0.95898,0.20117,0.49853
12.4,0.01968,0.75098,0.94922,0.16016,0.5435
12.408,0.01968,0.72157,0.93945,0.17969,0.5738
12.416,0.02091,0.71569,0.93555,0.18945,0.60117
12.424,0.02214,0.66471,0.94531,0.24023,0.63539
12.432,0.0246,0.6549,0.95508,0.24609,0.65396
12.44,0.02706,0.66078,0.95508,0.23047,0.66862
12.448,0.03075,0.62941,0.95508,0.24609,0.68133
12.456,0.03444,0.60588,0.94922,0.26562,0.69013
12.464,0.03813,0.60588,0.95508,0.26953,0.69697
12.472,0.04182,0.5902,0.94922,0.2793,0.70088
12.48,0.04674,0.60588,0.96484,0.26562,0.70479
12.488,0.050431,0.6098,0.95898,0.25977,0.70772
12.496,0.054121,0.5902,0.96875,0.2793,0.70968
12.504,0.057811,0.52549,1.0352,0.34961,0.70968
12.512,0.062731,0.47451,1.1152,0.38477,0.7087
12.52,0.066421,0.78039,1.2539,0.125,0.70577
12.528,0.070111,1.4686,1.1602,-0.44922,0.70088
12.536,0.073801,1.5039,0.91992,-0.49805,0.69501
12.544,0.077491,1.4784,0.84961,-0.43359,0.68915
12.552,0.079951,0.78039,0.89453,0.15625,0.68231
12.56,0.082411,0.47059,0.86914,0.40039,0.67546
12.568,0.084871,0.53529,0.91016,0.3457,0.66862
12.576,0.088561,0.5549,0.94531,0.31445,0.65982
12.584,0.089791,0.58431,0.96484,0.29492,0.65103
12.592,0.092251,0.58039,0.96875,0.29492,0.64027
12.6,0.093481,0.6,0.96484,0.28516,0.62952
12.608,0.095941,0.59608,0.97461,0.29492,0.61681
12.616,0.095941,0.60588,0.98047,0.2793,0.60313
12.624,0.097171,0.6,0.97461,0.27539,0.58749
12.632,0.097171,0.60588,0.97461,0.28516,0.57185
12.64,0.098401,0.6,0.98047,0.2793,0.55816
12.648,0.098401,0.6098,0.97461,0.28516,0.5435
12.656,0.098401,0.6098,0.97461,0.26953,0.53079
12.664,0.098401,0.62941,0.98047,0.25586,0.52297
12.672,0.098401,0.61961,0.97461,0.26562,0.51515
12.68,0.097171,0.62549,0.97461,0.25586,0.50733
12.688,0.097171,0.62941,0.98047,0.26562,0.50049
12.696,0.097171,0.6451,0.98438,0.24609,0.49462
12.704,0.095941,0.6549,0.97461,0.24023,0.48974
12.712,0.095941,0.65098,0.96484,0.23438,0.48583
12.72,0.095941,0.67647,0.96484,0.22461,0.48094
12.728,0.094711,0.67647,0.96484,0.22461,0.47507
12.736,0.094711,0.69608,0.95898,0.20508,0.47116
12.744,0.095941,0.70588,0.95898,0.20117,0.46725
12.752,0.095941,0.72549,0.96484,0.18945,0.46432
12.76,0.097171,0.73529,0.96484,0.17969,0.46237
12.768,0.098401,0.77647,0.96484,0.14062,0.46237
12.776,0.099631,0.77059,0.95898,0.14453,0.46041
12.784,0.10086,0.83137,0.96484,0.10547,0.45846
12.792,0.10332,0.8451,0.96484,0.085938,0.45552
12.8,0.10455,0.86667,0.96484,0.070312,0.45259
12.808,0.10578,0.86667,0.96484,0.064453,0.45064
12.816,0.10701,0.88039,0.96484,0.064453,0.4477
12.824,0.10701,0.87647,0.96875,0.076172,0.44477
12.832,0.10578,0.86667,0.96875,0.070312,0.44184
12.84,0.10455,0.83529,0.98047,0.10547,0.43988
12.848,0.10332,0.81569,0.98438,0.11523,0.43597
12.856,0.10086,0.76078,0.99023,0.16016,0.43304
12.864,0.098401,0.73529,0.98438,0.17969,0.43011
12.872,0.094711,0.68627,0.98047,0.22461,0.42815
12.88,0.091021,0.6549,0.98047,0.24609,0.4262
12.888,0.084871,0.66078,0.98047,0.23438,0.42326
12.896,0.079951,0.64118,0.98047,0.24609,0.42131
12.904,0.071341,0.65098,0.96875,0.25977,0.41838
12.912,0.063961,0.62941,0.96875,0.26562,0.41447
12.92,0.054121,0.61961,0.96484,0.26953,0.4086
12.928,0.04551,0.61569,0.97461,0.26953,0.40371
12.936,0.03567,0.62941,0.96875,0.26953,0.39785
12.944,0.02583,0.62549,0.98047,0.26562,0.39394
12.952,0.01722,0.62941,0.98047,0.26953,0.39003
12.96,0.0086101,0.62941,0.98438,0.26953,0.3871
12.968,0.00246,0.62549,0.97461,0.26953,0.38514
12.976,-0.00369,0.61569,0.98047,0.2793,0.38319
12.984,-0.0098401,0.63529,0.98047,0.25977,0.38123
12.992,-0.01599,0.62941,0.98047,0.26953,0.37928
13,-0.02091,0.62941,0.96484,0.25586,0.3783
13.008,-0.02583,0.61961,0.97461,0.26953,0.38025
13.016,-0.02952,0.62941,0.96875,0.26562,0.38514
13.024,-0.03321,0.61569,0.96875,0.28516,0.39589
13.032,-0.03567,0.65098,0.96875,0.24609,0.41349
13.04,-0.03813,0.67059,0.98438,0.24023,0.43597
13.048,-0.03813,0.6902,0.99023,0.22461,0.46432
13.056,-0.03813,0.7,0.98438,0.2207,0.49365
13.064,-0.03813,0.71569,0.95898,0.20508,0.52004
13.072,-0.0369,0.7,0.93945,0.20508,0.54252
13.08,-0.03444,0.72549,0.92969,0.17969,0.56598
13.088,-0.03198,0.7,0.92383,0.20117,0.58847
13.096,-0.02952,0.69608,0.93945,0.2207,0.60997
13.104,-0.02583,0.67059,0.94531,0.24023,0.62659
13.112,-0.02337,0.65098,0.94922,0.24609,0.64027
13.12,-0.01968,0.62941,0.93945,0.25586,0.652
13.128,-0.01476,0.60588,0.93945,0.2793,0.66178
13.136,-0.01107,0.59608,0.93555,0.29102,0.66764
13.144,-0.0073801,0.60588,0.93945,0.27539,0.67155
13.152,-0.00246,0.6098,0.93945,0.26953,0.67351
13.16,0.00123,0.6,0.94531,0.27539,0.67449
13.168,0.0061501,0.60588,0.93945,0.26953,0.67351
13.176,0.0098401,0.57059,0.97461,0.31445,0.67351
13.184,0.01353,0.49412,1.0391,0.39062,0.67351
13.192,0.01722,0.47451,1.1445,0.40039,0.67253
13.2,0.02091,1.0059,1.2051,-0.083984,0.67058
13.208,0.02337,1.5039,1.0195,-0.49805,0.66667
13.216,0.02706,1.5039,0.82422,-0.49805,0.66178
13.224,0.02952,1.0471,0.875,-0.074219,0.65494
13.232,0.03321,0.5902,0.84961,0.32422,0.64712
13.24,0.03444,0.4549,0.86523,0.41602,0.63832
13.248,0.0369,0.53922,0.90039,0.3457,0.62854
13.256,0.03936,0.56078,0.92969,0.33008,0.61975
13.264,0.04059,0.5549,0.94531,0.30078,0.60997
13.272,0.04305,0.59608,0.94531,0.29492,0.59824
13.28,0.04428,0.61961,0.94922,0.27539,0.58553
13.288,0.04674,0.60588,0.95898,0.29102,0.57283
13.296,0.04797,0.6098,0.96484,0.26953,0.55914
13.304,0.050431,0.61569,0.95898,0.2793,0.54643
13.312,0.051661,0.59608,0.96875,0.29492,0.53568
13.32,0.054121,0.62941,0.96484,0.25977,0.52395
13.328,0.056581,0.63529,0.96875,0.25586,0.5132
13.336,0.057811,0.6451,0.96484,0.25,0.50342
13.344,0.060271,0.62941,0.98047,0.26562,0.49658
13.352,0.063961,0.65098,0.96875,0.24609,0.48974
13.36,0.066421,0.65098,0.96875,0.24609,0.48485
13.368,0.068881,0.64118,0.97461,0.25977,0.47996
13.376,0.072571,0.65098,0.98438,0.24609,0.47507
13.384,0.076261,0.67059,0.96875,0.22461,0.47116
13.392,0.078721,0.66471,0.96484,0.23047,0.46823
13.4,0.082411,0.7,0.96484,0.21094,0.46628
13.408,0.086101,0.6902,0.96875,0.21094,0.46334
13.416,0.089791,0.7098,0.96484,0.20117,0.46139
13.424,0.092251,0.7098,0.96484,0.20117,0.45846
13.432,0.095941,0.7549,0.95508,0.16016,0.45552
13.44,0.099631,0.78039,0.96484,0.14062,0.45259
13.448,0.10332,0.82157,0.95898,0.10547,0.45064
13.456,0.10578,0.81569,0.96875,0.10547,0.44868
13.464,0.10947,0.83529,0.95898,0.085938,0.44575
13.472,0.11316,0.87059,0.94531,0.070312,0.44184
13.48,0.11562,0.8902,0.94922,0.050781,0.43793
13.488,0.11931,0.88627,0.94922,0.041016,0.43304
13.496,0.12177,0.89608,0.95898,0.050781,0.42815
13.504,0.12423,0.92157,0.94531,0.019531,0.42424
13.512,0.12423,0.89608,0.96875,0.044922,0.42131
13.52,0.12546,0.84118,0.98047,0.085938,0.41838
13.528,0.12423,0.79608,0.99023,0.125,0.41544
13.536,0.123,0.76078,0.98438,0.16016,0.41349
13.544,0.11931,0.73137,0.98047,0.18945,0.41056
13.552,0.11562,0.69608,0.98438,0.21094,0.40762
13.56,0.1107,0.65098,0.96484,0.24609,0.40469
13.568,0.10455,0.66078,0.96484,0.24609,0.40176
13.576,0.098401,0.64118,0.96484,0.25977,0.39687
13.584,0.092251,0.62941,0.95508,0.26562,0.39296
13.592,0.087331,0.63529,0.94922,0.26953,0.38807
13.6,0.081181,0.62941,0.96484,0.26953,0.38416
13.608,0.077491,0.62549,0.95508,0.27539,0.38123
13.616,0.072571,0.60588,0.96484,0.28516,0.37928
13.624,0.068881,0.63529,0.94531,0.26562,0.37732
13.632,0.066421,0.65098,0.95508,0.25,0.37537
13.64,0.063961,0.6098,0.96484,0.2793,0.37341
13.648,0.062731,0.63529,0.94531,0.25977,0.37146
13.656,0.061501,0.65098,0.93945,0.25,0.37146
13.664,0.060271,0.63529,0.94922,0.25586,0.37048
13.672,0.060271,0.62941,0.93555,0.26562,0.3695
13.68,0.060271,0.61569,0.93945,0.26953,0.37146
13.688,0.061501,0.6451,0.92969,0.25,0.37439
13.696,0.062731,0.62941,0.94531,0.26562,0.38221
13.704,0.066421,0.6549,0.95508,0.24609,0.39296
13.712,0.068881,0.66471,0.96484,0.24609,0.40469
13.72,0.073801,0.67647,0.96484,0.23047,0.42326
13.728,0.078721,0.7,0.95898,0.2207,0.4565
13.736,0.086101,0.71569,0.93945,0.20117,0.4956
13.744,0.092251,0.73529,0.94922,0.17578,0.52981
13.752,0.098401,0.7098,0.91406,0.19531,0.55621
13.76,0.10578,0.7098,0.91016,0.20508,0.57771
13.768,0.11193,0.68039,0.93555,0.23047,0.59922
13.776,0.11931,0.6451,0.93945,0.25586,0.61486
13.784,0.12792,0.65098,0.91992,0.24609,0.62757
13.792,0.13653,0.6,0.91992,0.2793,0.64125
13.8,0.14637,0.5902,0.92383,0.29102,0.65005
13.808,0.15744,0.6,0.91406,0.27539,0.65689
13.816,0.16728,0.60588,0.92383,0.2793,0.65982
13.824,0.17712,0.58039,0.92969,0.29492,0.6608
13.832,0.18696,0.59608,0.93945,0.28516,0.6608
13.84,0.1968,0.58039,0.93555,0.31055,0.65885
13.848,0.20664,0.5,1.0391,0.38477,0.65494
13.856,0.21771,0.48039,1.1289,0.4043,0.65103
13.864,0.23124,0.83529,1.1836,0.060547,0.64712
13.872,0.24354,1.5039,1.0488,-0.49805,0.63832
13.88,0.25707,1.5039,0.84375,-0.49805,0.62463
13.888,0.27183,1.2725,0.92383,-0.24023,0.61486
13.896,0.28659,0.73529,0.96875,0.25977,0.60508
13.904,0.30135,0.4902,0.9043,0.42578,0.59629
13.912,0.31611,0.4451,0.875,0.44922,0.58651
13.92,0.32964,0.52941,0.88477,0.35938,0.57478
13.928,0.34317,0.5451,0.90039,0.33984,0.56012
13.936,0.3567,0.58039,0.91406,0.31445,0.5435
13.944,0.37023,0.5902,0.92383,0.30078,0.52297
13.952,0.38376,0.6,0.93555,0.29492,0.50538
13.96,0.39852,0.5902,0.93945,0.30469,0.48876
13.968,0.41328,0.59608,0.93945,0.28516,0.47019
13.976,0.42558,0.6098,0.94531,0.28516,0.45064
13.984,0.43788,0.62941,0.94531,0.26953,0.43206
13.992,0.45018,0.6098,0.93945,0.2793,0.41447
14,0.46125,0.62941,0.93945,0.25977,0.3998
14.008,0.47355,0.6451,0.94922,0.26953,0.3871
14.016,0.48708,0.61961,0.95898,0.26953,0.37634
14.024,0.50062,0.64118,0.94922,0.25977,0.36755
14.032,0.51415,0.65098,0.94922,0.25,0.3607
14.04,0.52891,0.6549,0.94531,0.25,0.35582
14.048,0.54367,0.67059,0.93945,0.23438,0.35288
14.056,0.55843,0.66471,0.93945,0.24023,0.34995
14.064,0.57442,0.6549,0.93945,0.23438,0.34604
14.072,0.58795,0.6451,0.93555,0.24609,0.34115
14.08,0.60271,0.68627,0.92383,0.21094,0.33431
14.088,0.61501,0.70588,0.93945,0.20117,0.32649
14.096,0.62854,0.7,0.94531,0.20508,0.31965
14.104,0.6433,0.73137,0.94531,0.17578,0.31378
14.112,0.65929,0.76078,0.94531,0.15039,0.3089
14.12,0.67405,0.77059,0.94922,0.14062,0.30303
14.128,0.69004,0.79608,0.95508,0.14453,0.29717
14.136,0.7048,0.81569,0.93945,0.10547,0.2913
14.144,0.71833,0.81176,0.93945,0.11523,0.28446
14.152,0.73063,0.86667,0.93555,0.076172,0.27957
14.16,0.74293,0.87647,0.93555,0.076172,0.27468
14.168,0.75523,0.86667,0.93945,0.080078,0.27077
14.176,0.7663,0.85686,0.92969,0.099609,0.26686
14.184,0.7786,0.83529,0.94531,0.11133,0.26588
14.192,0.78967,0.8,0.94531,0.15039,0.26491
14.2,0.80074,0.77059,0.96484,0.16992,0.26491
14.208,0.81058,0.7451,0.95898,0.19531,0.26588
14.216,0.82042,0.7098,0.96484,0.2207,0.26686
14.224,0.82903,0.67647,0.96875,0.24609,0.26686
14.232,0.83764,0.67059,0.95898,0.25,0.26686
14.24,0.84502,0.6451,0.95508,0.26953,0.26588
14.248,0.8524,0.6549,0.95898,0.25977,0.26295
14.256,0.85978,0.66471,0.96484,0.25586,0.26002
14.264,0.86839,0.6451,0.97461,0.26953,0.25513
14.272,0.877,0.65098,0.96484,0.26562,0.24927
14.28,0.88561,0.63529,0.96484,0.26953,0.24438
14.288,0.89545,0.62941,0.96875,0.26953,0.24047
14.296,0.90406,0.6451,0.96484,0.25586,0.23656
14.304,0.9139,0.65098,0.96484,0.25,0.2346
14.312,0.92374,0.63529,0.96484,0.26562,0.23069
14.32,0.93235,0.6451,0.96484,0.25,0.22874
14.328,0.94342,0.62549,0.96875,0.26953,0.22678
14.336,0.95572,0.65098,0.96484,0.24609,0.22483
14.344,0.96802,0.62549,0.96875,0.26953,0.22483
14.352,0.98155,0.63529,0.96875,0.26562,0.22678
14.36,0.99508,0.64118,0.97461,0.26953,0.2346
14.368,1.0098,0.65098,0.98047,0.26562,0.24829
14.376,1.0258,0.64118,0.99023,0.26953,0.26784
14.384,1.0418,0.67647,0.98438,0.24023,0.29326
14.392,1.0554,0.6902,0.97461,0.24609,0.32356
14.4,1.0701,0.73137,0.95898,0.20508,0.35679
14.408,1.0836,0.73529,0.94922,0.19531,0.39101
14.416,1.0959,0.70588,0.93945,0.20117,0.42522
14.424,1.1095,0.67059,0.94531,0.24023,0.45748
14.432,1.123,0.6451,0.95508,0.25977,0.48583
14.44,1.1267,0.63529,0.94922,0.26562,0.50831
14.448,1.1292,0.61569,0.95508,0.27539,0.52395
14.456,1.1292,0.58431,0.94922,0.29492,0.5347
14.464,1.1292,0.5902,0.95508,0.28516,0.54448
14.472,1.1292,0.57451,0.95898,0.30078,0.5523
14.48,1.1292,0.58039,0.96484,0.28516,0.55816
14.488,1.1292,0.58431,0.95508,0.30078,0.56109
14.496,1.1292,0.57059,0.98047,0.30469,0.56305
14.504,1.1292,0.52549,1.0254,0.34961,0.56305
14.512,1.1292,0.44902,1.0996,0.41992,0.56109
14.52,1.1292,0.58431,1.209,0.30469,0.55914
14.528,1.1292,1.1412,1.2598,-0.17383,0.55523
14.536,1.1292,1.5039,1.0098,-0.49805,0.54936
14.544,1.1292,1.5039,0.85547,-0.49805,0.54057
14.552,1.1292,1.0157,0.94922,-0.019531,0.53177
14.56,1.1292,0.57059,0.91406,0.35938,0.52102
14.568,1.1292,0.43922,0.89453,0.43945,0.50831
14.576,1.1292,0.5,0.91406,0.375,0.4956
14.584,1.1292,0.53529,0.92383,0.33984,0.48289
14.592,1.1292,0.5451,0.95508,0.33008,0.46921
14.6,1.1292,0.56078,0.95898,0.31445,0.45552
14.608,1.1292,0.5549,0.96875,0.32422,0.44184
14.616,1.1292,0.57451,0.96484,0.31055,0.42815
14.624,1.1292,0.58039,0.96484,0.29492,0.41544
14.632,1.1292,0.59608,0.96875,0.29492,0.40371
14.64,1.1292,0.58431,0.97461,0.30078,0.39394
14.648,1.1292,0.59608,0.96875,0.29492,0.3871
14.656,1.1292,0.5902,0.97461,0.29102,0.38123
14.664,1.1292,0.60588,0.98047,0.27539,0.37439
14.672,1.1292,0.6098,0.96875,0.2793,0.3695
14.68,1.1292,0.61569,0.96875,0.26953,0.36461
14.688,1.1292,0.62549,0.96484,0.27539,0.35973
14.696,1.1292,0.64118,0.96484,0.25977,0.35582
14.704,1.1292,0.62941,0.95898,0.26562,0.35288
14.712,1.1292,0.64118,0.94922,0.24609,0.34995
14.72,1.1292,0.65098,0.94531,0.24023,0.34897
14.728,1.1292,0.63529,0.93945,0.25,0.34995
14.736,1.1292,0.66471,0.94922,0.23438,0.35093
14.744,1.1292,0.67059,0.95508,0.2207,0.34995
14.752,1.1292,0.68627,0.94922,0.21094,0.34995
14.76,1.1292,0.70588,0.96484,0.20117,0.34897
14.768,1.1292,0.72549,0.96484,0.17578,0.34702
14.776,1.1292,0.74118,0.96484,0.16016,0.34702
14.784,1.1292,0.77059,0.96484,0.13477,0.34506
14.792,1.1292,0.77647,0.96875,0.14062,0.34409
14.8,1.1292,0.79608,0.96484,0.11523,0.34311
14.808,1.1292,0.81569,0.96484,0.11133,0.34311
14.816,1.1292,0.84118,0.96484,0.089844,0.34213
14.824,1.1292,0.82549,0.96484,0.10547,0.34018
14.832,1.1292,0.84118,0.96484,0.089844,0.33724
14.84,1.1292,0.81569,0.96875,0.12109,0.33333
14.848,1.1292,0.79608,0.95898,0.13086,0.33138
14.856,1.1292,0.7549,0.96484,0.16602,0.32845
14.864,1.1292,0.72549,0.96484,0.19531,0.32454
14.872,1.1292,0.6902,0.96484,0.2207,0.32063
14.88,1.1292,0.67059,0.96484,0.23438,0.31672
14.888,1.1292,0.64118,0.96484,0.25586,0.31378
14.896,1.1292,0.62941,0.96484,0.26953,0.30987
14.904,1.1292,0.61569,0.96484,0.2793,0.30694
14.912,1.1292,0.62549,0.96484,0.28516,0.30303
14.92,1.1292,0.62941,0.95508,0.26953,0.30108
14.928,1.1292,0.61569,0.95508,0.2793,0.29912
14.936,1.1292,0.64118,0.95508,0.26562,0.29814
14.944,1.1292,0.62549,0.95898,0.26953,0.29717
14.952,1.1292,0.6451,0.94922,0.25586,0.29717
14.96,1.1292,0.64118,0.95898,0.25977,0.29619
14.968,1.1218,0.65098,0.95898,0.25,0.29423
14.976,1.1144,0.63529,0.96484,0.25977,0.29228
14.984,1.1021,0.6549,0.96484,0.24609,0.29032
14.992,1.091,0.65098,0.96484,0.24609,0.28935
15,1.0787,0.65098,0.96484,0.25,0.29032
15.008,1.0677,0.63529,0.96484,0.25586,0.29423
15.016,1.0554,0.6549,0.96875,0.24023,0.30205
15.024,1.0443,0.66471,0.97461,0.24023,0.31769
15.032,1.0332,0.68627,0.98438,0.22461,0.34018
15.04,1.0234,0.68627,0.99023,0.23047,0.3695
15.048,1.0135,0.7,0.99023,0.22461,0.39883
15.056,1.0037,0.7,0.99023,0.21484,0.43109
15.064,0.99385,0.72549,0.96484,0.19531,0.46823
15.072,0.98524,0.74118,0.95898,0.17969,0.50538
15.08,0.9754,0.73137,0.93945,0.17578,0.54154
15.088,0.96679,0.71569,0.93945,0.19531,0.57478
15.096,0.95941,0.69608,0.94531,0.2207,0.60117
15.104,0.95203,0.66471,0.95508,0.24609,0.62072
15.112,0.94588,0.65098,0.94922,0.24609,0.63539
15.12,0.93973,0.62941,0.94531,0.25977,0.64614
15.128,0.93358,0.6098,0.94922,0.26953,0.65494
15.136,0.92866,0.60588,0.95508,0.27539,0.66276
15.144,0.92374,0.6,0.96484,0.2793,0.66569
15.152,0.91882,0.60588,0.96484,0.27539,0.66667
15.16,0.9139,0.60588,0.96484,0.26953,0.66764
15.168,0.91021,0.5902,0.96875,0.28516,0.66764
15.176,0.90652,0.51569,1.0293,0.37109,0.66764
15.184,0.90283,0.47059,1.1191,0.4043,0.66764
15.192,0.90037,0.78039,1.2949,0.15039,0.66667
15.2,0.89668,1.5039,1.1797,-0.43945,0.66373
15.208,0.89422,1.5039,0.91016,-0.49805,0.65885
15.216,0.89053,1.5039,0.80469,-0.49805,0.652
15.224,0.88684,0.80588,0.83008,0.125,0.64321
15.232,0.88438,0.48039,0.83398,0.39062,0.63245
15.24,0.87946,0.51961,0.89453,0.35938,0.6217
15.248,0.87577,0.56078,0.92969,0.31445,0.61095
15.256,0.87208,0.57059,0.95508,0.31055,0.59922
15.264,0.86839,0.58039,0.95898,0.30078,0.58456
15.272,0.86593,0.57451,0.96484,0.30469,0.56891
15.28,0.86224,0.58039,0.96484,0.30078,0.55132
15.288,0.85978,0.58431,0.96484,0.29492,0.53275
15.296,0.85609,0.5902,0.96484,0.28516,0.5132
15.304,0.8524,0.58431,0.96484,0.29492,0.49462
15.312,0.84994,0.59608,0.96875,0.28516,0.47801
15.32,0.84625,0.6,0.96484,0.2793,0.46334
15.328,0.84256,0.58431,0.97461,0.29492,0.44966
15.336,0.83887,0.60588,0.96875,0.28516,0.43597
15.344,0.83641,0.59608,0.96875,0.29102,0.4262
15.352,0.83272,0.6098,0.96484,0.26953,0.41838
15.36,0.83026,0.62549,0.96875,0.26562,0.41251
15.368,0.8278,0.63529,0.96484,0.25977,0.4086
15.376,0.82534,0.6451,0.96484,0.26562,0.40567
15.384,0.82288,0.65098,0.96484,0.24609,0.40274
15.392,0.82042,0.65098,0.95898,0.24609,0.40078
15.4,0.81796,0.67647,0.96484,0.23047,0.39883
15.408,0.81673,0.68039,0.95898,0.22461,0.39492
15.416,0.81427,0.70588,0.95898,0.20508,0.39198
15.424,0.81304,0.72549,0.96484,0.18555,0.38905
15.432,0.81304,0.7549,0.96484,0.16016,0.38514
15.44,0.81181,0.77647,0.96484,0.14453,0.38221
15.448,0.81058,0.81176,0.96484,0.125,0.37928
15.456,0.81058,0.82549,0.96875,0.11523,0.37732
15.464,0.80935,0.85098,0.96484,0.089844,0.37537
15.472,0.80812,0.86667,0.96875,0.076172,0.37341
15.48,0.80566,0.88627,0.96484,0.060547,0.37048
15.488,0.8032,0.89608,0.97461,0.054688,0.36755
15.496,0.79951,0.8902,0.97461,0.054688,0.36461
15.504,0.79459,0.87647,0.98438,0.076172,0.36168
15.512,0.78967,0.8451,0.98047,0.089844,0.35777
15.52,0.78475,0.81569,0.97461,0.12109,0.35484
15.528,0.7786,0.77059,0.99023,0.15039,0.35093
15.536,0.77245,0.73529,0.98438,0.17969,0.348
15.544,0.76261,0.69608,0.98047,0.21484,0.34506
15.552,0.75277,0.6549,0.97461,0.24609,0.34311
15.56,0.7417,0.65098,0.98438,0.24609,0.34018
15.568,0.7294,0.62941,0.96484,0.25586,0.33724
15.576,0.7171,0.62941,0.97461,0.25977,0.33431
15.584,0.70603,0.62941,0.96875,0.25586,0.3304
15.592,0.69373,0.61961,0.96875,0.26562,0.32747
15.6,0.68266,0.62941,0.96484,0.25977,0.32356
15.608,0.66913,0.61569,0.96875,0.26953,0.32063
15.616,0.65683,0.64118,0.97461,0.25977,0.31574
15.624,0.6433,0.64118,0.98047,0.25586,0.31085
15.632,0.631,0.65098,0.97461,0.24609,0.30499
15.64,0.6187,0.63529,0.98047,0.25586,0.30205
15.648,0.6064,0.65098,0.97461,0.25,0.3001
15.656,0.59533,0.64118,0.98438,0.25977,0.29912
15.664,0.58426,0.63529,0.98047,0.25586,0.29912
15.672,0.57442,0.6451,0.98438,0.25977,0.30205
15.68,0.56581,0.65098,0.98047,0.24609,0.30987
15.688,0.5572,0.66078,0.98438,0.24023,0.32454
15.696,0.54982,0.67647,0.99023,0.23047,0.34702
15.704,0.54367,0.68039,0.99023,0.22461,0.37634
15.712,0.53752,0.69608,1,0.22461,0.41056
15.72,0.5326,0.70588,0.99414,0.21484,0.44868
15.728,0.52768,0.71569,0.97461,0.20508,0.4868
15.736,0.52522,0.72549,0.95898,0.18555,0.52493
15.744,0.52153,0.7451,0.94531,0.16016,0.55718
15.752,0.51907,0.72549,0.93945,0.16992,0.5826
15.76,0.51661,0.72157,0.95508,0.19531,0.60606
15.768,0.51538,0.6902,0.95898,0.2207,0.62854
15.776,0.51415,0.66471,0.95898,0.23438,0.64809
15.784,0.51415,0.62941,0.95508,0.25586,0.66471
15.792,0.51415,0.62549,0.95508,0.25977,0.67937
15.8,0.51415,0.62941,0.95508,0.24609,0.69208
15.808,0.51538,0.61569,0.95898,0.25977,0.70186
15.816,0.51661,0.61961,0.95898,0.25586,0.71065
15.824,0.51784,0.6098,0.96484,0.26562,0.71652
15.832,0.51907,0.61961,0.95898,0.26562,0.71945
15.84,0.5203,0.58039,0.98047,0.30078,0.72043
15.848,0.5203,0.5,1.0488,0.375,0.72043
15.856,0.52153,0.48431,1.1641,0.38086,0.71945
15.864,0.52153,0.99216,1.2695,-0.044922,0.71848
15.872,0.52153,1.5039,1.0703,-0.49805,0.71554
15.88,0.52153,1.5039,0.83984,-0.49805,0.71065
15.888,0.52153,1.202,0.81055,-0.19922,0.70479
15.896,0.5203,0.62549,0.84375,0.27539,0.69795
15.904,0.51907,0.4902,0.85938,0.38477,0.6911
15.912,0.51538,0.56471,0.91406,0.31445,0.68035
15.92,0.51292,0.58431,0.94531,0.29492,0.66667
15.928,0.51046,0.5902,0.95508,0.28516,0.65396
15.936,0.50677,0.6,0.95898,0.2793,0.64125
15.944,0.50185,0.6,0.95898,0.28516,0.62854
15.952,0.49815,0.61569,0.96484,0.26953,0.61584
15.96,0.49323,0.61961,0.96484,0.26953,0.60313
15.968,0.48954,0.60588,0.95898,0.27539,0.58944
15.976,0.48462,0.6098,0.96484,0.2793,0.5738
15.984,0.4797,0.62941,0.96484,0.25977,0.55816
15.992,0.47478,0.62941,0.96484,0.25977,0.54448
16,0.47109,0.6451,0.96484,0.24609,0.53275
16.008,0.46617,0.62941,0.96875,0.25977,0.52297
16.016,0.46248,0.64118,0.96875,0.25586,0.51515
16.024,0.45756,0.61961,0.96875,0.26953,0.50929
16.032,0.45264,0.65098,0.97461,0.24023,0.50342
16.04,0.44772,0.67059,0.96875,0.22461,0.49853
16.048,0.4428,0.68039,0.96484,0.21484,0.4956
16.056,0.43911,0.68039,0.96484,0.2207,0.49267
16.064,0.43542,0.69608,0.96484,0.20508,0.49071
16.072,0.43173,0.7,0.95898,0.20117,0.48974
16.08,0.42804,0.71569,0.96484,0.20117,0.48778
16.088,0.42681,0.72549,0.95898,0.18555,0.48583
16.096,0.42435,0.76667,0.95898,0.15039,0.48387
16.104,0.42312,0.78627,0.95508,0.13477,0.48387
16.112,0.42189,0.81569,0.96484,0.11133,0.48192
16.12,0.42066,0.84118,0.95898,0.085938,0.47801
16.128,0.41943,0.86667,0.96484,0.076172,0.4741
16.136,0.4182,0.88039,0.96484,0.070312,0.46823
16.144,0.41697,0.89608,0.96484,0.054688,0.46432
16.152,0.41451,0.90588,0.95898,0.035156,0.45943
16.16,0.41328,0.92157,0.96875,0.025391,0.45455
16.168,0.41082,0.93725,0.97461,0.015625,0.44966
16.176,0.40836,0.8902,0.98438,0.050781,0.44673
16.184,0.40344,0.86078,0.97461,0.076172,0.44282
16.192,0.39975,0.80588,0.98047,0.12109,0.43988
16.2,0.39237,0.77647,0.98047,0.14453,0.43695
16.208,0.38622,0.71569,0.98047,0.20117,0.435
16.216,0.37884,0.6902,0.97461,0.21484,0.43206
16.224,0.37146,0.67647,0.98047,0.22461,0.42913
16.232,0.36285,0.66471,0.98047,0.23047,0.4262
16.24,0.35424,0.65098,0.98438,0.24609,0.42424
16.248,0.34317,0.6549,0.96484,0.24023,0.42326
16.256,0.3321,0.63529,0.96875,0.25586,0.42229
16.264,0.31857,0.6451,0.96875,0.24609,0.42131
16.272,0.30627,0.63529,0.97461,0.25586,0.41935
16.28,0.29151,0.6451,0.96875,0.25,0.4174
16.288,0.27798,0.64118,0.96875,0.25586,0.41447
16.296,0.26322,0.65098,0.98047,0.24609,0.41251
16.304,0.24846,0.64118,0.98438,0.26562,0.40958
16.312,0.23616,0.65098,0.99023,0.24609,0.40567
16.32,0.22386,0.6451,0.98438,0.25,0.40176
16.328,0.21402,0.65098,0.98438,0.25586,0.3998
16.336,0.20295,0.64118,0.98047,0.24023,0.3998
16.344,0.19311,0.62941,0.98438,0.25977,0.40274
16.352,0.1845,0.64118,0.97461,0.25,0.4086
16.36,0.17589,0.65098,0.96875,0.23438,0.42033
16.368,0.16728,0.66471,0.97461,0.23047,0.43597
16.376,0.1599,0.68039,0.99023,0.2207,0.45552
16.384,0.15375,0.6902,0.99023,0.21484,0.47996
16.392,0.1476,0.67059,0.99023,0.23438,0.50929
16.4,0.14268,0.72157,0.95898,0.18555,0.53861
16.408,0.13899,0.71569,0.94922,0.17578,0.56891
16.416,0.1353,0.73529,0.94531,0.16992,0.59726
16.424,0.13407,0.69608,0.93945,0.20117,0.6217
16.432,0.13161,0.7,0.93945,0.20117,0.64321
16.44,0.13161,0.67059,0.94922,0.24023,0.6608
16.448,0.13038,0.65098,0.94531,0.24609,0.67253
16.456,0.13038,0.62549,0.94531,0.25586,0.68133
16.464,0.13161,0.6098,0.93945,0.26953,0.68915
16.472,0.13161,0.60588,0.93945,0.26953,0.69599
16.48,0.13284,0.60588,0.94922,0.26562,0.6999
16.488,0.13407,0.6098,0.95508,0.26953,0.70381
16.496,0.13653,0.59608,0.95508,0.27539,0.70674
16.504,0.13776,0.60588,0.96484,0.26953,0.70968
16.512,0.14022,0.57451,0.99414,0.30469,0.70968
16.52,0.14145,0.48039,1.0586,0.39453,0.7087
16.528,0.14391,0.47451,1.1699,0.30469,0.70674
16.536,0.14514,1.0373,1.2402,-0.10352,0.70479
16.544,0.1476,1.5039,1.0254,-0.49805,0.70283
16.552,0.14883,1.5039,0.82422,-0.49805,0.69892
16.56,0.15006,1.0569,0.86914,-0.083984,0.69404
16.568,0.15129,0.56471,0.85547,0.33008,0.68817
16.576,0.15252,0.47059,0.875,0.4043,0.68035
16.584,0.15375,0.5549,0.91016,0.33008,0.67058
16.592,0.15375,0.57451,0.92969,0.30469,0.65885
16.6,0.15498,0.5902,0.93945,0.29102,0.64516
16.608,0.15498,0.58431,0.94922,0.29492,0.63245
16.616,0.15498,0.60588,0.95508,0.29102,0.61975
16.624,0.15498,0.59608,0.95898,0.29492,0.60606
16.632,0.15375,0.60588,0.95898,0.28516,0.59238
16.64,0.15375,0.6,0.95898,0.29102,0.57869
16.648,0.15252,0.60588,0.95898,0.2793,0.56696
16.656,0.15129,0.6098,0.95508,0.28516,0.55523
16.664,0.15129,0.62941,0.95898,0.26953,0.54252
16.672,0.15129,0.61569,0.96484,0.26953,0.53177
16.68,0.15006,0.62549,0.95898,0.26953,0.52297
16.688,0.15006,0.62941,0.95508,0.26953,0.51515
16.696,0.15006,0.64118,0.96875,0.25586,0.50929
16.704,0.15006,0.64118,0.96484,0.25586,0.50342
16.712,0.15006,0.66078,0.95898,0.24023,0.49756
16.72,0.15006,0.6549,0.96484,0.24023,0.49169
16.728,0.15006,0.67059,0.95898,0.23047,0.48583
16.736,0.15006,0.68627,0.95898,0.2207,0.47996
16.744,0.15129,0.7,0.95508,0.20508,0.47507
16.752,0.15129,0.72549,0.94531,0.17969,0.47116
16.76,0.15129,0.7451,0.94922,0.16992,0.4653
16.768,0.15252,0.77059,0.94531,0.15039,0.46139
16.776,0.15375,0.76667,0.95508,0.14453,0.45943
16.784,0.15498,0.81176,0.93945,0.12109,0.4565
16.792,0.15621,0.83137,0.95508,0.099609,0.45259
16.8,0.15744,0.86667,0.96484,0.070312,0.44966
16.808,0.15867,0.87647,0.95898,0.060547,0.44575
16.816,0.1599,0.8902,0.94531,0.044922,0.44282
16.824,0.1599,0.91569,0.94531,0.035156,0.43988
16.832,0.1599,0.91176,0.93945,0.03125,0.43597
16.84,0.1599,0.88039,0.95898,0.060547,0.43206
16.848,0.15867,0.88627,0.96484,0.050781,0.42815
16.856,0.15744,0.8451,0.96484,0.085938,0.42326
16.864,0.15744,0.80588,0.98047,0.125,0.41642
16.872,0.15498,0.75098,0.98438,0.16602,0.40958
16.88,0.15252,0.72157,0.97461,0.19531,0.40274
16.888,0.1476,0.7,0.97461,0.20508,0.39785
16.896,0.14268,0.6902,0.98047,0.2207,0.39394
16.904,0.13653,0.6451,0.96875,0.25,0.39101
16.912,0.13038,0.63529,0.96875,0.25977,0.3871
16.92,0.12177,0.61961,0.96484,0.25586,0.38416
16.928,0.11316,0.61569,0.96875,0.27539,0.38123
16.936,0.10332,0.63529,0.95898,0.25586,0.37928
16.944,0.093481,0.65098,0.96484,0.26562,0.37732
16.952,0.084871,0.62549,0.98438,0.25,0.37537
16.96,0.077491,0.6098,0.97461,0.27539,0.37243
16.968,0.070111,0.6451,0.96484,0.25586,0.37048
16.976,0.063961,0.64118,0.98047,0.25977,0.36755
16.984,0.056581,0.62549,0.96875,0.25586,0.36461
16.992,0.050431,0.63529,0.96875,0.25977,0.36266
17,0.04305,0.65098,0.96484,0.25586,0.35973
17.008,0.0369,0.61569,0.98047,0.26953,0.35973
17.016,0.03198,0.63529,0.95898,0.26562,0.36266
17.024,0.02706,0.62549,0.96484,0.26953,0.37048
17.032,0.02214,0.6451,0.98047,0.24023,0.38319
17.04,0.01845,0.66078,0.99023,0.24023,0.3998
17.048,0.01599,0.68627,0.98047,0.22461,0.41935
17.056,0.0123,0.66471,0.99023,0.24023,0.44379
17.064,0.0098401,0.7,0.96484,0.20508,0.47312
17.072,0.0073801,0.73529,0.95508,0.17578,0.5044
17.08,0.0061501,0.74118,0.93555,0.16602,0.5347
17.088,0.00492,0.69608,0.91992,0.19531,0.56403
17.096,0.00492,0.68039,0.94531,0.2207,0.59042
17.104,0.0061501,0.65098,0.94922,0.24609,0.6129
17.112,0.0073801,0.65098,0.93945,0.24609,0.63245
17.12,0.0086101,0.6,0.94922,0.27539,0.64809
17.128,0.01107,0.5902,0.93945,0.28516,0.6608
17.136,0.01353,0.6,0.94531,0.29102,0.67058
17.144,0.01845,0.57451,0.94922,0.29492,0.67644
17.152,0.02214,0.56471,0.93945,0.29102,0.6784
17.16,0.02706,0.58039,0.93555,0.29492,0.67937
17.168,0.03321,0.5902,0.94922,0.28516,0.68035
17.176,0.03813,0.5451,1,0.33984,0.68035
17.184,0.04428,0.47059,1.0742,0.4043,0.68035
17.192,0.050431,0.58431,1.1641,0.30469,0.68035
17.2,0.055351,1.0863,1.1836,-0.16992,0.68035
17.208,0.061501,1.5039,0.96875,-0.49805,0.68035
17.216,0.067651,1.5039,0.84961,-0.49805,0.6784
17.224,0.073801,0.95098,0.96875,0.035156,0.67546
17.232,0.079951,0.58039,0.92383,0.35938,0.67155
17.24,0.086101,0.43529,0.89453,0.45508,0.66569
17.248,0.093481,0.50588,0.88867,0.375,0.65787
17.256,0.10086,0.53529,0.91016,0.33984,0.64809
17.264,0.10947,0.56078,0.92383,0.32422,0.63636
17.272,0.11562,0.55098,0.93945,0.33008,0.62366
17.28,0.123,0.58431,0.93555,0.29492,0.60802
17.288,0.13038,0.57059,0.93945,0.31055,0.59042
17.296,0.13776,0.59608,0.94922,0.29102,0.57283
17.304,0.14514,0.58431,0.94531,0.29492,0.55425
17.312,0.15252,0.60588,0.93945,0.2793,0.53666
17.32,0.16113,0.5902,0.95898,0.29492,0.52004
17.328,0.16974,0.58039,0.95898,0.29102,0.50342
17.336,0.17835,0.5902,0.96484,0.29492,0.48876
17.344,0.18696,0.60588,0.95898,0.27539,0.47801
17.352,0.19557,0.62941,0.94531,0.26562,0.46823
17.36,0.20418,0.62941,0.94922,0.26953,0.45943
17.368,0.21402,0.62549,0.94531,0.26562,0.45064
17.376,0.22386,0.6098,0.94922,0.27539,0.44477
17.384,0.23616,0.63529,0.93945,0.25977,0.43988
17.392,0.24846,0.6451,0.93555,0.26562,0.43597
17.4,0.26199,0.66078,0.94531,0.24023,0.43206
17.408,0.27552,0.6549,0.93555,0.22461,0.42913
17.416,0.29028,0.6902,0.92969,0.20508,0.42522
17.424,0.30504,0.68039,0.93555,0.2207,0.42131
17.432,0.31857,0.72157,0.92969,0.18555,0.4174
17.44,0.3321,0.7098,0.93945,0.17578,0.41153
17.448,0.34563,0.75098,0.93555,0.15625,0.40762
17.456,0.35793,0.77059,0.92969,0.13477,0.40176
17.464,0.37146,0.7902,0.94531,0.12109,0.39394
17.472,0.38622,0.81569,0.93945,0.11523,0.3871
17.48,0.39975,0.8451,0.92969,0.085938,0.37928
17.488,0.41328,0.82549,0.93945,0.099609,0.37243
17.496,0.42681,0.87059,0.92969,0.060547,0.36559
17.504,0.43911,0.87647,0.93555,0.076172,0.3607
17.512,0.45018,0.85098,0.93945,0.095703,0.35679
17.52,0.46248,0.8,0.95508,0.13477,0.35288
17.528,0.47355,0.76078,0.95898,0.16016,0.34897
17.536,0.48462,0.76667,0.96484,0.17969,0.34506
17.544,0.49569,0.69608,0.98438,0.22461,0.34311
17.552,0.508,0.68039,0.96875,0.24023,0.34115
17.56,0.51907,0.66471,0.96484,0.25,0.33822
17.568,0.53014,0.67647,0.94531,0.25586,0.33529
17.576,0.54121,0.61569,0.95898,0.2793,0.33138
17.584,0.55351,0.62941,0.95508,0.26953,0.32649
17.592,0.56335,0.62941,0.94922,0.2793,0.3216
17.6,0.57442,0.63529,0.94922,0.26953,0.31574
17.608,0.58549,0.64118,0.95508,0.26562,0.31085
17.616,0.59656,0.6451,0.95508,0.25977,0.30792
17.624,0.60763,0.61961,0.95508,0.27539,0.30499
17.632,0.61993,0.65098,0.95508,0.25977,0.30205
17.64,0.63223,0.62549,0.96484,0.26953,0.29912
17.648,0.64453,0.63529,0.95898,0.26562,0.29717
17.656,0.65683,0.62941,0.95508,0.25977,0.29228
17.664,0.66913,0.66078,0.94922,0.24609,0.28935
17.672,0.6802,0.62941,0.96484,0.26953,0.28739
17.68,0.69127,0.63529,0.96484,0.26562,0.28739
17.688,0.70357,0.65098,0.98047,0.25586,0.29032
17.696,0.71587,0.66471,0.99023,0.24609,0.29814
17.704,0.7294,0.68627,0.99023,0.23438,0.31183
17.712,0.74293,0.7,0.98438,0.21484,0.32942
17.72,0.75769,0.7098,0.98047,0.2207,0.35093
17.728,0.77245,0.73529,0.96484,0.20117,0.37732
17.736,0.78721,0.76667,0.94531,0.17578,0.40567
17.744,0.80197,0.7098,0.93945,0.20117,0.42913
17.752,0.8155,0.7098,0.94531,0.21484,0.45259
17.76,0.82903,0.67647,0.95898,0.24609,0.47703
17.768,0.8401,0.65098,0.93945,0.25,0.50049
17.776,0.8524,0.6451,0.94531,0.25,0.52004
17.784,0.86347,0.63529,0.93945,0.25586,0.53666
17.792,0.87577,0.60588,0.94531,0.26953,0.5523
17.8,0.88807,0.6098,0.94531,0.26953,0.56403
17.808,0.90037,0.6,0.94922,0.28516,0.57283
17.816,0.91021,0.61569,0.95898,0.27539,0.57869
17.824,0.92005,0.60588,0.95898,0.2793,0.5826
17.832,0.92866,0.57059,0.99414,0.31445,0.58358
17.84,0.9385,0.48431,1.0801,0.39453,0.5826
17.848,0.94711,0.47451,1.1699,0.4043,0.58065
17.856,0.95572,0.97647,1.2344,-0.035156,0.57869
17.864,0.9631,1.5039,1.0488,-0.49805,0.57576
17.872,0.97171,1.5039,0.85938,-0.49805,0.5738
17.88,0.98032,1.2118,0.94922,-0.17383,0.57087
17.888,0.98893,0.6451,0.96484,0.30469,0.56794
17.896,0.99631,0.46078,0.9043,0.42578,0.56403
17.904,1.0049,0.49412,0.91016,0.38477,0.55718
17.912,1.0123,0.5549,0.92383,0.33008,0.54741
17.92,1.0197,0.57059,0.94922,0.31445,0.53568
17.928,1.0258,0.56078,0.95898,0.32422,0.52395
17.936,1.032,0.5902,0.96484,0.29492,0.50929
17.944,1.0394,0.58431,0.97461,0.30078,0.4956
17.952,1.0467,0.60588,0.98047,0.29102,0.48192
17.96,1.0541,0.60588,0.98438,0.28516,0.46823
17.968,1.0627,0.61569,0.98047,0.26953,0.4565
17.976,1.0689,0.60588,0.98438,0.2793,0.44575
17.984,1.0763,0.6098,0.99023,0.26953,0.43695
17.992,1.0824,0.6,0.99023,0.28516,0.43011
18,1.0886,0.62941,0.99414,0.25977,0.42522
18.008,1.0947,0.61961,1,0.27539,0.42131
18.016,1.0996,0.6451,0.99023,0.25,0.41838
18.024,1.1058,0.63529,0.99023,0.25,0.41544
18.032,1.1119,0.65098,0.98047,0.24609,0.41251
18.04,1.1181,0.65098,0.98438,0.25,0.41056
18.048,1.123,0.67059,0.96875,0.23438,0.4086
18.056,1.1267,0.67647,0.96484,0.22461,0.40665
18.064,1.1292,0.66471,0.96484,0.23047,0.40371
18.072,1.1292,0.6902,0.96484,0.2207,0.40176
18.08,1.1292,0.71569,0.96484,0.18945,0.39883
18.088,1.1292,0.72549,0.96484,0.17578,0.39785
18.096,1.1292,0.7451,0.97461,0.16016,0.39687
18.104,1.1292,0.76078,0.98047,0.15625,0.39687
18.112,1.1292,0.7902,0.98438,0.13086,0.39785
18.12,1.1292,0.81176,0.98438,0.10547,0.39785
18.128,1.1292,0.82549,0.98047,0.10547,0.39785
18.136,1.1292,0.84118,0.97461,0.089844,0.39687
18.144,1.1292,0.87059,0.98438,0.070312,0.39589
18.152,1.1292,0.88039,0.97461,0.060547,0.39492
18.16,1.1292,0.87059,0.97461,0.076172,0.39296
18.168,1.1292,0.86078,0.98047,0.095703,0.39003
18.176,1.1292,0.81176,0.99023,0.13477,0.38807
18.184,1.1292,0.79608,0.98438,0.13086,0.38514
18.192,1.1292,0.75098,0.99023,0.16992,0.38319
18.2,1.1292,0.72157,0.99023,0.20117,0.38025
18.208,1.1292,0.69608,0.99023,0.2207,0.37732
18.216,1.1292,0.67059,0.99023,0.24023,0.37439
18.224,1.1292,0.65098,0.98438,0.25,0.37243
18.232,1.1292,0.6549,0.98047,0.25586,0.3695
18.24,1.1292,0.62941,0.98438,0.26953,0.36755
18.248,1.1292,0.64118,0.98047,0.26562,0.36657
18.256,1.1292,0.63529,0.98047,0.26953,0.36559
18.264,1.1267,0.65098,0.98047,0.25586,0.36461
18.272,1.1242,0.63529,0.98047,0.27539,0.36364
18.28,1.1119,0.6549,0.96875,0.25,0.36168
18.288,1.0996,0.6549,0.98047,0.24609,0.35973
18.296,1.0873,0.66078,0.98438,0.24023,0.35777
18.304,1.0763,0.65098,0.98047,0.24609,0.35386
18.312,1.064,0.66471,0.98047,0.23438,0.35093
18.32,1.0529,0.6451,0.98047,0.25,0.34897
18.328,1.0406,0.62941,0.97461,0.26953,0.34897
18.336,1.0271,0.66471,0.97461,0.23047,0.35093
18.344,1.0123,0.6549,0.98047,0.24609,0.35679
18.352,0.99877,0.67647,0.98438,0.23438,0.36461
18.36,0.98401,0.68627,0.99414,0.22461,0.3783
18.368,0.97048,0.69608,1,0.22461,0.39785
18.376,0.95695,0.6902,0.99414,0.21484,0.42033
18.384,0.94219,0.72549,0.97461,0.20117,0.4477
18.392,0.92989,0.73529,0.96484,0.18555,0.47703
18.4,0.91759,0.76667,0.95508,0.15039,0.50538
18.408,0.90652,0.71569,0.94531,0.17578,0.53177
18.416,0.89668,0.72157,0.95508,0.19531,0.55523
18.424,0.88684,0.68039,0.96484,0.23047,0.57674
18.432,0.877,0.66471,0.94922,0.23438,0.59433
18.44,0.86716,0.62941,0.95508,0.26562,0.60704
18.448,0.85855,0.62549,0.95508,0.25586,0.61486
18.456,0.85117,0.6098,0.94922,0.26953,0.6217
18.464,0.84379,0.60588,0.95508,0.26953,0.62757
18.472,0.83641,0.60588,0.95508,0.26953,0.63343
18.48,0.82903,0.60588,0.93945,0.26953,0.63734
18.488,0.82288,0.58431,0.94531,0.2793,0.6393
18.496,0.81673,0.57451,0.99023,0.31055,0.64027
18.504,0.80935,0.48039,1.0703,0.39453,0.64125
18.512,0.8032,0.58431,1.2051,0.31055,0.64125
18.52,0.79705,1.0961,1.2891,-0.11914,0.64027
18.528,0.7909,1.5039,1.0352,-0.49805,0.63832
18.536,0.78352,1.5039,0.81445,-0.49805,0.63441
18.544,0.77737,1.1373,0.84961,-0.14453,0.6305
18.552,0.77122,0.58431,0.84375,0.31055,0.62463
18.56,0.76507,0.47451,0.86523,0.40039,0.61779
18.568,0.75892,0.5451,0.91016,0.33594,0.61095
18.576,0.75277,0.56078,0.93945,0.31445,0.60313
18.584,0.74662,0.57059,0.94922,0.31055,0.59335
18.592,0.74047,0.56078,0.95508,0.31445,0.5826
18.6,0.73432,0.57451,0.95898,0.30469,0.56989
18.608,0.72817,0.57451,0.96484,0.31055,0.55425
18.616,0.72325,0.57451,0.95508,0.30469,0.53861
18.624,0.71833,0.58431,0.95508,0.29492,0.52493
18.632,0.71464,0.6,0.95508,0.29102,0.51124
18.64,0.70972,0.59608,0.95898,0.29102,0.50049
18.648,0.7048,0.6,0.95898,0.2793,0.49169
18.656,0.70111,0.59608,0.96484,0.29102,0.48192
18.664,0.69619,0.6098,0.96484,0.26953,0.4741
18.672,0.69127,0.60588,0.96875,0.2793,0.46823
18.68,0.68758,0.62549,0.96875,0.26953,0.46139
18.688,0.68389,0.62549,0.96875,0.26953,0.4565
18.696,0.6802,0.64118,0.96484,0.25586,0.45161
18.704,0.67774,0.6451,0.96484,0.25,0.44966
18.712,0.67528,0.65098,0.96484,0.24609,0.44673
18.72,0.67282,0.65098,0.96484,0.24609,0.44379
18.728,0.67159,0.68039,0.96484,0.22461,0.44086
18.736,0.67036,0.6902,0.96484,0.21484,0.43891
18.744,0.66913,0.70588,0.96484,0.20508,0.43793
18.752,0.66913,0.72549,0.96484,0.19531,0.435
18.76,0.6679,0.75098,0.96484,0.16602,0.43109
18.768,0.6679,0.78039,0.96875,0.13477,0.42815
18.776,0.6679,0.80588,0.98047,0.12109,0.42522
18.784,0.66913,0.83529,0.96875,0.099609,0.42326
18.792,0.66913,0.85686,0.97461,0.080078,0.42033
18.8,0.66913,0.88039,0.96875,0.064453,0.4174
18.808,0.66913,0.87059,0.96875,0.076172,0.41447
18.816,0.66913,0.8902,0.96484,0.054688,0.41251
18.824,0.66667,0.88627,0.98438,0.060547,0.40958
18.832,0.66544,0.86667,0.97461,0.070312,0.40665
18.84,0.66298,0.82549,0.98047,0.10547,0.40469
18.848,0.65929,0.78627,0.98047,0.14062,0.40274
18.856,0.65437,0.73529,0.98438,0.18945,0.40078
18.864,0.64945,0.7,0.98438,0.21484,0.39785
18.872,0.6433,0.65098,0.98047,0.24609,0.39394
18.88,0.63715,0.64118,0.97461,0.25,0.38807
18.888,0.631,0.61569,0.97461,0.26953,0.38221
18.896,0.62362,0.62549,0.98047,0.26562,0.37634
18.904,0.61501,0.61569,0.98047,0.26953,0.37146
18.912,0.60517,0.61961,0.97461,0.26562,0.36852
18.92,0.5941,0.6,0.98047,0.29102,0.36657
18.928,0.58426,0.59608,0.98438,0.29492,0.36461
18.936,0.57319,0.62941,0.98047,0.25977,0.36461
18.944,0.56335,0.63529,0.99023,0.26562,0.36461
18.952,0.55474,0.64118,0.99023,0.25977,0.36559
18.96,0.54613,0.62941,0.98438,0.26953,0.36559
18.968,0.53752,0.62549,0.98047,0.25977,0.36559
18.976,0.52891,0.61569,0.98438,0.27539,0.36559
18.984,0.5203,0.62941,0.97461,0.25977,0.36559
18.992,0.51169,0.61961,0.97461,0.26953,0.36657
19,0.50308,0.64118,0.97461,0.25,0.36852
19.008,0.49569,0.63529,0.98438,0.25977,0.37341
19.016,0.48831,0.66078,0.99023,0.23438,0.38319
19.024,0.48216,0.67647,0.99414,0.22461,0.3998
19.032,0.47601,0.6902,1,0.22461,0.42229
19.04,0.46986,0.6902,0.98438,0.2207,0.44379
19.048,0.46494,0.70588,0.95898,0.20508,0.46823
19.056,0.46125,0.7,0.94922,0.18945,0.49658
19.064,0.45756,0.73529,0.94531,0.16992,0.5259
19.072,0.45387,0.7,0.94922,0.20508,0.55425
19.08,0.45141,0.68627,0.95508,0.22461,0.58065
19.088,0.44772,0.65098,0.95898,0.24609,0.60215
19.096,0.44649,0.6451,0.94922,0.24023,0.61877
19.104,0.44403,0.61961,0.94922,0.25977,0.63343
19.112,0.44403,0.61569,0.95508,0.26562,0.64516
19.12,0.4428,0.60588,0.94922,0.26953,0.65689
19.128,0.4428,0.60588,0.95508,0.26562,0.66764
19.136,0.44403,0.59608,0.96484,0.26953,0.67644
19.144,0.44526,0.6,0.96484,0.27539,0.68133
19.152,0.44649,0.58431,0.96484,0.26953,0.68719
19.16,0.44772,0.52549,1.0195,0.35938,0.6911
19.168,0.44895,0.47451,1.1035,0.39062,0.69306
19.176,0.45018,0.72549,1.25,0.17969,0.69306
19.184,0.45264,1.3471,1.2793,-0.33984,0.6911
19.192,0.45264,1.5039,0.94922,-0.49805,0.68915
19.2,0.45387,1.5039,0.82422,-0.49805,0.68719
19.208,0.4551,0.85098,0.84375,0.085938,0.68328
19.216,0.4551,0.4902,0.83984,0.38086,0.67937
19.224,0.4551,0.47451,0.89453,0.39062,0.67644
19.232,0.4551,0.5549,0.93555,0.32031,0.67253
19.24,0.45387,0.56078,0.95898,0.31445,0.66764
19.248,0.45387,0.58431,0.95898,0.29102,0.66178
19.256,0.45141,0.58039,0.96875,0.29492,0.65298
19.264,0.45018,0.60588,0.96875,0.2793,0.64223
19.272,0.44895,0.59608,0.96875,0.29102,0.6305
19.28,0.44649,0.6098,0.96875,0.26953,0.61779
19.288,0.44526,0.6,0.96875,0.2793,0.60215
19.296,0.4428,0.6098,0.96484,0.26953,0.58553
19.304,0.44034,0.61961,0.96484,0.26953,0.56794
19.312,0.43788,0.6098,0.96875,0.26562,0.55132
19.32,0.43542,0.60588,0.97461,0.27539,0.53861
19.328,0.43296,0.62549,0.97461,0.25977,0.5259
19.336,0.42927,0.62941,0.98047,0.25586,0.51711
19.344,0.42558,0.62941,0.96875,0.26562,0.51026
19.352,0.42189,0.63529,0.96875,0.25586,0.5044
19.36,0.4182,0.6549,0.98047,0.24609,0.49853
19.368,0.41574,0.67647,0.96875,0.23047,0.49462
19.376,0.41205,0.67059,0.97461,0.23438,0.49071
19.384,0.40836,0.6902,0.96484,0.2207,0.48778
19.392,0.4059,0.7,0.96484,0.20508,0.48387
19.4,0.40221,0.70588,0.96484,0.20117,0.47898
19.408,0.39975,0.73529,0.96484,0.17578,0.4741
19.416,0.39606,0.78039,0.96484,0.14453,0.46921
19.424,0.3936,0.7902,0.97461,0.13086,0.46334
19.432,0.39237,0.82157,0.96875,0.11133,0.45846
19.44,0.38991,0.85098,0.96484,0.085938,0.45357
19.448,0.38745,0.86667,0.96875,0.076172,0.45064
19.456,0.38499,0.88039,0.96484,0.060547,0.44966
19.464,0.38253,0.90588,0.96875,0.041016,0.4477
19.472,0.37884,0.91176,0.96875,0.035156,0.44673
19.48,0.37515,0.91569,0.97461,0.03125,0.44575
19.488,0.37023,0.88627,0.97461,0.050781,0.44477
19.496,0.36408,0.86078,0.98047,0.076172,0.44477
19.504,0.35916,0.80588,0.99023,0.12109,0.44477
19.512,0.35178,0.76078,0.99023,0.16016,0.44379
19.52,0.34563,0.73137,0.99023,0.17969,0.44282
19.528,0.33825,0.7,0.99023,0.20508,0.44086
19.536,0.3321,0.67059,0.98438,0.22461,0.44086
19.544,0.32103,0.65098,0.98047,0.24023,0.43988
19.552,0.31119,0.62941,0.98047,0.25,0.43793
19.56,0.29766,0.62941,0.98438,0.25977,0.43597
19.568,0.28536,0.60588,0.96875,0.27539,0.43304
19.576,0.27306,0.6,0.97461,0.26562,0.43011
19.584,0.26076,0.62941,0.97461,0.25586,0.4262
19.592,0.24846,0.62941,0.98438,0.25977,0.42326
19.6,0.23616,0.64118,0.99023,0.25,0.42033
19.608,0.22386,0.63529,0.98047,0.25586,0.4174
19.616,0.21033,0.64118,0.98438,0.24609,0.41447
19.624,0.1968,0.62549,0.98438,0.26953,0.41056
19.632,0.1845,0.64118,0.98438,0.25,0.40762
19.64,0.1722,0.63529,0.99023,0.25586,0.40469
19.648,0.1599,0.64118,0.97461,0.24609,0.40371
19.656,0.14883,0.62941,0.98047,0.25586,0.40274
19.664,0.13776,0.63529,0.98047,0.24609,0.40469
19.672,0.12792,0.64118,0.98047,0.25,0.41153
19.68,0.11808,0.67059,0.99023,0.23438,0.42424
19.688,0.1107,0.66078,0.99023,0.24609,0.44282
19.696,0.10332,0.6902,0.99023,0.2207,0.46628
19.704,0.097171,0.7,0.98438,0.21094,0.49462
19.712,0.091021,0.72157,0.95508,0.18945,0.52395
19.72,0.087331,0.73529,0.94922,0.17578,0.55425
19.728,0.082411,0.71569,0.93555,0.17969,0.58358
19.736,0.078721,0.69608,0.92969,0.20508,0.60704
19.744,0.076261,0.67059,0.95898,0.23438,0.62757
19.752,0.073801,0.67647,0.96484,0.23047,0.64614
19.76,0.072571,0.64118,0.95508,0.24609,0.66373
19.768,0.072571,0.61961,0.95508,0.25977,0.67742
19.776,0.072571,0.6098,0.95898,0.26953,0.68817
19.784,0.075031,0.6,0.94922,0.26953,0.69697
19.792,0.076261,0.59608,0.94922,0.27539,0.70283
19.8,0.078721,0.6,0.94922,0.26953,0.70772
19.808,0.079951,0.59608,0.95898,0.27539,0.71163
19.816,0.082411,0.58431,0.96484,0.26953,0.71359
19.824,0.084871,0.5098,1.0254,0.36523,0.71457
19.832,0.087331,0.47451,1.1152,0.38477,0.71359
19.84,0.089791,0.78627,1.2344,0.11523,0.71065
19.848,0.092251,1.4824,1.1289,-0.46484,0.70772
19.856,0.093481,1.5039,0.88867,-0.49805,0.70479
19.864,0.094711,1.4333,0.81445,-0.39844,0.70088
19.872,0.097171,0.72549,0.84961,0.20117,0.69697
19.88,0.097171,0.47059,0.84375,0.40039,0.69208
19.888,0.098401,0.51961,0.90039,0.35547,0.68719
19.896,0.099631,0.57451,0.93555,0.31055,0.68133
19.904,0.10086,0.57059,0.94922,0.30469,0.67351
19.912,0.10086,0.58039,0.94531,0.29492,0.66373
19.92,0.10209,0.57059,0.95508,0.31445,0.65103
19.928,0.10209,0.59608,0.96484,0.28516,0.63734
19.936,0.10209,0.5902,0.95508,0.29492,0.62463
19.944,0.10086,0.59608,0.95898,0.29102,0.6129
19.952,0.10086,0.6098,0.94922,0.27539,0.59824
19.96,0.098401,0.6098,0.95898,0.26953,0.58358
19.968,0.097171,0.61961,0.95508,0.26953,0.56989
19.976,0.095941,0.63529,0.94531,0.25586,0.55621
19.984,0.093481,0.64118,0.95898,0.26953,0.54252
19.992,0.092251,0.61961,0.96484,0.26562,0.53079
20,0.091021,0.64118,0.95508,0.24609,0.52102
20.008,0.089791,0.63529,0.95898,0.25,0.5044
20.016,0.087331,0.6549,0.95508,0.23047,0.48485
20.024,0.086101,0.65098,0.95898,0.24609,0.47312
20.032,0.084871,0.68039,0.94922,0.22461,0.46432
20.04,0.082411,0.67059,0.96484,0.22461,0.45846
20.048,0.079951,0.68627,0.94922,0.21094,0.45552
20.056,0.078721,0.7,0.95508,0.20508,0.45259
20.064,0.078721,0.72157,0.94531,0.17969,0.44868
20.072,0.077491,0.74118,0.94531,0.16602,0.44575
20.08,0.077491,0.78039,0.94531,0.13477,0.44086
20.088,0.078721,0.8,0.95898,0.125,0.43597
20.096,0.079951,0.84118,0.94531,0.089844,0.43109
20.104,0.082411,0.86667,0.93945,0.070312,0.42522
20.112,0.084871,0.87647,0.95508,0.054688,0.42033
20.12,0.087331,0.88039,0.94531,0.054688,0.4174
20.128,0.088561,0.90588,0.94531,0.03125,0.41349
20.136,0.091021,0.92157,0.95508,0.019531,0.41153
20.144,0.092251,0.90196,0.95898,0.041016,0.40958
20.152,0.093481,0.87647,0.96484,0.060547,0.40762
20.16,0.093481,0.85098,0.96484,0.085938,0.40469
20.168,0.093481,0.80588,0.95898,0.11523,0.40274
20.176,0.092251,0.7451,0.98438,0.16016,0.3998
20.184,0.089791,0.7098,0.98438,0.19531,0.39687
20.192,0.087331,0.68039,0.99023,0.21484,0.39394
20.2,0.083641,0.66078,0.98438,0.23047,0.39198
20.208,0.078721,0.6451,0.98047,0.24609,0.38807
20.216,0.073801,0.61961,0.97461,0.26953,0.38416
20.224,0.068881,0.61569,0.96875,0.26953,0.38025
20.232,0.062731,0.61569,0.96484,0.26562,0.37537
20.24,0.056581,0.62941,0.95898,0.26953,0.37243
20.248,0.0492,0.6098,0.98047,0.27539,0.3695
20.256,0.04182,0.60588,0.96484,0.2793,0.36755
20.264,0.03321,0.62941,0.96875,0.26953,0.36461
20.272,0.0246,0.60588,0.96875,0.28516,0.36168
20.28,0.01599,0.6,0.97461,0.29102,0.35679
20.288,0.0073801,0.59608,0.98047,0.2793,0.35288
20.296,-0.00123,0.61961,0.96484,0.26953,0.34897
20.304,-0.0098401,0.61961,0.96484,0.27539,0.34604
20.312,-0.01599,0.6098,0.95508,0.2793,0.34409
20.32,-0.02337,0.62941,0.95508,0.26562,0.34409
20.328,-0.02829,0.62549,0.96484,0.24609,0.348
20.336,-0.03444,0.65098,0.97461,0.25586,0.35484
20.344,-0.03813,0.6549,0.98438,0.24609,0.36559
20.352,-0.04305,0.66078,0.99023,0.24609,0.38123
20.36,-0.04551,0.68627,0.97461,0.22461,0.40176
20.368,-0.0492,0.7098,0.95898,0.21094,0.4262
20.376,-0.051661,0.73529,0.96484,0.17969,0.45455
20.384,-0.052891,0.75098,0.92383,0.16602,0.48387
20.392,-0.052891,0.69608,0.92969,0.20508,0.51222
20.4,-0.052891,0.66078,0.93555,0.24023,0.53959
20.408,-0.050431,0.63529,0.93945,0.25586,0.565
20.416,-0.0492,0.6098,0.92383,0.26953,0.58749
20.424,-0.04428,0.6,0.91992,0.2793,0.60606
20.432,-0.04059,0.62549,0.92969,0.26953,0.62072
20.44,-0.03444,0.57059,0.91992,0.29492,0.6305
20.448,-0.02952,0.58039,0.91406,0.28516,0.64027
20.456,-0.02337,0.56471,0.92969,0.29492,0.64712
20.464,-0.01599,0.57451,0.93555,0.29492,0.65103
20.472,-0.0098401,0.58039,0.92969,0.29102,0.65298
20.48,-0.00246,0.53529,1,0.34961,0.65396
20.488,0.00369,0.4451,1.0996,0.41992,0.65396
20.496,0.01107,0.66471,1.1797,0.21484,0.65494
20.504,0.01845,1.2882,1.1035,-0.34961,0.65494
20.512,0.02583,1.5039,0.89453,-0.49805,0.65494
20.52,0.03321,1.4784,0.84375,-0.45312,0.65494
20.528,0.04182,0.82549,0.96875,0.16016,0.65396
20.536,0.0492,0.49412,0.9043,0.41602,0.65005
20.544,0.056581,0.43922,0.88867,0.44531,0.64516
20.552,0.062731,0.5098,0.90039,0.37109,0.63734
20.56,0.070111,0.5549,0.91016,0.32031,0.62854
20.568,0.078721,0.56078,0.92969,0.31445,0.61779
20.576,0.087331,0.58431,0.92383,0.30469,0.60411
20.584,0.097171,0.6,0.93945,0.29492,0.58847
20.592,0.10578,0.57451,0.95508,0.30469,0.57087
20.6,0.11685,0.6,0.94922,0.29102,0.5523
20.608,0.12792,0.6,0.95898,0.29102,0.5347
20.616,0.13899,0.6098,0.95508,0.27539,0.51515
20.624,0.15006,0.61569,0.95508,0.2793,0.49756
20.632,0.1599,0.62549,0.95898,0.26562,0.48192
20.64,0.17097,0.6,0.96484,0.2793,0.46823
20.648,0.18081,0.62941,0.95898,0.26562,0.45455
20.656,0.19065,0.61961,0.95508,0.26953,0.44086
20.664,0.20172,0.65098,0.94531,0.24609,0.43011
20.672,0.21279,0.6451,0.94922,0.25,0.42033
20.68,0.22386,0.6549,0.93555,0.24609,0.41153
20.688,0.23616,0.65098,0.94531,0.24609,0.40371
20.696,0.24723,0.68627,0.93555,0.2207,0.39687
20.704,0.2583,0.67059,0.93945,0.23438,0.39198
20.712,0.26937,0.68039,0.93555,0.2207,0.3871
20.72,0.28044,0.6902,0.92969,0.21484,0.38221
20.728,0.29151,0.72549,0.92383,0.18555,0.37928
20.736,0.30381,0.72157,0.92969,0.17969,0.37634
20.744,0.31611,0.73529,0.93945,0.16992,0.37146
20.752,0.32841,0.76667,0.94531,0.15039,0.36657
20.76,0.34194,0.8,0.93945,0.12109,0.36168
20.768,0.35547,0.82157,0.93945,0.10547,0.35484
20.776,0.369,0.8451,0.92969,0.089844,0.348
20.784,0.38376,0.86667,0.93555,0.070312,0.34115
20.792,0.39483,0.85098,0.91992,0.080078,0.33431
20.8,0.40713,0.88039,0.92383,0.060547,0.32845
20.808,0.41697,0.8902,0.91992,0.064453,0.32356
20.816,0.42804,0.84118,0.93945,0.099609,0.31867
20.824,0.43788,0.80588,0.94531,0.13086,0.31574
20.832,0.44772,0.78039,0.94531,0.15625,0.31281
20.84,0.45756,0.72549,0.95508,0.20117,0.31085
20.848,0.4674,0.70588,0.95508,0.21484,0.3089
20.856,0.47601,0.67059,0.96484,0.24609,0.30499
20.864,0.48462,0.66078,0.95898,0.25,0.30108
20.872,0.492,0.65098,0.96484,0.26953,0.29814
20.88,0.49938,0.64118,0.94922,0.26953,0.29717
20.888,0.508,0.62941,0.94922,0.26562,0.29619
20.896,0.51661,0.6451,0.95898,0.25586,0.29423
20.904,0.52522,0.64118,0.95898,0.25586,0.2913
20.912,0.53506,0.66078,0.95508,0.24023,0.28837
20.92,0.5449,0.64118,0.94922,0.25586,0.28446
20.928,0.55597,0.62941,0.96875,0.25977,0.27957
20.936,0.56704,0.6549,0.95898,0.24609,0.27566
20.944,0.57811,0.6451,0.95898,0.25586,0.27273
20.952,0.58795,0.65098,0.95898,0.24609,0.26784
20.96,0.59779,0.66471,0.95898,0.23438,0.26295
20.968,0.60763,0.64118,0.95898,0.25,0.25904
20.976,0.61747,0.6549,0.95898,0.24609,0.25709
20.984,0.62731,0.6451,0.96484,0.26562,0.25806
20.992,0.63838,0.64118,0.97461,0.24023,0.261
21,0.65068,0.68627,0.96875,0.2207,0.26882
21.008,0.66298,0.68039,0.99023,0.22461,0.28348
21.016,0.67282,0.7,0.99023,0.21484,0.30303
21.024,0.68389,0.71569,0.96875,0.2207,0.32747
21.032,0.69373,0.7451,0.95898,0.17578,0.35191
21.04,0.7048,0.72157,0.93945,0.18945,0.37537
21.048,0.71587,0.70588,0.93555,0.20117,0.40176
21.056,0.72694,0.7098,0.95508,0.22461,0.42815
21.064,0.73924,0.68039,0.94531,0.23047,0.45161
21.072,0.75154,0.64118,0.94922,0.25586,0.47116
21.08,0.76261,0.62549,0.94531,0.26562,0.48778
21.088,0.77368,0.60588,0.94922,0.28516,0.50049
21.096,0.78475,0.60588,0.94531,0.27539,0.51124
21.104,0.79582,0.58039,0.95508,0.29102,0.51906
