Time [s], RESP, PLETH, II, V, AVR
0,0.08802,0.54643,0.46471,0.66406,0.6098
0.008,0.090465,0.5523,0.44902,0.66016,0.61961
0.016,0.095355,0.55523,0.46078,0.66016,0.59608
0.024,0.095355,0.55621,0.4902,0.6543,0.57451
0.032,0.0978,0.55523,0.51961,0.66406,0.53529
0.04,0.0978,0.5523,0.52549,0.66016,0.52549
0.048,0.0978,0.54839,0.5,0.65039,0.53529
0.056,0.0978,0.54252,0.58039,0.67578,0.4451
0.064,0.10024,0.53568,0.6549,0.69922,0.3902
0.072,0.10024,0.52786,0.67647,0.71484,0.36471
0.08,0.10024,0.52102,0.66471,0.70898,0.37059
0.088,0.10269,0.5132,0.6451,0.70508,0.40392
0.096,0.10513,0.50635,0.68039,0.72461,0.4098
0.104,0.11002,0.50049,0.6451,0.70898,0.4451
0.112,0.11247,0.49462,0.58431,0.69531,0.51961
0.12,0.1198,0.49071,0.53922,0.67969,0.56078
0.128,0.12714,0.48583,0.5,0.66992,0.5902
0.136,0.13692,0.48094,0.47451,0.66406,0.63529
0.144,0.1467,0.47605,0.47059,0.68555,0.6451
0.152,0.15648,0.47116,0.42549,0.66016,0.67647
0.16,0.16626,0.46725,0.4098,0.65039,0.6902
0.168,0.17848,0.46432,0.43922,0.66406,0.66471
0.176,0.18826,0.46139,0.4451,0.66992,0.66078
0.184,0.20293,0.45943,0.4451,0.67578,0.66471
0.192,0.2176,0.45748,0.44902,0.67578,0.6451
0.2,0.23472,0.45552,0.48431,0.68945,0.62549
0.208,0.25183,0.45455,0.5098,0.69531,0.60588
0.216,0.27139,0.45357,0.53529,0.69922,0.58039
0.224,0.29095,0.45259,0.5549,0.68945,0.57451
0.232,0.31051,0.45259,0.58039,0.69922,0.56471
0.24,0.33252,0.45259,0.58431,0.67969,0.57059
0.248,0.35208,0.45161,0.58039,0.66406,0.56471
0.256,0.37164,0.45161,0.56471,0.64453,0.57059
0.264,0.38875,0.45161,0.51569,0.61523,0.61569
0.272,0.40831,0.45064,0.46471,0.58398,0.64118
0.28,0.42787,0.45064,0.4451,0.57422,0.65098
0.288,0.44743,0.44966,0.41961,0.57031,0.68039
0.296,0.46699,0.44966,0.40392,0.57031,0.69608
0.304,0.489,0.44966,0.4098,0.58398,0.68627
0.312,0.50611,0.45064,0.41961,0.5957,0.68039
0.32,0.52567,0.45064,0.43529,0.60938,0.68039
0.328,0.54279,0.45064,0.42941,0.625,0.68627
0.336,0.5599,0.45161,0.4451,0.64062,0.66471
0.344,0.57702,0.45064,0.47451,0.66016,0.65098
0.352,0.59658,0.45064,0.48431,0.66406,0.64118
0.36,0.61369,0.45064,0.58039,0.7207,0.5902
0.368,0.63081,0.45064,0.65098,0.67578,0.53529
0.376,0.64792,0.45161,0.72549,0.59961,0.50588
0.384,0.66259,0.45161,0.7902,0.51562,0.46471
0.392,0.67482,0.45161,0.52941,0.5293,0.72549
0.4,0.68704,0.45064,0.27843,0.58008,0.92549
0.408,0.69682,0.45064,0.22941,0.66406,0.96667
0.416,0.7066,0.45064,0.22353,0.6543,0.90196
0.424,0.71394,0.45161,0.3,0.65039,0.81176
0.432,0.72127,0.45259,0.41961,0.69922,0.69608
0.44,0.72372,0.45357,0.5098,0.74414,0.61569
0.448,0.72861,0.45552,0.5451,0.75391,0.58431
0.456,0.72861,0.45943,0.5549,0.75391,0.5902
0.464,0.73105,0.46628,0.56078,0.75977,0.57451
0.472,0.73105,0.47605,0.57451,0.75,0.56078
0.48,0.73105,0.48583,0.5902,0.75977,0.55098
0.488,0.72861,0.49756,0.59608,0.76953,0.55098
0.496,0.72616,0.50831,0.60588,0.77539,0.53922
0.504,0.72372,0.51808,0.62549,0.76953,0.5098
0.512,0.71883,0.52493,0.64118,0.76953,0.48431
0.52,0.71394,0.52981,0.65098,0.76562,0.46471
0.528,0.70905,0.53372,0.6451,0.75977,0.4549
0.536,0.70416,0.53568,0.66471,0.76953,0.43529
0.544,0.69682,0.53666,0.69608,0.78516,0.4
0.552,0.69193,0.5347,0.73529,0.80469,0.3549
0.56,0.6846,0.53177,0.76667,0.82422,0.32353
0.568,0.67971,0.52786,0.77647,0.82422,0.31961
0.576,0.67237,0.52395,0.76667,0.82422,0.33922
0.584,0.66748,0.51808,0.77059,0.81445,0.35882
0.592,0.66259,0.5132,0.71569,0.78516,0.41569
0.6,0.65526,0.50635,0.69608,0.7793,0.4451
0.608,0.65037,0.50049,0.61569,0.75391,0.51961
0.616,0.64548,0.4956,0.58039,0.73438,0.56471
0.624,0.63814,0.49071,0.5451,0.7207,0.59608
0.632,0.63325,0.4868,0.53529,0.71484,0.60588
0.64,0.62836,0.48192,0.51961,0.70898,0.59608
0.648,0.62347,0.47801,0.51961,0.70508,0.61961
0.656,0.61614,0.4741,0.5098,0.69922,0.61961
0.664,0.61125,0.47019,0.52941,0.69531,0.6
0.672,0.60636,0.46725,0.53529,0.68945,0.5902
0.68,0.59902,0.46432,0.57451,0.70508,0.56078
0.688,0.59169,0.46139,0.58431,0.70898,0.57059
0.696,0.58435,0.45943,0.62549,0.7207,0.53922
0.704,0.57702,0.45748,0.65098,0.7207,0.52549
0.712,0.56724,0.45552,0.64118,0.70898,0.53922
0.72,0.5599,0.45455,0.65098,0.70508,0.52549
0.728,0.55257,0.45357,0.66078,0.68555,0.50588
0.736,0.54279,0.45259,0.61569,0.66016,0.52941
0.744,0.53545,0.45161,0.52941,0.62891,0.60588
0.752,0.52812,0.45161,0.47059,0.61523,0.6451
0.76,0.52078,0.45064,0.4549,0.60938,0.65098
0.768,0.51345,0.44966,0.4451,0.60938,0.66471
0.776,0.50611,0.44868,0.42941,0.60547,0.67059
0.784,0.49878,0.4477,0.42549,0.60547,0.67647
0.792,0.49144,0.4477,0.43922,0.60938,0.6549
0.8,0.48655,0.44673,0.42549,0.59961,0.66471
0.808,0.47922,0.44673,0.41961,0.60938,0.67647
0.816,0.47188,0.44575,0.43922,0.625,0.66471
0.824,0.46699,0.44673,0.4451,0.61914,0.67647
0.832,0.4621,0.44673,0.48431,0.6543,0.65098
0.84,0.45721,0.44673,0.63529,0.69531,0.55098
0.848,0.45232,0.44673,0.72549,0.625,0.5
0.856,0.44743,0.44575,0.79608,0.48047,0.43529
0.864,0.44499,0.44477,0.81569,0.39062,0.41569
0.872,0.4401,0.44379,0.31373,0.38086,0.8451
0.88,0.43765,0.44282,0.11961,0.46484,0.99216
0.888,0.43276,0.44282,0.098039,0.51953,1.002
0.896,0.43032,0.44184,0.18431,0.56445,0.88627
0.904,0.42787,0.44379,0.29412,0.60938,0.76078
0.912,0.42298,0.44575,0.38039,0.65039,0.68039
0.92,0.42054,0.44966,0.42549,0.66406,0.64118
0.928,0.41565,0.4565,0.4549,0.67969,0.61961
0.936,0.41076,0.46725,0.47059,0.68945,0.6
0.944,0.40587,0.47898,0.48431,0.68555,0.59608
0.952,0.40342,0.49365,0.49412,0.68945,0.5902
0.96,0.39853,0.50831,0.50588,0.69531,0.5902
0.968,0.39609,0.52199,0.52941,0.68555,0.5549
0.976,0.3912,0.53372,0.55098,0.68555,0.53529
0.984,0.38875,0.5435,0.5451,0.68945,0.53922
0.992,0.38631,0.55034,0.56471,0.67969,0.49412
1,0.38142,0.55425,0.58039,0.68555,0.47451
1.008,0.37897,0.55621,0.59608,0.69531,0.46078
1.016,0.37653,0.55621,0.62941,0.70898,0.41569
1.024,0.37408,0.55425,0.6549,0.71484,0.38431
1.032,0.37164,0.55132,0.69608,0.73047,0.3451
1.04,0.36919,0.54741,0.71569,0.75,0.33529
1.048,0.36675,0.54252,0.7,0.74023,0.3549
1.056,0.3643,0.53666,0.7098,0.73438,0.35882
1.064,0.36186,0.52884,0.67647,0.71484,0.4098
1.072,0.35941,0.52199,0.64118,0.68945,0.4451
1.08,0.35697,0.51417,0.5902,0.66016,0.5
1.088,0.35452,0.50635,0.56471,0.64062,0.52549
1.096,0.34963,0.49756,0.50588,0.61914,0.58039
1.104,0.34719,0.48974,0.44902,0.625,0.64118
1.112,0.3423,0.48387,0.43922,0.60938,0.6549
1.12,0.33985,0.47801,0.42549,0.60547,0.6549
1.128,0.33496,0.47214,0.4098,0.5957,0.66471
1.136,0.33007,0.46725,0.41961,0.60547,0.66078
1.144,0.32274,0.46139,0.43529,0.625,0.64118
1.152,0.3154,0.4565,0.46471,0.64453,0.6098
1.16,0.30562,0.45064,0.5,0.66406,0.59608
1.168,0.29584,0.44575,0.52941,0.68555,0.58039
1.176,0.28362,0.44184,0.56078,0.68555,0.56471
1.184,0.27139,0.43891,0.56078,0.67578,0.57059
1.192,0.25917,0.43695,0.57451,0.66016,0.58039
1.2,0.24694,0.435,0.58039,0.64062,0.55098
1.208,0.23227,0.43402,0.52941,0.61914,0.57451
1.216,0.22005,0.43304,0.48039,0.58984,0.6
1.224,0.20782,0.43206,0.4098,0.56445,0.66078
1.232,0.1956,0.43011,0.3902,0.56055,0.67647
1.24,0.18337,0.42913,0.37059,0.55078,0.7
1.248,0.17115,0.42815,0.34902,0.54492,0.7
1.256,0.16137,0.42717,0.33529,0.53516,0.72157
1.264,0.14914,0.4262,0.32353,0.54492,0.73137
1.272,0.13936,0.4262,0.3451,0.54492,0.71569
1.28,0.12958,0.4262,0.3549,0.54492,0.69608
1.288,0.12225,0.4262,0.37059,0.54492,0.6902
1.296,0.11247,0.4262,0.38431,0.56055,0.66471
1.304,0.10758,0.4262,0.41569,0.55469,0.66078
1.312,0.10024,0.4262,0.5549,0.63477,0.58431
1.32,0.095355,0.42522,0.66078,0.58008,0.53529
1.328,0.090465,0.42424,0.7451,0.44922,0.47451
1.336,0.085575,0.42326,0.7902,0.33594,0.41569
1.344,0.08313,0.42229,0.3451,0.31055,0.79608
1.352,0.07824,0.42326,0.058824,0.37109,1.0216
1.36,0.075795,0.42522,-0.0019608,0.41016,1.0667
1.368,0.07335,0.43109,0.11961,0.48047,0.91176
1.376,0.070905,0.44086,0.21373,0.52539,0.78627
1.384,0.06846,0.45455,0.28431,0.55469,0.73137
1.392,0.066015,0.47116,0.31961,0.57031,0.69608
1.4,0.06357,0.49071,0.3451,0.58008,0.66471
1.408,0.061125,0.50831,0.37451,0.5957,0.6451
1.416,0.05868,0.52395,0.3902,0.60547,0.64118
1.424,0.05868,0.53959,0.38431,0.60547,0.6451
1.432,0.056235,0.55425,0.4098,0.60938,0.62549
1.44,0.05379,0.56696,0.42549,0.61523,0.6098
1.448,0.051345,0.57771,0.42549,0.60938,0.59608
1.456,0.0489,0.58553,0.42941,0.625,0.5902
1.464,0.046455,0.58944,0.47059,0.62891,0.55098
1.472,0.04401,0.5914,0.47059,0.64062,0.5549
1.48,0.03912,0.59042,0.5,0.65039,0.49412
1.488,0.036675,0.58749,0.52941,0.66406,0.46078
1.496,0.031785,0.5826,0.57451,0.68555,0.41961
1.504,0.026895,0.57674,0.61569,0.69531,0.36471
1.512,0.022005,0.57087,0.63529,0.69531,0.35882
1.52,0.01956,0.56403,0.62549,0.70508,0.38431
1.528,0.01467,0.55718,0.62549,0.68555,0.3902
1.536,0.00978,0.54839,0.60588,0.66406,0.42549
1.544,0.00489,0.53861,0.56471,0.65039,0.47059
1.552,0,0.52884,0.50588,0.61914,0.53922
1.56,-0.00489,0.51906,0.44902,0.59961,0.5902
1.568,-0.00978,0.50929,0.41569,0.57422,0.61961
1.576,-0.01467,0.49951,0.4,0.56445,0.64118
1.584,-0.01956,0.49071,0.37059,0.56055,0.67059
1.592,-0.02445,0.48192,0.3451,0.54492,0.6902
1.6,-0.02934,0.47507,0.3451,0.54492,0.69608
1.608,-0.03423,0.46921,0.34902,0.55469,0.6902
1.616,-0.03912,0.46432,0.36471,0.57031,0.67647
1.624,-0.046455,0.45943,0.39412,0.58008,0.66078
1.632,-0.05379,0.45552,0.43529,0.5957,0.61961
1.64,-0.061125,0.45259,0.4549,0.59961,0.6098
1.648,-0.070905,0.44966,0.48431,0.60547,0.59608
1.656,-0.07824,0.44673,0.4902,0.59961,0.59608
1.664,-0.08802,0.44477,0.48431,0.5957,0.6098
1.672,-0.095355,0.44282,0.50588,0.59961,0.58431
1.68,-0.10513,0.44184,0.47059,0.56445,0.61569
1.688,-0.11247,0.44086,0.42549,0.54492,0.63529
1.696,-0.11736,0.43988,0.35882,0.53516,0.68627
1.704,-0.12469,0.43891,0.32941,0.51953,0.71569
1.712,-0.12958,0.43891,0.32353,0.52539,0.71569
1.72,-0.13447,0.43891,0.3098,0.50586,0.71569
1.728,-0.14181,0.43891,0.30392,0.49023,0.72549
1.736,-0.1467,0.43891,0.3098,0.50586,0.72157
1.744,-0.15159,0.43891,0.2902,0.5,0.73529
1.752,-0.15403,0.43891,0.27843,0.49414,0.75098
1.76,-0.15892,0.43891,0.29412,0.51562,0.76078
1.768,-0.16137,0.43793,0.30392,0.50586,0.71569
1.776,-0.16381,0.43695,0.35882,0.52539,0.68627
1.784,-0.16381,0.43597,0.5,0.58398,0.61569
1.792,-0.16381,0.43402,0.59608,0.54492,0.57059
1.8,-0.16381,0.43109,0.69608,0.41016,0.50588
1.808,-0.16381,0.42913,0.76078,0.31445,0.42941
1.816,-0.16137,0.42815,0.31373,0.2793,0.80588
1.824,-0.16137,0.42717,0.033333,0.3457,1.051
1.832,-0.15892,0.42815,-0.021569,0.375,1.0922
1.84,-0.15648,0.43206,0.094118,0.44531,0.91569
1.848,-0.15648,0.44086,0.18431,0.49023,0.82157
1.856,-0.15403,0.45455,0.27451,0.52539,0.73137
1.864,-0.15159,0.47214,0.31961,0.54492,0.68627
1.872,-0.14914,0.49267,0.3098,0.54492,0.6902
1.88,-0.14914,0.51417,0.3451,0.56055,0.67059
1.888,-0.1467,0.5347,0.37059,0.56055,0.6451
1.896,-0.1467,0.55327,0.37451,0.56055,0.63529
1.904,-0.14425,0.56598,0.37059,0.54492,0.65098
1.912,-0.14425,0.57576,0.39412,0.55078,0.61569
1.92,-0.14181,0.58358,0.4,0.56055,0.61569
1.928,-0.14181,0.58944,0.4098,0.57031,0.6
1.936,-0.14181,0.5914,0.43922,0.58008,0.57059
1.944,-0.13936,0.59238,0.4549,0.5957,0.53529
1.952,-0.13936,0.59042,0.4902,0.5957,0.5
1.96,-0.13936,0.58749,0.48431,0.60938,0.48039
1.968,-0.13936,0.58358,0.55098,0.61914,0.41569
1.976,-0.13692,0.57674,0.58039,0.625,0.38431
1.984,-0.13692,0.56891,0.60588,0.64062,0.37451
1.992,-0.13692,0.56207,0.62549,0.64062,0.35882
2,-0.13692,0.55425,0.6,0.63477,0.4
2.008,-0.13692,0.54643,0.57451,0.63477,0.44902
2.016,-0.13692,0.53763,0.53922,0.5957,0.48039
2.024,-0.13692,0.52884,0.5098,0.58008,0.51569
2.032,-0.13936,0.52004,0.44902,0.56055,0.57451
2.04,-0.13936,0.51026,0.4,0.5293,0.62549
2.048,-0.13936,0.50147,0.38431,0.51953,0.6451
2.056,-0.13936,0.49169,0.33529,0.5,0.6902
2.064,-0.13936,0.48387,0.32353,0.50586,0.70588
2.072,-0.13936,0.47801,0.33529,0.50977,0.69608
2.08,-0.13936,0.47214,0.32353,0.5,0.70588
2.088,-0.13936,0.46628,0.31961,0.51562,0.68627
2.096,-0.13936,0.46041,0.37059,0.52539,0.66471
2.104,-0.13936,0.4565,0.36471,0.53516,0.6549
2.112,-0.14181,0.45259,0.40392,0.56055,0.64118
2.12,-0.14181,0.45064,0.46471,0.57422,0.6098
2.128,-0.14181,0.44868,0.47059,0.58008,0.60588
2.136,-0.14425,0.4477,0.4549,0.57422,0.61961
2.144,-0.1467,0.4477,0.47059,0.55469,0.59608
2.152,-0.14914,0.44673,0.43529,0.53516,0.62549
2.16,-0.14914,0.44673,0.4098,0.51953,0.6451
2.168,-0.15159,0.44673,0.33922,0.5,0.70588
2.176,-0.15403,0.44673,0.3,0.49414,0.73137
2.184,-0.15403,0.44575,0.3,0.49023,0.72157
2.192,-0.15648,0.44575,0.26863,0.47461,0.75098
2.2,-0.15648,0.44575,0.26471,0.47461,0.76078
2.208,-0.15648,0.44477,0.27451,0.48438,0.75098
2.216,-0.15648,0.44379,0.27843,0.48047,0.7451
2.224,-0.15648,0.44184,0.26863,0.47461,0.75098
2.232,-0.15648,0.44086,0.28431,0.49414,0.73529
2.24,-0.15648,0.43988,0.31373,0.50586,0.72549
2.248,-0.15648,0.43891,0.33922,0.5,0.70588
2.256,-0.15403,0.43695,0.43922,0.55469,0.6549
2.264,-0.15403,0.43597,0.53922,0.56055,0.6098
2.272,-0.15159,0.43402,0.63529,0.44531,0.56078
2.28,-0.14914,0.43206,0.7451,0.3457,0.44902
2.288,-0.1467,0.43109,0.4549,0.29102,0.6902
2.296,-0.14181,0.43109,0.084314,0.3457,1.0157
2.304,-0.13936,0.43304,0.013725,0.38477,1.0725
2.312,-0.13692,0.43695,0.058824,0.42969,0.97059
2.32,-0.13203,0.44477,0.1549,0.46484,0.84118
2.328,-0.12958,0.45748,0.23922,0.5,0.7549
2.336,-0.12714,0.4741,0.30392,0.51953,0.7
2.344,-0.12469,0.49365,0.3451,0.5293,0.66471
2.352,-0.1198,0.51417,0.33529,0.51953,0.67059
2.36,-0.11736,0.53372,0.36471,0.52539,0.6451
2.368,-0.11491,0.5523,0.37451,0.53906,0.63529
2.376,-0.11247,0.56794,0.38431,0.55469,0.62941
2.384,-0.11002,0.57967,0.39412,0.56055,0.61961
2.392,-0.10758,0.58749,0.3902,0.57031,0.62549
2.4,-0.10513,0.59238,0.41961,0.58008,0.58431
2.408,-0.10513,0.59433,0.42941,0.58398,0.57059
2.416,-0.10269,0.59433,0.44902,0.5957,0.55098
2.424,-0.10024,0.59238,0.48039,0.58984,0.5098
2.432,-0.10024,0.58847,0.51569,0.61523,0.47059
2.44,-0.10024,0.58358,0.5098,0.625,0.43922
2.448,-0.0978,0.57674,0.60588,0.64062,0.37451
2.456,-0.0978,0.56989,0.61961,0.64453,0.35882
2.464,-0.0978,0.56109,0.61961,0.64062,0.35882
2.472,-0.0978,0.5523,0.62549,0.64453,0.36471
2.48,-0.095355,0.54252,0.59608,0.61523,0.4098
2.488,-0.095355,0.53275,0.5451,0.59961,0.48039
2.496,-0.095355,0.52199,0.50588,0.58398,0.52941
2.504,-0.095355,0.5132,0.44902,0.55469,0.57059
2.512,-0.095355,0.50538,0.4,0.53906,0.61569
2.52,-0.095355,0.4956,0.38039,0.51953,0.6549
2.528,-0.095355,0.4868,0.33922,0.51953,0.68627
2.536,-0.0978,0.47801,0.31961,0.52539,0.7
2.544,-0.0978,0.47019,0.3098,0.50977,0.71569
2.552,-0.0978,0.46334,0.31961,0.50586,0.70588
2.56,-0.10024,0.45748,0.33922,0.51953,0.68627
2.568,-0.10024,0.45259,0.36471,0.5293,0.67059
2.576,-0.10024,0.44868,0.34902,0.5293,0.67647
2.584,-0.10269,0.44575,0.39412,0.54492,0.6451
2.592,-0.10513,0.44477,0.4451,0.58008,0.62549
2.6,-0.10758,0.44379,0.44902,0.58398,0.61961
2.608,-0.11002,0.44379,0.4451,0.57031,0.62941
2.616,-0.11247,0.44477,0.46471,0.56445,0.6098
2.624,-0.11491,0.44575,0.46078,0.55469,0.60588
2.632,-0.11736,0.4477,0.42549,0.55078,0.63529
2.64,-0.1198,0.4477,0.36471,0.51562,0.68627
2.648,-0.12225,0.4477,0.31961,0.50977,0.7098
2.656,-0.12469,0.44868,0.31961,0.50586,0.71569
2.664,-0.12714,0.44868,0.3,0.51562,0.73137
2.672,-0.12714,0.4477,0.2902,0.50977,0.74118
2.68,-0.12958,0.44673,0.26863,0.5,0.76078
2.688,-0.12958,0.44575,0.27451,0.49414,0.73529
2.696,-0.13203,0.44379,0.27451,0.5,0.7451
2.704,-0.13203,0.44184,0.27451,0.5,0.73529
2.712,-0.13203,0.43988,0.31373,0.5,0.7098
2.72,-0.12958,0.43793,0.30392,0.50586,0.73137
2.728,-0.12958,0.43597,0.3549,0.54492,0.73529
2.736,-0.12958,0.43304,0.51569,0.57422,0.61961
2.744,-0.12714,0.43011,0.56471,0.51562,0.60588
2.752,-0.12469,0.42815,0.68039,0.39453,0.5098
2.76,-0.12225,0.42717,0.71569,0.3457,0.48431
2.768,-0.1198,0.42815,0.2,0.33008,0.93137
2.776,-0.11736,0.43206,0.043137,0.41992,1.0608
2.784,-0.11491,0.43793,0.033333,0.44922,1.002
2.792,-0.11247,0.44868,0.12941,0.4707,0.89608
2.8,-0.11002,0.46334,0.2549,0.51953,0.76667
2.808,-0.11002,0.47898,0.3,0.55469,0.72549
2.816,-0.10758,0.49462,0.32941,0.56445,0.68627
2.824,-0.10513,0.5132,0.36471,0.57422,0.65098
2.832,-0.10513,0.53177,0.3549,0.57031,0.66078
2.84,-0.10513,0.54936,0.36471,0.57031,0.6451
2.848,-0.10269,0.56305,0.37059,0.57422,0.6451
2.856,-0.10269,0.57283,0.38039,0.58398,0.65098
2.864,-0.10269,0.57967,0.4,0.5957,0.61961
2.872,-0.10269,0.58456,0.4098,0.58008,0.6
2.88,-0.10269,0.58553,0.4451,0.59961,0.57451
2.888,-0.10269,0.58358,0.46078,0.61523,0.5549
2.896,-0.10269,0.57967,0.48431,0.62891,0.51961
2.904,-0.10513,0.57478,0.52941,0.64062,0.48039
2.912,-0.10513,0.56794,0.58431,0.65039,0.41569
2.92,-0.10758,0.56109,0.6,0.66406,0.38431
2.928,-0.10758,0.5523,0.62941,0.67969,0.35882
2.936,-0.11002,0.54252,0.66471,0.66992,0.33529
2.944,-0.11247,0.53275,0.62941,0.66992,0.36471
2.952,-0.11247,0.52395,0.62549,0.66016,0.3902
2.96,-0.11491,0.51417,0.61569,0.64062,0.41961
2.968,-0.11736,0.50538,0.53922,0.61523,0.49412
2.976,-0.11736,0.4956,0.5,0.60547,0.55098
2.984,-0.1198,0.4868,0.4549,0.57031,0.58431
2.992,-0.1198,0.47801,0.4098,0.55469,0.62941
3,-0.12225,0.47019,0.38039,0.54492,0.66471
3.008,-0.12225,0.46334,0.36471,0.52539,0.67647
3.016,-0.12469,0.45748,0.33922,0.51953,0.67059
3.024,-0.12714,0.45259,0.32353,0.51953,0.70588
3.032,-0.12714,0.44966,0.33922,0.51562,0.6902
3.04,-0.12958,0.44673,0.32941,0.51953,0.69608
3.048,-0.12958,0.44575,0.37059,0.54492,0.68039
3.056,-0.13203,0.44477,0.39412,0.56445,0.65098
3.064,-0.13447,0.44477,0.41961,0.57031,0.63529
3.072,-0.13447,0.44477,0.44902,0.58398,0.61961
3.08,-0.13692,0.44477,0.48431,0.58984,0.59608
3.088,-0.13936,0.44379,0.49412,0.60547,0.6
3.096,-0.14181,0.44282,0.47451,0.58398,0.59608
3.104,-0.14425,0.44184,0.44902,0.55078,0.62549
3.112,-0.14914,0.44184,0.41569,0.5293,0.6451
3.12,-0.15159,0.44184,0.38431,0.52539,0.66471
3.128,-0.15403,0.44086,0.33922,0.51562,0.7098
3.136,-0.15648,0.43988,0.31961,0.5,0.72549
3.144,-0.15892,0.43891,0.31961,0.50586,0.71569
3.152,-0.16137,0.43793,0.3098,0.50586,0.73529
3.16,-0.16137,0.43695,0.29412,0.49414,0.73529
3.168,-0.16381,0.435,0.31961,0.50586,0.72157
3.176,-0.16381,0.43304,0.31373,0.50977,0.72549
3.184,-0.16381,0.43011,0.33529,0.51562,0.7098
3.192,-0.16381,0.42717,0.32941,0.50977,0.71569
3.2,-0.16381,0.42326,0.36471,0.50977,0.6902
3.208,-0.16137,0.42033,0.47059,0.57422,0.65098
3.216,-0.16137,0.41838,0.56078,0.55469,0.6098
3.224,-0.15892,0.41544,0.62941,0.4707,0.58039
3.232,-0.15648,0.41349,0.74118,0.34961,0.46471
3.24,-0.15648,0.41349,0.46471,0.31055,0.69608
3.248,-0.15403,0.41447,0.11961,0.35938,1.0059
3.256,-0.15159,0.41838,0.039216,0.4043,1.0725
3.264,-0.14914,0.4262,0.098039,0.42969,0.97059
3.272,-0.14914,0.43793,0.18824,0.46094,0.83529
3.28,-0.1467,0.45161,0.28431,0.5,0.73137
3.288,-0.14425,0.46823,0.31961,0.51562,0.69608
3.296,-0.14181,0.48485,0.3451,0.51953,0.67059
3.304,-0.14181,0.49951,0.33529,0.50977,0.67647
3.312,-0.13936,0.51222,0.3451,0.50977,0.66471
3.32,-0.13936,0.52493,0.3549,0.5,0.65098
3.328,-0.13936,0.5347,0.34902,0.49414,0.6451
3.336,-0.13936,0.54154,0.3451,0.48047,0.66078
3.344,-0.13936,0.54545,0.35882,0.4707,0.63529
3.352,-0.13936,0.54643,0.38431,0.46484,0.60588
3.36,-0.13936,0.54448,0.3902,0.44922,0.59608
3.368,-0.14181,0.54154,0.40392,0.43945,0.57451
3.376,-0.14181,0.53763,0.41961,0.42578,0.53529
3.384,-0.14425,0.53177,0.44902,0.41016,0.4902
3.392,-0.14425,0.52493,0.47059,0.4043,0.4549
3.4,-0.1467,0.51906,0.52941,0.41016,0.4098
3.408,-0.1467,0.51222,0.53922,0.4043,0.40392
3.416,-0.1467,0.50538,0.53529,0.38477,0.41569
3.424,-0.1467,0.49756,0.5451,0.375,0.41961
3.432,-0.1467,0.48974,0.56078,0.36523,0.4451
3.44,-0.1467,0.48094,0.52941,0.3457,0.4902
3.448,-0.1467,0.47312,0.4549,0.31445,0.56471
3.456,-0.14425,0.4653,0.41569,0.30469,0.61961
3.464,-0.14425,0.45748,0.38431,0.30078,0.6549
3.472,-0.14181,0.45064,0.3549,0.31055,0.7
3.48,-0.13936,0.44477,0.34902,0.32422,0.7
3.488,-0.13692,0.43988,0.33922,0.33984,0.71569
3.496,-0.13447,0.43695,0.33529,0.35938,0.70588
3.504,-0.12958,0.43597,0.32941,0.39453,0.72157
3.512,-0.12714,0.435,0.38039,0.41992,0.6902
3.52,-0.12225,0.435,0.38431,0.43555,0.69608
3.528,-0.11736,0.43597,0.38431,0.46484,0.7
3.536,-0.11491,0.43695,0.4098,0.5,0.66471
3.544,-0.11002,0.43891,0.4549,0.53906,0.64118
3.552,-0.10269,0.43988,0.5098,0.58398,0.61569
3.56,-0.0978,0.44086,0.51961,0.60547,0.61961
3.568,-0.090465,0.44184,0.5098,0.61523,0.63529
3.576,-0.085575,0.44086,0.5098,0.61523,0.61961
3.584,-0.07824,0.43988,0.5,0.60938,0.61569
3.592,-0.07335,0.43891,0.47059,0.60547,0.62941
3.6,-0.06846,0.43793,0.41961,0.59961,0.67059
3.608,-0.06357,0.43695,0.37059,0.5957,0.72157
3.616,-0.056235,0.43597,0.34902,0.58398,0.73529
3.624,-0.051345,0.435,0.3451,0.57422,0.73137
3.632,-0.046455,0.43402,0.38431,0.58008,0.70588
3.64,-0.041565,0.43304,0.37059,0.57031,0.72157
3.648,-0.03423,0.43011,0.36471,0.57031,0.72549
3.656,-0.02934,0.42717,0.38039,0.57031,0.7098
3.664,-0.022005,0.42424,0.37451,0.56445,0.70588
3.672,-0.017115,0.42131,0.37059,0.57031,0.71569
3.68,-0.012225,0.4174,0.42549,0.5957,0.6902
3.688,-0.007335,0.41349,0.47451,0.61914,0.65098
3.696,0,0.40958,0.53922,0.63477,0.59608
3.704,0.007335,0.40665,0.5902,0.55469,0.6
3.712,0.01467,0.40469,0.66471,0.46484,0.5549
3.72,0.026895,0.40176,0.53529,0.46094,0.71569
3.728,0.036675,0.40078,0.22353,0.52539,0.98627
3.736,0.0489,0.40176,0.1549,0.59961,1.0275
3.744,0.061125,0.40469,0.16471,0.5957,0.95686
3.752,0.07335,0.41056,0.21373,0.58398,0.87059
3.76,0.08802,0.42033,0.33529,0.61914,0.7451
3.768,0.10269,0.43304,0.42549,0.66406,0.66471
3.776,0.11491,0.4477,0.47059,0.68555,0.62941
3.784,0.12714,0.46237,0.5098,0.70508,0.6
3.792,0.14181,0.47801,0.5,0.70898,0.61569
3.8,0.15648,0.49071,0.51569,0.70898,0.59608
3.808,0.17115,0.50147,0.53529,0.71484,0.58039
3.816,0.18582,0.51124,0.5451,0.7207,0.57059
3.824,0.20049,0.51906,0.53922,0.7207,0.56078
3.832,0.21516,0.52493,0.57059,0.73047,0.53922
3.84,0.22738,0.52884,0.5549,0.72461,0.55098
3.848,0.24205,0.53079,0.57451,0.7207,0.51961
3.856,0.25428,0.52981,0.58039,0.70898,0.4902
3.864,0.26895,0.5259,0.61961,0.7207,0.43529
3.872,0.28117,0.52102,0.6451,0.73438,0.41569
3.88,0.29584,0.51515,0.68039,0.73438,0.37451
3.888,0.31051,0.50733,0.72549,0.75391,0.33922
3.896,0.32518,0.49951,0.73529,0.75391,0.34902
3.904,0.33741,0.49267,0.71569,0.75391,0.38039
3.912,0.35208,0.48583,0.72549,0.75,0.38039
3.92,0.36675,0.47898,0.69608,0.74414,0.42549
3.928,0.37653,0.47116,0.65098,0.73047,0.48039
3.936,0.38875,0.46432,0.61569,0.71484,0.52941
3.944,0.39853,0.4565,0.57451,0.70508,0.58431
3.952,0.40831,0.44966,0.52549,0.67578,0.60588
3.96,0.42054,0.44184,0.49412,0.66992,0.64118
3.968,0.43032,0.43597,0.4902,0.66406,0.63529
3.976,0.44254,0.43109,0.5098,0.66406,0.61961
3.984,0.45232,0.42717,0.48039,0.66016,0.65098
3.992,0.4621,0.42424,0.48431,0.66016,0.6451
4,0.47188,0.42229,0.48431,0.6543,0.63529
4.008,0.48166,0.42131,0.5098,0.66406,0.62549
4.016,0.49144,0.42131,0.53529,0.68555,0.6
4.024,0.50122,0.42229,0.56078,0.68555,0.57059
4.032,0.511,0.42229,0.6,0.70508,0.55098
4.04,0.52078,0.42424,0.61961,0.71484,0.55098
4.048,0.53056,0.42522,0.62549,0.71484,0.5549
4.056,0.54034,0.42717,0.62941,0.69922,0.5451
4.064,0.55257,0.42815,0.61569,0.68945,0.5549
4.072,0.56235,0.42913,0.58039,0.66406,0.58039
4.08,0.57457,0.43011,0.51961,0.64062,0.61569
4.088,0.58435,0.43011,0.48431,0.64062,0.64118
4.096,0.59658,0.43011,0.46471,0.625,0.65098
4.104,0.60636,0.43011,0.46078,0.61914,0.66078
4.112,0.61614,0.43011,0.4451,0.61523,0.66471
4.12,0.62836,0.42913,0.44902,0.61523,0.66471
4.128,0.64059,0.42815,0.44902,0.625,0.66471
4.136,0.65281,0.4262,0.43922,0.62891,0.67647
4.144,0.66748,0.42424,0.4549,0.62891,0.66471
4.152,0.67971,0.42033,0.47451,0.63477,0.66078
4.16,0.69193,0.4174,0.47059,0.62891,0.65098
4.168,0.70416,0.41447,0.51569,0.65039,0.62941
4.176,0.71638,0.41056,0.61961,0.67969,0.56078
4.184,0.72861,0.40665,0.68627,0.61523,0.51569
4.192,0.74328,0.40371,0.78627,0.50586,0.4549
4.2,0.7555,0.40176,0.79608,0.44531,0.4451
4.208,0.77017,0.40078,0.35882,0.46484,0.85686
4.216,0.77995,0.3998,0.21961,0.55078,0.96667
4.224,0.79218,0.3998,0.19412,0.57422,0.97059
4.232,0.80196,0.40176,0.24902,0.57031,0.86078
4.24,0.81174,0.40567,0.33529,0.59961,0.76667
4.248,0.82152,0.41251,0.43922,0.64062,0.67647
4.256,0.82885,0.42229,0.50588,0.66992,0.61569
4.264,0.83374,0.435,0.55098,0.68555,0.58039
4.272,0.84108,0.44966,0.5549,0.68555,0.58039
4.28,0.84352,0.46334,0.57059,0.70508,0.57059
4.288,0.84841,0.47703,0.58039,0.69922,0.5549
4.296,0.85086,0.48876,0.61569,0.70898,0.52549
4.304,0.85086,0.49853,0.6098,0.71484,0.52549
4.312,0.85086,0.5044,0.61961,0.70898,0.51961
4.32,0.8533,0.50929,0.60588,0.70898,0.52941
4.328,0.85086,0.51124,0.61569,0.70898,0.49412
4.336,0.85086,0.51124,0.6451,0.7207,0.4549
4.344,0.84841,0.51026,0.66471,0.7207,0.42941
4.352,0.84841,0.50733,0.67647,0.73438,0.4098
4.36,0.84597,0.50147,0.70588,0.75,0.3902
4.368,0.84352,0.4956,0.7451,0.75391,0.32941
4.376,0.83863,0.4868,0.7451,0.75391,0.33922
4.384,0.83619,0.47801,0.7549,0.76953,0.3451
4.392,0.8313,0.46921,0.76078,0.76562,0.3549
4.4,0.82885,0.46041,0.74118,0.75391,0.38431
4.408,0.82396,0.45259,0.72549,0.74414,0.4098
4.416,0.81907,0.44477,0.66078,0.72461,0.48431
4.424,0.81174,0.43695,0.6098,0.69922,0.52941
4.432,0.80685,0.42815,0.57059,0.68555,0.56471
4.44,0.80196,0.42131,0.5451,0.67578,0.5902
4.448,0.79462,0.41447,0.5098,0.66406,0.62941
4.456,0.78973,0.40958,0.5,0.6543,0.6451
4.464,0.7824,0.40469,0.5098,0.66406,0.61961
4.472,0.77506,0.40176,0.51569,0.66406,0.61569
4.48,0.76773,0.39883,0.5451,0.67969,0.59608
4.488,0.76039,0.39785,0.55098,0.68555,0.5902
4.496,0.7555,0.39785,0.58039,0.69531,0.56078
4.504,0.74572,0.39785,0.6,0.70508,0.55098
4.512,0.73839,0.39785,0.63529,0.72461,0.53922
4.52,0.73105,0.39883,0.65098,0.7207,0.52941
4.528,0.72127,0.3998,0.6451,0.70898,0.53922
4.536,0.71149,0.3998,0.6549,0.70508,0.52549
4.544,0.70416,0.40078,0.64118,0.68555,0.52549
4.552,0.69438,0.40078,0.6,0.66406,0.5549
4.56,0.68704,0.40078,0.53529,0.64062,0.6098
4.568,0.67726,0.3998,0.5098,0.625,0.61961
4.576,0.66993,0.39883,0.48039,0.60938,0.63529
4.584,0.66259,0.39785,0.46078,0.60938,0.66078
4.592,0.65526,0.39589,0.4549,0.60938,0.6451
4.6,0.64792,0.39394,0.47059,0.61523,0.6549
4.608,0.64059,0.39198,0.44902,0.59961,0.66471
4.616,0.6357,0.39101,0.4451,0.60547,0.66471
4.624,0.63081,0.38807,0.44902,0.60547,0.66471
4.632,0.62592,0.38612,0.47059,0.60938,0.6451
4.64,0.62347,0.38416,0.48431,0.61523,0.62941
4.648,0.61858,0.38123,0.58431,0.66406,0.57451
4.656,0.61614,0.37928,0.69608,0.67969,0.5098
4.664,0.61125,0.37634,0.78039,0.57031,0.4549
4.672,0.6088,0.37341,0.84118,0.41602,0.39412
4.68,0.6088,0.37048,0.59608,0.35547,0.6
4.688,0.60636,0.36852,0.21961,0.38477,0.91569
4.696,0.60391,0.36852,0.098039,0.44922,1.0157
4.704,0.60147,0.37048,0.14902,0.49023,0.93725
4.712,0.59902,0.37537,0.2451,0.53906,0.82157
4.72,0.59658,0.38319,0.3549,0.58398,0.71569
4.728,0.59169,0.39492,0.43922,0.61523,0.62941
4.736,0.58924,0.40958,0.48039,0.62891,0.6098
4.744,0.5868,0.42522,0.4902,0.64062,0.6
4.752,0.58191,0.44184,0.5098,0.64453,0.58039
4.76,0.57702,0.45748,0.5098,0.6543,0.59608
4.768,0.57457,0.47019,0.52941,0.66016,0.57451
4.776,0.56724,0.48094,0.53922,0.66406,0.55098
4.784,0.56235,0.48778,0.56078,0.67578,0.53922
4.792,0.55746,0.49169,0.5549,0.66992,0.53529
4.8,0.55257,0.49267,0.56471,0.67578,0.51569
4.808,0.54523,0.49267,0.58431,0.67969,0.48431
4.816,0.54034,0.48974,0.58431,0.68555,0.4902
4.824,0.53301,0.48583,0.6098,0.68555,0.43922
4.832,0.52812,0.47996,0.65098,0.70508,0.4
4.84,0.52078,0.4741,0.66471,0.7207,0.38039
4.848,0.51589,0.46628,0.69608,0.74023,0.3549
4.856,0.511,0.45748,0.72549,0.74414,0.32353
4.864,0.50611,0.44868,0.71569,0.73438,0.33922
4.872,0.50122,0.44086,0.70588,0.7207,0.36471
4.88,0.49633,0.43206,0.66471,0.69922,0.41961
4.888,0.49144,0.42229,0.62941,0.67969,0.47451
4.896,0.48655,0.41251,0.59608,0.66016,0.5
4.904,0.48166,0.40469,0.53529,0.64062,0.56078
4.912,0.47677,0.39785,0.50588,0.625,0.5902
4.92,0.47433,0.39101,0.46471,0.60938,0.64118
4.928,0.46944,0.38416,0.44902,0.59961,0.6451
4.936,0.46455,0.37732,0.43922,0.60547,0.6549
4.944,0.45966,0.37146,0.42941,0.5957,0.66471
4.952,0.45721,0.36755,0.46078,0.61523,0.64118
4.96,0.45232,0.36461,0.5,0.63477,0.59608
4.968,0.44743,0.36364,0.5098,0.64062,0.58431
4.976,0.44499,0.36266,0.53922,0.66406,0.57059
4.984,0.4401,0.36266,0.56078,0.66406,0.56078
4.992,0.43521,0.36364,0.5902,0.67969,0.55098
5,0.42787,0.36364,0.5902,0.66406,0.5549
5.008,0.42298,0.36461,0.60588,0.6543,0.55098
5.016,0.41565,0.36461,0.58039,0.63477,0.56078
5.024,0.41076,0.36461,0.53529,0.60547,0.58431
5.032,0.40342,0.36461,0.48039,0.58984,0.62549
5.04,0.39609,0.36364,0.44902,0.57422,0.63529
5.048,0.3912,0.36266,0.42941,0.57031,0.6451
5.056,0.38386,0.36168,0.41569,0.57031,0.66471
5.064,0.37897,0.3607,0.4,0.56445,0.66471
5.072,0.37653,0.35875,0.38039,0.55078,0.6902
5.08,0.37164,0.35679,0.3902,0.56055,0.68627
5.088,0.36675,0.35386,0.3902,0.56445,0.6902
5.096,0.36186,0.35093,0.4,0.57031,0.68039
5.104,0.35941,0.348,0.39412,0.57031,0.67059
5.112,0.35697,0.34604,0.41569,0.57422,0.66471
5.12,0.35452,0.34311,0.5098,0.625,0.60588
5.128,0.35208,0.34018,0.67059,0.65039,0.5098
5.136,0.34963,0.35484,0.75098,0.55469,0.48431
5.144,0.34719,0.37732,0.84118,0.39453,0.39412
5.152,0.34719,0.38807,0.63529,0.30469,0.52941
5.16,0.34474,0.39296,0.20392,0.30078,0.90588
5.168,0.34474,0.39687,0.029412,0.38086,1.0471
5.176,0.3423,0.40176,0.078431,0.43555,0.98235
5.184,0.3423,0.40958,0.16863,0.49023,0.85098
5.192,0.3423,0.42033,0.26471,0.5293,0.7451
5.2,0.3423,0.43109,0.34902,0.56445,0.68627
5.208,0.33985,0.44379,0.37451,0.58398,0.66078
5.216,0.33985,0.45846,0.40392,0.58984,0.63529
5.224,0.33741,0.4741,0.41961,0.5957,0.61961
5.232,0.33741,0.48778,0.42549,0.60547,0.61961
5.24,0.33496,0.49951,0.41961,0.60938,0.62941
5.248,0.33252,0.50929,0.44902,0.60938,0.5902
5.256,0.32763,0.51613,0.4549,0.61523,0.6
5.264,0.32518,0.52102,0.44902,0.60547,0.58039
5.272,0.32274,0.52395,0.48039,0.61523,0.55098
5.28,0.31785,0.52395,0.5,0.62891,0.52549
5.288,0.3154,0.52297,0.4902,0.63477,0.52941
5.296,0.31051,0.52199,0.53529,0.65039,0.47451
5.304,0.30807,0.51906,0.56471,0.66992,0.43922
5.312,0.30318,0.51515,0.6098,0.68945,0.3902
5.32,0.29829,0.50929,0.64118,0.70898,0.37451
5.328,0.2934,0.50244,0.65098,0.70898,0.35882
5.336,0.28851,0.4956,0.65098,0.71484,0.37451
5.344,0.28362,0.48876,0.62941,0.68945,0.39412
5.352,0.27628,0.48094,0.6098,0.67578,0.43529
5.36,0.26895,0.47312,0.57059,0.66016,0.4902
5.368,0.26406,0.46628,0.49412,0.625,0.56078
5.376,0.25672,0.45846,0.46078,0.5957,0.59608
5.384,0.25183,0.45161,0.41961,0.58008,0.62941
5.392,0.24694,0.44379,0.38431,0.56445,0.66078
5.4,0.23961,0.43793,0.37451,0.56445,0.67059
5.408,0.23472,0.43304,0.37059,0.55078,0.66471
5.416,0.22738,0.42815,0.35882,0.55469,0.68627
5.424,0.22005,0.42326,0.38039,0.57422,0.66078
5.432,0.21516,0.41935,0.39412,0.5957,0.66471
5.44,0.20782,0.41544,0.41961,0.59961,0.62941
5.448,0.20293,0.41349,0.47059,0.61523,0.59608
5.456,0.1956,0.41251,0.49412,0.625,0.59608
5.464,0.18826,0.41251,0.5,0.61914,0.6
5.472,0.18337,0.41251,0.48431,0.60938,0.61569
5.48,0.17359,0.41251,0.51569,0.58984,0.57059
5.488,0.16626,0.41349,0.4902,0.57422,0.5902
5.496,0.15892,0.41349,0.4549,0.55469,0.6098
5.504,0.14914,0.41447,0.4098,0.53906,0.65098
5.512,0.13936,0.41447,0.36471,0.5293,0.68627
5.52,0.13203,0.41447,0.3451,0.51953,0.69608
5.528,0.12469,0.41349,0.32941,0.51562,0.7
5.536,0.11736,0.41251,0.3,0.51562,0.73529
5.544,0.11002,0.41153,0.30392,0.50586,0.72549
5.552,0.10269,0.40958,0.3,0.5,0.73137
5.56,0.0978,0.40762,0.31961,0.5,0.7098
5.568,0.09291,0.40567,0.32353,0.5,0.7
5.576,0.08802,0.40274,0.31373,0.5,0.72157
5.584,0.08313,0.3998,0.34902,0.51562,0.69608
5.592,0.07824,0.39785,0.42941,0.57422,0.66078
5.6,0.075795,0.39589,0.58431,0.5957,0.56471
5.608,0.070905,0.39492,0.66078,0.49414,0.55098
5.616,0.06846,0.39296,0.7549,0.3457,0.4451
5.624,0.066015,0.39101,0.52549,0.2793,0.6098
5.632,0.061125,0.39003,0.12353,0.30078,0.95098
5.64,0.05868,0.39101,-0.037255,0.33984,1.0824
5.648,0.056235,0.39492,0.052941,0.4043,0.97647
5.656,0.05379,0.40371,0.13333,0.44922,0.85686
5.664,0.0489,0.41447,0.21373,0.49023,0.77647
5.672,0.046455,0.42913,0.27451,0.51953,0.71569
5.68,0.04401,0.44575,0.30392,0.5293,0.6902
5.688,0.03912,0.46139,0.31961,0.55078,0.68627
5.696,0.036675,0.47605,0.3451,0.54492,0.66471
5.704,0.031785,0.4868,0.36471,0.55078,0.6451
5.712,0.026895,0.49756,0.38039,0.57031,0.64118
5.72,0.022005,0.50635,0.3902,0.57031,0.61961
5.728,0.017115,0.51222,0.4,0.57031,0.61569
5.736,0.012225,0.51613,0.41569,0.57422,0.59608
5.744,0.00489,0.51808,0.42941,0.58008,0.57059
5.752,0,0.51808,0.44902,0.5957,0.5451
5.76,-0.00489,0.51613,0.46078,0.59961,0.53529
5.768,-0.00978,0.5132,0.48431,0.61523,0.5
5.776,-0.01467,0.50929,0.52549,0.62891,0.44902
5.784,-0.01956,0.5044,0.58039,0.65039,0.39412
5.792,-0.02445,0.49756,0.60588,0.66406,0.36471
5.8,-0.02934,0.49169,0.61961,0.67578,0.37451
5.808,-0.036675,0.4868,0.61961,0.67969,0.38039
5.816,-0.041565,0.47996,0.60588,0.6543,0.4
5.824,-0.0489,0.47214,0.56078,0.63477,0.46078
5.832,-0.056235,0.46432,0.53922,0.61914,0.4902
5.84,-0.061125,0.4565,0.48431,0.58984,0.55098
5.848,-0.06846,0.44868,0.42549,0.57031,0.6098
5.856,-0.07335,0.44086,0.37451,0.55078,0.6451
5.864,-0.07824,0.43304,0.37059,0.54492,0.6549
5.872,-0.08313,0.42717,0.3451,0.53906,0.68627
5.88,-0.090465,0.42131,0.33922,0.53516,0.6902
5.888,-0.095355,0.41642,0.3549,0.54492,0.66471
5.896,-0.10269,0.41349,0.34902,0.55469,0.67059
5.904,-0.11002,0.41153,0.35882,0.57031,0.67647
5.912,-0.11491,0.4086,0.39412,0.5957,0.65098
5.92,-0.12225,0.40762,0.43529,0.60938,0.61961
5.928,-0.12714,0.40567,0.44902,0.625,0.61569
5.936,-0.13447,0.40567,0.48039,0.61914,0.59608
5.944,-0.14181,0.40567,0.48039,0.61523,0.6
5.952,-0.14914,0.40567,0.48431,0.60938,0.58431
5.96,-0.15892,0.40567,0.4902,0.59961,0.57451
5.968,-0.16626,0.40567,0.4549,0.58398,0.6098
5.976,-0.17604,0.40567,0.39412,0.57031,0.65098
5.984,-0.18582,0.40469,0.34902,0.56055,0.6902
5.992,-0.19315,0.40469,0.31373,0.55469,0.71569
6,-0.20293,0.40371,0.3,0.56055,0.72549
6.008,-0.21027,0.40274,0.29412,0.54492,0.73137
6.016,-0.2176,0.40078,0.3,0.53906,0.71569
6.024,-0.22494,0.39883,0.28431,0.5293,0.72157
6.032,-0.23227,0.39687,0.26863,0.53516,0.73529
6.04,-0.23716,0.39492,0.2902,0.5293,0.74118
6.048,-0.2445,0.39296,0.30392,0.54492,0.72157
6.056,-0.24939,0.39003,0.3,0.55078,0.7098
6.064,-0.25672,0.38807,0.39412,0.60547,0.67647
6.072,-0.26161,0.38612,0.52941,0.62891,0.5902
6.08,-0.26406,0.38319,0.59608,0.55469,0.57451
6.088,-0.26895,0.38025,0.69608,0.41602,0.47451
6.096,-0.27139,0.37928,0.73137,0.33984,0.43529
6.104,-0.27384,0.3783,0.17451,0.32422,0.91176
6.112,-0.27628,0.38025,-0.021569,0.41016,1.0765
6.12,-0.27628,0.38416,0.039216,0.45508,1.0059
6.128,-0.27628,0.39198,0.1098,0.49414,0.88039
6.136,-0.27873,0.40371,0.19412,0.5293,0.77647
6.144,-0.27873,0.41838,0.27451,0.56055,0.7098
6.152,-0.27873,0.435,0.28431,0.57031,0.69608
6.16,-0.27873,0.45161,0.31961,0.58008,0.67059
6.168,-0.27873,0.46823,0.33922,0.58984,0.66078
6.176,-0.27873,0.48192,0.34902,0.58984,0.6451
6.184,-0.27873,0.49267,0.3549,0.5957,0.6451
6.192,-0.27873,0.50049,0.34902,0.60547,0.6549
6.2,-0.28117,0.50538,0.38431,0.60938,0.60588
6.208,-0.28117,0.50733,0.4,0.61523,0.58431
6.216,-0.28117,0.50831,0.41569,0.61523,0.56471
6.224,-0.28362,0.50635,0.41569,0.625,0.58039
6.232,-0.28362,0.50342,0.4549,0.62891,0.52549
6.24,-0.28362,0.50049,0.46471,0.625,0.49412
6.248,-0.28362,0.49658,0.50588,0.64062,0.4549
6.256,-0.28606,0.49169,0.53922,0.66016,0.42549
6.264,-0.28606,0.4868,0.57451,0.66406,0.38039
6.272,-0.28606,0.48094,0.6,0.66016,0.35882
6.28,-0.28851,0.4741,0.6098,0.66406,0.3549
6.288,-0.28851,0.46628,0.56078,0.64062,0.41961
6.296,-0.28851,0.45943,0.5451,0.62891,0.4549
6.304,-0.29095,0.45357,0.50588,0.5957,0.50588
6.312,-0.29095,0.44673,0.44902,0.57422,0.56471
6.32,-0.29095,0.43988,0.3902,0.55469,0.61569
6.328,-0.29095,0.43304,0.38431,0.54492,0.63529
6.336,-0.29095,0.42717,0.33922,0.5293,0.68039
6.344,-0.2934,0.42131,0.30392,0.51562,0.70588
6.352,-0.2934,0.41544,0.3,0.51953,0.70588
6.36,-0.2934,0.41056,0.31373,0.50586,0.71569
6.368,-0.2934,0.40567,0.3,0.51953,0.7098
6.376,-0.29584,0.40274,0.31961,0.54492,0.68039
6.384,-0.29829,0.40078,0.35882,0.56055,0.6451
6.392,-0.29829,0.3998,0.36471,0.57031,0.66078
6.4,-0.30073,0.40078,0.4098,0.58398,0.62549
6.408,-0.30073,0.40176,0.43529,0.5957,0.61961
6.416,-0.30318,0.40274,0.46078,0.5957,0.61569
6.424,-0.30562,0.40371,0.44902,0.5957,0.61961
6.432,-0.30562,0.40469,0.4549,0.58398,0.6098
6.44,-0.30807,0.40567,0.42941,0.57031,0.61569
6.448,-0.31051,0.40567,0.37451,0.53906,0.66078
6.456,-0.31051,0.40567,0.32941,0.52539,0.6902
6.464,-0.31296,0.40469,0.3,0.5293,0.71569
6.472,-0.31296,0.40469,0.29412,0.50586,0.71569
6.48,-0.3154,0.40371,0.2549,0.5,0.74118
6.488,-0.3154,0.40274,0.26863,0.49414,0.73529
6.496,-0.3154,0.40176,0.24902,0.48438,0.75098
6.504,-0.31296,0.40078,0.2451,0.48047,0.76078
6.512,-0.31296,0.39883,0.23922,0.50977,0.76667
6.52,-0.31051,0.39785,0.27843,0.49414,0.73137
6.528,-0.30807,0.39589,0.27451,0.5,0.74118
6.536,-0.30562,0.39394,0.31961,0.52539,0.7098
6.544,-0.30073,0.39101,0.4549,0.57031,0.62941
6.552,-0.29829,0.38905,0.53922,0.53906,0.59608
6.56,-0.2934,0.38612,0.62941,0.41602,0.55098
6.568,-0.29095,0.38514,0.69608,0.32031,0.48039
6.576,-0.28606,0.38514,0.30392,0.28516,0.81176
6.584,-0.28117,0.3871,0.0078431,0.34961,1.0667
6.592,-0.27628,0.39296,-0.037255,0.40039,1.102
6.6,-0.27139,0.40078,0.052941,0.43555,0.96078
6.608,-0.2665,0.41056,0.1549,0.45508,0.82549
6.616,-0.26161,0.42424,0.25882,0.50586,0.72157
6.624,-0.25672,0.43988,0.28431,0.51562,0.7
6.632,-0.25183,0.4565,0.3,0.52539,0.6902
6.64,-0.24694,0.47214,0.33529,0.54492,0.66078
6.648,-0.2445,0.48583,0.3451,0.54492,0.6549
6.656,-0.24205,0.49658,0.3549,0.55469,0.67059
6.664,-0.23961,0.50342,0.37059,0.54492,0.6451
6.672,-0.23716,0.50831,0.38039,0.53906,0.61961
6.68,-0.23472,0.51026,0.3902,0.55078,0.61569
6.688,-0.23227,0.50929,0.39412,0.56055,0.60588
6.696,-0.22983,0.50831,0.41961,0.55078,0.57451
6.704,-0.22738,0.50538,0.44902,0.58008,0.52941
6.712,-0.22738,0.50147,0.47451,0.58008,0.50588
6.72,-0.22494,0.49658,0.51961,0.60547,0.44902
6.728,-0.22494,0.49071,0.53922,0.61523,0.42549
6.736,-0.22249,0.48387,0.57451,0.62891,0.3902
6.744,-0.22249,0.47605,0.60588,0.63477,0.37451
6.752,-0.22005,0.46823,0.60588,0.64062,0.37059
6.76,-0.2176,0.45943,0.6,0.63477,0.38431
6.768,-0.21516,0.45161,0.57451,0.60547,0.41961
6.776,-0.21516,0.44379,0.51569,0.58984,0.4902
6.784,-0.21271,0.43597,0.46078,0.56445,0.53922
6.792,-0.21027,0.42913,0.41569,0.55078,0.60588
6.8,-0.20782,0.42424,0.36471,0.52539,0.6451
6.808,-0.20782,0.42033,0.3549,0.50977,0.66078
6.816,-0.20538,0.41544,0.31961,0.50586,0.70588
6.824,-0.20293,0.41056,0.3098,0.49414,0.7098
6.832,-0.20293,0.40665,0.31961,0.48047,0.68627
6.84,-0.20049,0.40371,0.3,0.49414,0.7098
6.848,-0.20049,0.40176,0.30392,0.50586,0.71569
6.856,-0.19804,0.40078,0.31373,0.5,0.69608
6.864,-0.19804,0.40078,0.33922,0.51562,0.67647
6.872,-0.1956,0.40176,0.36471,0.5293,0.6549
6.88,-0.1956,0.40274,0.39412,0.55078,0.64118
6.888,-0.19315,0.40371,0.41569,0.55078,0.62941
6.896,-0.19315,0.40469,0.43922,0.55469,0.62549
6.904,-0.19315,0.40665,0.44902,0.56055,0.61961
6.912,-0.19071,0.40762,0.43922,0.53906,0.61569
6.92,-0.19071,0.40762,0.4,0.51562,0.6451
6.928,-0.19071,0.4086,0.3451,0.5,0.6902
6.936,-0.19071,0.40762,0.3,0.5,0.72157
6.944,-0.19071,0.40762,0.29412,0.49023,0.73137
6.952,-0.19071,0.40567,0.26471,0.47461,0.7549
6.96,-0.19071,0.40469,0.24902,0.48047,0.76667
6.968,-0.19071,0.40274,0.2549,0.4707,0.76078
6.976,-0.19071,0.3998,0.25882,0.46484,0.7549
6.984,-0.19071,0.39785,0.27451,0.47461,0.7451
6.992,-0.18826,0.39687,0.25882,0.4707,0.76667
7,-0.18826,0.39589,0.25882,0.47461,0.76078
7.008,-0.18582,0.39394,0.29412,0.47461,0.72549
7.016,-0.18337,0.39198,0.38431,0.51562,0.68627
7.024,-0.18093,0.39003,0.5,0.53906,0.62549
7.032,-0.17848,0.38807,0.56471,0.48047,0.61569
7.04,-0.17604,0.3871,0.67647,0.3457,0.5098
7.048,-0.17359,0.3871,0.70588,0.28516,0.48431
7.056,-0.17115,0.38807,0.14314,0.26953,0.97059
7.064,-0.1687,0.39198,0.0078431,0.37109,1.0922
7.072,-0.16626,0.3998,0.062745,0.4043,1.0059
7.08,-0.16381,0.41056,0.11961,0.43945,0.8902
7.088,-0.16137,0.42424,0.21373,0.4707,0.78627
7.096,-0.16137,0.43793,0.27843,0.49414,0.73137
7.104,-0.15892,0.45064,0.31961,0.51562,0.69608
7.112,-0.15892,0.4653,0.3451,0.51953,0.67059
7.12,-0.15892,0.47996,0.3451,0.51953,0.66471
7.128,-0.15892,0.49169,0.3549,0.5293,0.6549
7.136,-0.15892,0.50049,0.35882,0.5293,0.6451
7.144,-0.15892,0.50733,0.36471,0.53906,0.6451
7.152,-0.15892,0.51124,0.37059,0.53516,0.64118
7.16,-0.15892,0.5132,0.3902,0.55469,0.61569
7.168,-0.16137,0.51222,0.41961,0.56055,0.58431
7.176,-0.16137,0.50929,0.4549,0.57031,0.55098
7.184,-0.16381,0.52199,0.48431,0.58398,0.51569
7.192,-0.16626,0.54252,0.52549,0.60938,0.47451
7.2,-0.16626,0.54936,0.56078,0.62891,0.43529
7.208,-0.1687,0.54741,0.60588,0.64062,0.38039
7.216,-0.1687,0.54057,0.65098,0.66016,0.3451
7.224,-0.17115,0.53177,0.67059,0.66406,0.33922
7.232,-0.17115,0.52297,0.66078,0.6543,0.3549
7.24,-0.17359,0.5132,0.65098,0.64453,0.37451
7.248,-0.17604,0.50244,0.6098,0.61914,0.42549
7.256,-0.17604,0.49071,0.5549,0.58984,0.48039
7.264,-0.17848,0.47898,0.49412,0.56445,0.5451
7.272,-0.18093,0.46823,0.47059,0.55469,0.58039
7.28,-0.18337,0.45846,0.40392,0.5293,0.63529
7.288,-0.18337,0.45064,0.37059,0.50586,0.66471
7.296,-0.18582,0.44575,0.3549,0.5,0.68039
7.304,-0.18826,0.44282,0.3451,0.5,0.6902
7.312,-0.18826,0.44086,0.33529,0.5,0.6902
7.32,-0.19071,0.43891,0.33922,0.5,0.6902
7.328,-0.19315,0.43891,0.31961,0.49023,0.70588
7.336,-0.1956,0.43891,0.33529,0.5,0.6902
7.344,-0.20049,0.44086,0.36471,0.50586,0.66078
7.352,-0.20293,0.44379,0.38039,0.50977,0.6451
7.36,-0.20538,0.44673,0.4098,0.51562,0.64118
7.368,-0.21027,0.44966,0.42549,0.51953,0.6451
7.376,-0.21271,0.45259,0.41961,0.5,0.64118
7.384,-0.2176,0.45455,0.42941,0.47461,0.61961
7.392,-0.22249,0.4565,0.4098,0.45508,0.64118
7.4,-0.22738,0.45846,0.3549,0.41992,0.68039
7.408,-0.23472,0.45846,0.2902,0.38477,0.74118
7.416,-0.23961,0.45748,0.26863,0.37109,0.76078
7.424,-0.2445,0.45552,0.23333,0.35547,0.78039
7.432,-0.24939,0.45357,0.21961,0.32422,0.79608
7.44,-0.25428,0.45064,0.21373,0.30469,0.78627
7.448,-0.25917,0.4477,0.21961,0.30078,0.78627
7.456,-0.26161,0.44379,0.22941,0.29102,0.7902
7.464,-0.26406,0.44086,0.23333,0.29102,0.78627
7.472,-0.2665,0.43695,0.22353,0.27539,0.79608
7.48,-0.2665,0.43304,0.23922,0.26953,0.8
7.488,-0.26895,0.42913,0.26471,0.26562,0.76667
7.496,-0.2665,0.4262,0.34902,0.31445,0.72549
7.504,-0.2665,0.42326,0.4549,0.33594,0.67059
7.512,-0.26406,0.42033,0.51961,0.26953,0.6549
7.52,-0.26161,0.41838,0.6,0.17578,0.58431
7.528,-0.25917,0.41838,0.39412,0.16016,0.78627
7.536,-0.25428,0.42033,0.052941,0.2207,1.0961
7.544,-0.24939,0.4262,-0.0058823,0.29102,1.1314
7.552,-0.2445,0.43597,0.033333,0.32422,1.0373
7.56,-0.23961,0.45161,0.11961,0.35547,0.91569
7.568,-0.23227,0.47214,0.2098,0.4043,0.81569
7.576,-0.22494,0.49462,0.26471,0.44922,0.7549
7.584,-0.2176,0.51906,0.3549,0.50586,0.69608
7.592,-0.20782,0.53959,0.38039,0.53516,0.66471
7.6,-0.20049,0.55621,0.35882,0.53906,0.66471
7.608,-0.19315,0.57185,0.32941,0.55469,0.69608
7.616,-0.18337,0.58456,0.36471,0.57422,0.67059
7.624,-0.17604,0.59335,0.4,0.59961,0.6451
7.632,-0.1687,0.59824,0.37451,0.59961,0.66078
7.64,-0.16137,0.59824,0.37059,0.61523,0.66471
7.648,-0.15403,0.59629,0.42549,0.625,0.61961
7.656,-0.14914,0.5914,0.4549,0.64062,0.58039
7.664,-0.14181,0.58553,0.44902,0.62891,0.5451
7.672,-0.13447,0.57771,0.48039,0.64062,0.51961
7.68,-0.12958,0.56891,0.51569,0.66016,0.48039
7.688,-0.12225,0.55914,0.59608,0.68945,0.41961
7.696,-0.11736,0.55034,0.60588,0.69531,0.40392
7.704,-0.11247,0.54057,0.58431,0.68555,0.43529
7.712,-0.10513,0.52981,0.61569,0.70508,0.42549
7.72,-0.0978,0.51808,0.61961,0.68555,0.41961
7.728,-0.090465,0.50538,0.6,0.68945,0.46471
7.736,-0.08313,0.49365,0.52941,0.66406,0.53922
7.744,-0.07335,0.48289,0.4902,0.65039,0.57451
7.752,-0.06357,0.47312,0.48431,0.6543,0.61569
7.76,-0.05379,0.4653,0.43922,0.66016,0.67059
7.768,-0.04401,0.4565,0.40392,0.63477,0.68627
7.776,-0.03423,0.44966,0.41569,0.64062,0.67059
7.784,-0.02445,0.44477,0.40392,0.64062,0.6902
7.792,-0.01467,0.44282,0.46471,0.66992,0.64118
7.8,-0.00489,0.44184,0.47059,0.67969,0.63529
7.808,0.007335,0.44282,0.4549,0.69531,0.6549
7.816,0.01956,0.44379,0.4902,0.69531,0.62549
7.824,0.031785,0.44673,0.5451,0.71484,0.6098
7.832,0.04401,0.44966,0.56471,0.72461,0.5902
7.84,0.056235,0.45455,0.52941,0.69922,0.6098
7.848,0.06846,0.45846,0.51961,0.68555,0.61961
7.856,0.080685,0.46139,0.50588,0.67578,0.61569
7.864,0.095355,0.46334,0.4902,0.67578,0.62941
7.872,0.11247,0.4653,0.50588,0.67969,0.65098
7.88,0.12958,0.46628,0.42941,0.6543,0.6902
7.888,0.1467,0.46628,0.4,0.64062,0.69608
7.896,0.1687,0.46628,0.38431,0.64062,0.72157
7.904,0.18826,0.46628,0.39412,0.64453,0.70588
7.912,0.21271,0.4653,0.41569,0.64453,0.69608
7.92,0.23472,0.46432,0.42549,0.63477,0.68627
7.928,0.25672,0.46237,0.3902,0.625,0.71569
7.936,0.27873,0.46139,0.41961,0.625,0.67647
7.944,0.30073,0.45943,0.42941,0.625,0.67059
7.952,0.32518,0.45748,0.43529,0.62891,0.6902
7.96,0.34963,0.45455,0.48431,0.65039,0.6451
7.968,0.37408,0.45161,0.56471,0.66406,0.5902
7.976,0.40098,0.44868,0.61569,0.58984,0.58039
7.984,0.42787,0.44477,0.68039,0.48438,0.53922
7.992,0.45232,0.44282,0.6902,0.42969,0.62941
8,0.47677,0.44086,0.2549,0.48047,0.93725
8.008,0.49878,0.43988,0.13922,0.56055,1.0157
8.016,0.52323,0.43793,0.13333,0.58984,0.98235
8.024,0.54523,0.43793,0.2,0.5957,0.88627
8.032,0.56968,0.43891,0.3,0.61914,0.77059
8.04,0.59169,0.44379,0.37451,0.66016,0.70588
8.048,0.61614,0.45161,0.4451,0.68555,0.6451
8.056,0.63814,0.46432,0.48431,0.69922,0.61569
8.064,0.66015,0.47996,0.49412,0.70898,0.60588
8.072,0.67971,0.49756,0.5098,0.70898,0.58431
8.08,0.70171,0.51711,0.51569,0.70898,0.57451
8.088,0.71638,0.53666,0.53529,0.72461,0.57451
8.096,0.7335,0.55327,0.51961,0.7207,0.58431
8.104,0.74817,0.56598,0.53529,0.71484,0.56471
8.112,0.76284,0.57869,0.5549,0.73438,0.52549
8.12,0.77506,0.58749,0.56078,0.73047,0.52941
8.128,0.78729,0.59335,0.58431,0.73047,0.4902
8.136,0.79707,0.59629,0.6098,0.73438,0.4549
8.144,0.80685,0.59629,0.62549,0.74023,0.42941
8.152,0.81663,0.59433,0.66471,0.75391,0.39412
8.16,0.82396,0.59042,0.69608,0.77539,0.37059
8.168,0.8313,0.58358,0.72157,0.78516,0.34902
8.176,0.83619,0.57576,0.73529,0.78906,0.34902
8.184,0.84108,0.56696,0.73137,0.7793,0.36471
8.192,0.84841,0.55914,0.69608,0.76562,0.4098
8.2,0.85086,0.55132,0.66471,0.75391,0.4549
8.208,0.85575,0.54154,0.61961,0.73438,0.50588
8.216,0.85819,0.53079,0.58039,0.72461,0.5549
8.224,0.86064,0.52004,0.5549,0.71484,0.57451
8.232,0.86308,0.51026,0.51961,0.70898,0.61569
8.24,0.86553,0.50049,0.5098,0.71484,0.62941
8.248,0.86797,0.49071,0.5098,0.7207,0.63529
8.256,0.87042,0.48192,0.49412,0.69922,0.6451
8.264,0.87042,0.47507,0.50588,0.69531,0.64118
8.272,0.87042,0.46921,0.5098,0.69531,0.6451
8.28,0.86797,0.46628,0.5451,0.69922,0.59608
8.288,0.86553,0.4653,0.5549,0.70898,0.59608
8.296,0.86308,0.46628,0.56471,0.70898,0.60588
8.304,0.86064,0.46725,0.60588,0.73047,0.56078
8.312,0.85575,0.46823,0.62941,0.74023,0.53922
8.32,0.8533,0.47019,0.65098,0.75,0.5451
8.328,0.84841,0.47116,0.67647,0.74414,0.52549
8.336,0.84352,0.47312,0.68039,0.74023,0.52549
8.344,0.83863,0.4741,0.67059,0.7207,0.52941
8.352,0.83374,0.47507,0.6549,0.70898,0.53529
8.36,0.82641,0.47507,0.61569,0.68555,0.5549
8.368,0.81907,0.47605,0.56078,0.66992,0.59608
8.376,0.81174,0.47605,0.52941,0.6543,0.61569
8.384,0.8044,0.47605,0.50588,0.64062,0.63529
8.392,0.79707,0.47605,0.4902,0.64062,0.6549
8.4,0.78973,0.47605,0.48431,0.63477,0.6451
8.408,0.78484,0.47507,0.49412,0.64062,0.63529
8.416,0.77751,0.47312,0.5,0.64062,0.62941
8.424,0.77262,0.47019,0.48431,0.62891,0.6451
8.432,0.76528,0.46725,0.5,0.62891,0.62549
8.44,0.76039,0.46334,0.50588,0.625,0.61961
8.448,0.7555,0.46041,0.51569,0.62891,0.62941
8.456,0.75061,0.4565,0.62941,0.68555,0.5549
8.464,0.74572,0.45357,0.7098,0.66992,0.50588
8.472,0.74083,0.45161,0.7902,0.57031,0.47059
8.48,0.73594,0.44966,0.84118,0.42578,0.40392
8.488,0.73105,0.4477,0.55098,0.38086,0.65098
8.496,0.72616,0.44868,0.22353,0.43945,0.93137
8.504,0.71883,0.45259,0.15882,0.50977,0.97647
8.512,0.71394,0.45943,0.2098,0.55469,0.91176
8.52,0.70905,0.46921,0.28431,0.57031,0.8
8.528,0.70416,0.48387,0.4,0.61523,0.6902
8.536,0.69682,0.50244,0.48039,0.6543,0.61961
8.544,0.69193,0.52199,0.51961,0.66406,0.5902
8.552,0.6846,0.54252,0.52941,0.67969,0.58039
8.56,0.67726,0.56109,0.5451,0.68555,0.56471
8.568,0.66993,0.57576,0.5549,0.68945,0.57059
8.576,0.66504,0.58847,0.57451,0.69531,0.5451
8.584,0.6577,0.59726,0.58039,0.69531,0.53922
8.592,0.65037,0.60215,0.59608,0.69531,0.5451
8.6,0.64303,0.60508,0.60588,0.69922,0.51569
8.608,0.63814,0.60411,0.6,0.68945,0.51569
8.616,0.63081,0.60117,0.61569,0.69922,0.49412
8.624,0.62347,0.59629,0.62549,0.70508,0.47451
8.632,0.61858,0.58944,0.6549,0.71484,0.42941
8.64,0.61125,0.57967,0.67647,0.73047,0.4
8.648,0.60636,0.56989,0.71569,0.74023,0.3549
8.656,0.60147,0.56012,0.74118,0.75391,0.33922
8.664,0.59658,0.54936,0.75098,0.76562,0.33529
8.672,0.59169,0.53861,0.7451,0.75391,0.34902
8.68,0.58924,0.52688,0.72157,0.74414,0.38039
8.688,0.58435,0.51613,0.6902,0.72461,0.41961
8.696,0.58191,0.50831,0.65098,0.70898,0.47059
8.704,0.57702,0.50147,0.61569,0.68945,0.50588
8.712,0.57213,0.49267,0.57059,0.66406,0.55098
8.72,0.56724,0.48387,0.53922,0.6543,0.57451
8.728,0.56235,0.47605,0.50588,0.63477,0.6098
8.736,0.55746,0.47019,0.48431,0.61914,0.61961
8.744,0.55257,0.4653,0.46471,0.60938,0.6451
8.752,0.54768,0.46334,0.46471,0.60938,0.6451
8.76,0.54279,0.46237,0.48431,0.61523,0.61961
8.768,0.5379,0.46237,0.50588,0.63477,0.60588
8.776,0.53301,0.46334,0.52941,0.65039,0.59608
8.784,0.52567,0.46432,0.55098,0.66016,0.57451
8.792,0.51834,0.46628,0.58431,0.67969,0.56078
8.8,0.51345,0.46823,0.61569,0.66406,0.5451
8.808,0.50611,0.47019,0.6098,0.66406,0.55098
8.816,0.49878,0.47116,0.63529,0.6543,0.51569
8.824,0.489,0.47214,0.61569,0.63477,0.52549
8.832,0.48166,0.47214,0.57451,0.61914,0.5451
8.84,0.47188,0.47214,0.50588,0.5957,0.60588
8.848,0.46455,0.47214,0.48039,0.5957,0.62941
8.856,0.45477,0.47116,0.43529,0.57422,0.66078
8.864,0.44743,0.47019,0.43529,0.57422,0.66471
8.872,0.43765,0.46823,0.42941,0.57031,0.6549
8.88,0.43032,0.46725,0.42549,0.56445,0.66078
8.888,0.42298,0.46628,0.43529,0.57031,0.66078
8.896,0.41565,0.46628,0.43529,0.56445,0.66471
8.904,0.40831,0.4653,0.42941,0.57031,0.66471
8.912,0.40098,0.46432,0.43922,0.57031,0.65098
8.92,0.39609,0.46139,0.44902,0.57031,0.6549
8.928,0.3912,0.45846,0.51961,0.60938,0.6098
8.936,0.38631,0.45455,0.66471,0.65039,0.53922
8.944,0.38142,0.45064,0.7549,0.57031,0.48431
8.952,0.37897,0.44575,0.86078,0.41602,0.3902
8.96,0.37408,0.44184,0.87059,0.32031,0.37059
8.968,0.37164,0.44086,0.32353,0.30469,0.82157
8.976,0.36919,0.44282,0.11961,0.39062,0.97647
8.984,0.36675,0.45064,0.084314,0.44531,0.99608
8.992,0.3643,0.46139,0.21373,0.50586,0.8451
9,0.3643,0.47605,0.3098,0.55078,0.73529
9.008,0.36186,0.4956,0.3902,0.58984,0.67059
9.016,0.36186,0.52004,0.43529,0.60547,0.62941
9.024,0.35941,0.54448,0.43922,0.61523,0.61961
9.032,0.35697,0.56891,0.4549,0.61523,0.62941
9.04,0.35452,0.59042,0.47451,0.61914,0.5902
9.048,0.35208,0.60802,0.48039,0.63477,0.59608
9.056,0.34963,0.6217,0.50588,0.64453,0.57451
9.064,0.34719,0.6305,0.5,0.64453,0.58039
9.072,0.34474,0.63539,0.5098,0.65039,0.5549
9.08,0.33985,0.63832,0.53529,0.6543,0.51961
9.088,0.33741,0.63832,0.5451,0.66016,0.5
9.096,0.33496,0.63539,0.55098,0.66406,0.5
9.104,0.33007,0.63148,0.58039,0.68555,0.46078
9.112,0.32763,0.62463,0.6,0.70898,0.42941
9.12,0.32274,0.61681,0.62549,0.71484,0.40392
9.128,0.32029,0.60802,0.66078,0.72461,0.37059
9.136,0.31785,0.59922,0.67647,0.73438,0.35882
9.144,0.31296,0.58944,0.69608,0.74023,0.35882
9.152,0.31051,0.57869,0.67647,0.73047,0.3902
9.16,0.30562,0.56794,0.64118,0.69531,0.42549
9.168,0.30318,0.55718,0.6,0.66992,0.47451
9.176,0.29829,0.54643,0.5549,0.6543,0.52549
9.184,0.2934,0.53568,0.5098,0.63477,0.57451
9.192,0.28851,0.52688,0.46471,0.61523,0.61569
9.2,0.28606,0.52004,0.43529,0.58398,0.64118
9.208,0.28117,0.51124,0.41569,0.57031,0.65098
9.216,0.27628,0.50342,0.4098,0.57031,0.6451
9.224,0.27139,0.49658,0.40392,0.57031,0.66471
9.232,0.26895,0.48192,0.41569,0.58398,0.6451
9.24,0.26161,0.4653,0.43922,0.59961,0.63529
9.248,0.25672,0.45552,0.4549,0.61523,0.62549
9.256,0.24939,0.45064,0.47451,0.63477,0.6098
9.264,0.24205,0.44868,0.51569,0.6543,0.58431
9.272,0.23716,0.44673,0.53529,0.66016,0.57059
9.28,0.23227,0.44673,0.53529,0.64062,0.57451
9.288,0.22494,0.4477,0.5549,0.63477,0.55098
9.296,0.22005,0.44868,0.53922,0.61914,0.57059
9.304,0.21271,0.44966,0.49412,0.58984,0.60588
9.312,0.20782,0.45064,0.42941,0.56445,0.64118
9.32,0.20049,0.45064,0.4,0.55469,0.67059
9.328,0.19315,0.45064,0.37451,0.54492,0.68627
9.336,0.18582,0.45064,0.35882,0.54492,0.69608
9.344,0.17848,0.4477,0.3451,0.53516,0.70588
9.352,0.17115,0.44575,0.3451,0.52539,0.7
9.36,0.16626,0.44184,0.3451,0.52539,0.70588
9.368,0.15892,0.43793,0.34902,0.5293,0.6902
9.376,0.15403,0.43597,0.3451,0.5293,0.69608
9.384,0.14914,0.43402,0.3451,0.53906,0.7
9.392,0.14425,0.43304,0.37451,0.54492,0.67647
9.4,0.13936,0.43109,0.42549,0.56445,0.66078
9.408,0.13692,0.42815,0.57059,0.61523,0.58039
9.416,0.13447,0.42522,0.68627,0.54492,0.5098
9.424,0.13203,0.42033,0.78039,0.39453,0.43529
9.432,0.12958,0.41642,0.81176,0.30078,0.39412
9.44,0.12714,0.41447,0.27451,0.26953,0.83137
9.448,0.12714,0.41544,0.033333,0.33594,1.0157
9.456,0.12469,0.42033,-0.015686,0.38477,1.0471
9.464,0.12469,0.43109,0.13333,0.45508,0.87647
9.472,0.12225,0.4477,0.23333,0.50586,0.77059
9.48,0.12225,0.46921,0.3098,0.54492,0.7
9.488,0.1198,0.49071,0.3451,0.55469,0.67059
9.496,0.11736,0.51222,0.37059,0.57031,0.6451
9.504,0.11736,0.53568,0.38039,0.58008,0.6451
9.512,0.11491,0.55914,0.3902,0.58398,0.63529
9.52,0.11247,0.57967,0.41569,0.5957,0.61961
9.528,0.11002,0.59531,0.41569,0.5957,0.6098
9.536,0.11002,0.60704,0.41961,0.58984,0.60588
9.544,0.10758,0.61486,0.43922,0.59961,0.59608
9.552,0.10513,0.61877,0.46078,0.60938,0.56471
9.56,0.10024,0.61975,0.46471,0.61523,0.55098
9.568,0.0978,0.61779,0.48431,0.625,0.51961
9.576,0.09291,0.6129,0.50588,0.64062,0.5
9.584,0.08802,0.60704,0.52549,0.6543,0.46471
9.592,0.08313,0.6002,0.57059,0.67578,0.42549
9.6,0.080685,0.59433,0.61961,0.69531,0.38039
9.608,0.075795,0.58651,0.62549,0.71484,0.37451
9.616,0.070905,0.57771,0.62549,0.70508,0.38431
9.624,0.066015,0.56598,0.62549,0.68945,0.37451
9.632,0.061125,0.55425,0.58431,0.67578,0.43529
9.64,0.056235,0.54252,0.52549,0.64453,0.50588
9.648,0.051345,0.53079,0.50588,0.61914,0.53529
9.656,0.04401,0.51711,0.44902,0.5957,0.58431
9.664,0.03912,0.5044,0.40392,0.57031,0.62941
9.672,0.031785,0.49267,0.37059,0.55078,0.65098
9.68,0.026895,0.48192,0.34902,0.53516,0.67647
9.688,0.01956,0.47312,0.32941,0.52539,0.69608
9.696,0.01467,0.46628,0.33529,0.51953,0.6902
9.704,0.007335,0.46041,0.32941,0.53516,0.6902
9.712,0,0.45455,0.36471,0.54492,0.67059
9.72,-0.007335,0.45161,0.3902,0.57031,0.6451
9.728,-0.01467,0.44966,0.41961,0.58398,0.62549
9.736,-0.02445,0.44966,0.4451,0.5957,0.6
9.744,-0.03423,0.45064,0.47451,0.59961,0.60588
9.752,-0.04401,0.45161,0.48431,0.5957,0.59608
9.76,-0.051345,0.45259,0.4902,0.58398,0.59608
9.768,-0.061125,0.45259,0.48431,0.57031,0.5902
9.776,-0.070905,0.45259,0.4549,0.55078,0.6098
9.784,-0.080685,0.45259,0.40392,0.53516,0.64118
9.792,-0.09291,0.45357,0.34902,0.51953,0.6902
9.8,-0.10269,0.45357,0.31961,0.51562,0.7098
9.808,-0.11491,0.45455,0.30392,0.50977,0.72549
9.816,-0.12714,0.45357,0.2902,0.5,0.73529
9.824,-0.13936,0.45259,0.29412,0.50977,0.72549
9.832,-0.14914,0.44966,0.28431,0.50586,0.72549
9.84,-0.16137,0.44673,0.27843,0.50977,0.73529
9.848,-0.17115,0.44379,0.3,0.51562,0.71569
9.856,-0.18093,0.43988,0.2902,0.50586,0.73137
9.864,-0.19071,0.43597,0.3098,0.51562,0.72157
9.872,-0.19804,0.43109,0.35882,0.5293,0.68627
9.88,-0.20782,0.4262,0.47451,0.58008,0.62549
9.888,-0.21516,0.42229,0.57451,0.55469,0.58431
9.896,-0.22494,0.42033,0.6451,0.41992,0.53922
9.904,-0.23227,0.4174,0.73137,0.30469,0.4451
9.912,-0.23716,0.41642,0.3549,0.26953,0.75098
9.92,-0.2445,0.4174,0.04902,0.31445,1.0059
9.928,-0.24939,0.42326,-0.0058823,0.36523,1.0471
9.936,-0.25428,0.43304,0.068627,0.42578,0.93725
9.944,-0.25917,0.44966,0.1549,0.46094,0.82549
9.952,-0.26406,0.47019,0.25882,0.51562,0.73529
9.96,-0.26895,0.4956,0.3,0.53516,0.7
9.968,-0.27384,0.52199,0.31961,0.54492,0.67647
9.976,-0.27873,0.54839,0.3451,0.55469,0.66078
9.984,-0.28362,0.57185,0.3549,0.56445,0.6451
9.992,-0.28851,0.59042,0.36471,0.57031,0.6451
10,-0.2934,0.60313,0.35882,0.57031,0.66078
10.008,-0.29829,0.61388,0.3902,0.58398,0.62549
10.016,-0.30318,0.62072,0.3902,0.58008,0.62941
10.024,-0.30807,0.62366,0.40392,0.58984,0.6
10.032,-0.31296,0.62366,0.42941,0.61523,0.56471
10.04,-0.31785,0.6217,0.50588,0.65039,0.5098
10.048,-0.32274,0.61779,0.5451,0.67578,0.47059
10.056,-0.32763,0.61095,0.6098,0.70898,0.4098
10.064,-0.33252,0.60411,0.69608,0.75977,0.32941
10.072,-0.33741,0.59531,0.7549,0.78516,0.26863
10.08,-0.33985,0.58553,0.76667,0.7793,0.24902
10.088,-0.3423,0.57674,0.71569,0.7793,0.31961
10.096,-0.34474,0.56794,0.6451,0.75391,0.36471
10.104,-0.34963,0.55816,0.58431,0.73438,0.41961
10.112,-0.35208,0.54643,0.55098,0.71484,0.47059
10.12,-0.35452,0.5347,0.4902,0.68945,0.53922
10.128,-0.35941,0.52297,0.4098,0.66016,0.61569
10.136,-0.36186,0.51124,0.37059,0.62891,0.64118
10.144,-0.36675,0.49951,0.32353,0.58984,0.68039
10.152,-0.36919,0.48974,0.27451,0.56055,0.71569
10.16,-0.37408,0.47996,0.24902,0.54492,0.72549
10.168,-0.37653,0.47214,0.23333,0.53516,0.74118
10.176,-0.37897,0.46628,0.2451,0.53906,0.75098
10.184,-0.38142,0.46139,0.23333,0.53516,0.73529
10.192,-0.38386,0.45943,0.21961,0.5293,0.76078
10.2,-0.38631,0.45846,0.22941,0.53906,0.76078
10.208,-0.3912,0.45846,0.23333,0.54492,0.74118
10.216,-0.39364,0.45846,0.2451,0.55078,0.73529
10.224,-0.39853,0.45943,0.22941,0.53516,0.7451
10.232,-0.40098,0.46041,0.2549,0.55078,0.75098
10.24,-0.40587,0.46139,0.3098,0.54492,0.70588
10.248,-0.40831,0.46237,0.43529,0.5957,0.6451
10.256,-0.41076,0.46334,0.44902,0.50586,0.6902
10.264,-0.4132,0.46432,0.42941,0.32422,0.72157
10.272,-0.41565,0.46432,0.33922,0.25,0.7098
10.28,-0.42054,0.46432,0.043137,0.30078,1.0314
10.288,-0.42543,0.46432,-0.11765,0.35938,1.1314
10.296,-0.42787,0.46334,-0.037255,0.42578,1.0314
10.304,-0.43276,0.46139,0.07451,0.48438,0.88627
10.312,-0.43521,0.45846,0.19412,0.54492,0.76667
10.32,-0.4401,0.45552,0.26863,0.57422,0.7098
10.328,-0.4401,0.45259,0.3098,0.58398,0.68039
10.336,-0.44254,0.44966,0.34902,0.5957,0.66078
10.344,-0.44254,0.44575,0.3451,0.60547,0.66078
10.352,-0.44499,0.44184,0.38431,0.60938,0.61961
10.36,-0.44499,0.43695,0.4,0.61523,0.61569
10.368,-0.44499,0.43206,0.40392,0.61914,0.6098
10.376,-0.44254,0.42815,0.41569,0.61523,0.5902
10.384,-0.44254,0.4262,0.41569,0.61523,0.57451
10.392,-0.4401,0.4262,0.42941,0.625,0.56078
10.4,-0.4401,0.43011,0.46471,0.61914,0.51961
10.408,-0.43765,0.43695,0.48039,0.64062,0.4902
10.416,-0.43521,0.45064,0.52941,0.64453,0.43529
10.424,-0.43276,0.46823,0.58431,0.65039,0.38431
10.432,-0.43032,0.49071,0.62941,0.67969,0.33529
10.44,-0.42787,0.51515,0.6549,0.68945,0.32941
10.448,-0.42543,0.54154,0.67647,0.67578,0.33529
10.456,-0.42298,0.565,0.6451,0.66016,0.35882
10.464,-0.42054,0.58651,0.62549,0.64453,0.41569
10.472,-0.42054,0.60411,0.56471,0.61914,0.48431
10.48,-0.41809,0.61681,0.49412,0.58008,0.52941
10.488,-0.41809,0.62561,0.44902,0.56445,0.57451
10.496,-0.41565,0.6305,0.41961,0.54492,0.6098
10.504,-0.4132,0.63343,0.41569,0.53906,0.61961
10.512,-0.41076,0.63343,0.4098,0.52539,0.64118
10.52,-0.41076,0.6305,0.38431,0.50977,0.6549
10.528,-0.40831,0.62463,0.36471,0.5,0.66471
10.536,-0.40587,0.61681,0.37059,0.49023,0.67647
10.544,-0.40342,0.60802,0.33529,0.48438,0.6902
10.552,-0.40342,0.59824,0.31961,0.48047,0.7098
10.56,-0.40098,0.58749,0.32941,0.47461,0.7
10.568,-0.39853,0.57674,0.31961,0.49023,0.69608
10.576,-0.39609,0.56403,0.31373,0.49023,0.70588
10.584,-0.39364,0.5523,0.31961,0.5,0.69608
10.592,-0.3912,0.54154,0.3098,0.49414,0.72157
10.6,-0.38875,0.53275,0.31961,0.49414,0.72157
10.608,-0.38386,0.52199,0.30392,0.49023,0.72549
10.616,-0.37897,0.51026,0.33922,0.49023,0.68627
10.624,-0.37653,0.50049,0.3451,0.47461,0.6902
10.632,-0.37164,0.49169,0.32353,0.4707,0.71569
10.64,-0.36675,0.48485,0.33922,0.4707,0.7
10.648,-0.36186,0.47996,0.37059,0.49414,0.68627
10.656,-0.35697,0.47703,0.4,0.51562,0.66078
10.664,-0.35208,0.47605,0.41961,0.5293,0.64118
10.672,-0.34474,0.47605,0.43922,0.54492,0.64118
10.68,-0.33985,0.47801,0.47451,0.56055,0.61961
10.688,-0.33252,0.48094,0.48431,0.55469,0.61569
10.696,-0.32763,0.48289,0.48039,0.54492,0.6098
10.704,-0.32029,0.48485,0.4902,0.51953,0.60588
10.712,-0.31296,0.4868,0.4549,0.5,0.6
10.72,-0.30562,0.48876,0.4098,0.49023,0.65098
10.728,-0.29829,0.48974,0.37451,0.48438,0.67059
10.736,-0.29095,0.48974,0.32353,0.47461,0.71569
10.744,-0.28362,0.48974,0.33529,0.47461,0.7098
10.752,-0.27628,0.48876,0.3451,0.47461,0.70588
10.76,-0.26895,0.48778,0.32941,0.4707,0.71569
10.768,-0.26161,0.4868,0.32353,0.47461,0.71569
10.776,-0.25428,0.4868,0.34902,0.48047,0.69608
10.784,-0.24694,0.4868,0.33922,0.4707,0.7
10.792,-0.24205,0.48583,0.33922,0.48047,0.7098
10.8,-0.23472,0.48583,0.34902,0.47461,0.69608
10.808,-0.22983,0.48485,0.42549,0.5293,0.65098
10.816,-0.22494,0.48485,0.58431,0.57031,0.5549
10.824,-0.22005,0.48485,0.67647,0.50586,0.52549
10.832,-0.21516,0.48485,0.76078,0.37109,0.4549
10.84,-0.21027,0.48583,0.62549,0.2793,0.44902
10.848,-0.20538,0.48778,0.21961,0.26953,0.91569
10.856,-0.20293,0.48876,0.023529,0.33594,1.0725
10.864,-0.20049,0.49071,0.0078431,0.37109,1.0216
10.872,-0.1956,0.49071,0.13922,0.42969,0.8902
10.88,-0.19315,0.48974,0.22941,0.4707,0.77647
10.888,-0.19071,0.48876,0.31373,0.50977,0.69608
10.896,-0.18826,0.48778,0.36471,0.52539,0.66471
10.904,-0.18582,0.48583,0.37059,0.51953,0.66078
10.912,-0.18093,0.48289,0.38039,0.55078,0.64118
10.92,-0.18093,0.47898,0.3902,0.54492,0.6451
10.928,-0.17848,0.47312,0.4,0.54492,0.62549
10.936,-0.17604,0.46725,0.4098,0.54492,0.61569
10.944,-0.17359,0.46139,0.42941,0.56445,0.59608
10.952,-0.17115,0.4565,0.41569,0.57422,0.60588
10.96,-0.17115,0.45161,0.42941,0.5957,0.59608
10.968,-0.1687,0.4477,0.47059,0.59961,0.5549
10.976,-0.16626,0.44477,0.47059,0.60547,0.53922
10.984,-0.16381,0.44184,0.49412,0.60938,0.51961
10.992,-0.16381,0.43988,0.53529,0.61914,0.47059
11,-0.16137,0.43695,0.57451,0.63477,0.41961
11.008,-0.15892,0.435,0.6098,0.64453,0.38039
11.016,-0.15648,0.43402,0.6451,0.64062,0.3549
11.024,-0.15403,0.43402,0.65098,0.6543,0.3549
11.032,-0.15159,0.43402,0.65098,0.64453,0.36471
11.04,-0.14914,0.43402,0.62941,0.62891,0.3902
11.048,-0.1467,0.43402,0.6,0.60938,0.41961
11.056,-0.14425,0.43402,0.57059,0.59961,0.47059
11.064,-0.14181,0.43402,0.51569,0.57031,0.52549
11.072,-0.13936,0.43402,0.4549,0.53906,0.58039
11.08,-0.13936,0.435,0.4098,0.52539,0.62549
11.088,-0.13692,0.43597,0.3902,0.51953,0.6451
11.096,-0.13692,0.43695,0.37451,0.5,0.67059
11.104,-0.13447,0.43695,0.34902,0.48438,0.6902
11.112,-0.13447,0.43695,0.32941,0.4707,0.6902
11.12,-0.13447,0.43695,0.31961,0.46094,0.6902
11.128,-0.13447,0.43695,0.33529,0.46484,0.69608
11.136,-0.13447,0.43695,0.32941,0.44922,0.6902
11.144,-0.13447,0.43695,0.34902,0.46484,0.68627
11.152,-0.13447,0.43695,0.36471,0.46484,0.66471
11.16,-0.13692,0.43695,0.3902,0.47461,0.6451
11.168,-0.13692,0.43695,0.42941,0.48047,0.63529
11.176,-0.13936,0.43695,0.43922,0.4707,0.64118
11.184,-0.14181,0.43597,0.42941,0.45508,0.65098
11.192,-0.14425,0.43597,0.43922,0.42578,0.62941
11.2,-0.14425,0.43597,0.38431,0.39062,0.66471
11.208,-0.1467,0.435,0.32941,0.34961,0.7098
11.216,-0.14914,0.43402,0.27843,0.32031,0.74118
11.224,-0.14914,0.43304,0.24902,0.29102,0.76667
11.232,-0.15159,0.43206,0.22941,0.28516,0.78627
11.24,-0.15159,0.43206,0.22941,0.26562,0.78039
11.248,-0.14914,0.43109,0.20392,0.24609,0.8
11.256,-0.14914,0.43109,0.18824,0.23047,0.81569
11.264,-0.1467,0.43206,0.21961,0.23438,0.8
11.272,-0.14181,0.43304,0.2549,0.24023,0.76667
11.28,-0.13692,0.42424,0.23922,0.23438,0.77647
11.288,-0.13447,0.41251,0.24902,0.24023,0.78039
11.296,-0.12958,0.40665,0.2902,0.26953,0.75098
11.304,-0.12225,0.40371,0.40392,0.33984,0.68627
11.312,-0.11736,0.40371,0.49412,0.34961,0.65098
11.32,-0.11002,0.4086,0.56471,0.27539,0.6549
11.328,-0.10024,0.42131,0.66471,0.21484,0.5451
11.336,-0.090465,0.44184,0.31961,0.21094,0.85686
11.344,-0.080685,0.46823,0.04902,0.29492,1.0824
11.352,-0.070905,0.50147,-0.0058823,0.34961,1.1176
11.36,-0.061125,0.53763,0.052941,0.38477,1.0059
11.368,-0.0489,0.5738,0.13922,0.41016,0.88627
11.376,-0.036675,0.60704,0.26471,0.46484,0.77059
11.384,-0.02445,0.63343,0.33529,0.51562,0.70588
11.392,-0.012225,0.65298,0.33529,0.51953,0.7
11.4,0.002445,0.6696,0.40392,0.56445,0.66078
11.408,0.017115,0.68133,0.41961,0.58008,0.6451
11.416,0.031785,0.68719,0.3902,0.57422,0.66471
11.424,0.0489,0.68915,0.38431,0.5957,0.67059
11.432,0.06357,0.68719,0.42941,0.60938,0.62549
11.44,0.080685,0.68328,0.48431,0.625,0.59608
11.448,0.095355,0.67644,0.47451,0.63477,0.58431
11.456,0.10758,0.66764,0.46471,0.61523,0.58431
11.464,0.12225,0.65689,0.47451,0.625,0.58039
11.472,0.13447,0.64418,0.51961,0.64062,0.51961
11.48,0.14914,0.6305,0.57059,0.65039,0.46078
11.488,0.16381,0.61779,0.5902,0.66016,0.42549
11.496,0.17848,0.60508,0.6098,0.66992,0.4098
11.504,0.1956,0.59042,0.6451,0.68945,0.3902
11.512,0.21027,0.57478,0.66471,0.69531,0.37059
11.52,0.22494,0.55914,0.67647,0.70508,0.39412
11.528,0.23961,0.54448,0.6549,0.69531,0.42941
11.536,0.25428,0.52981,0.61961,0.68945,0.48431
11.544,0.27139,0.51613,0.57451,0.66016,0.51961
11.552,0.29095,0.50342,0.5549,0.66406,0.56078
11.56,0.31051,0.49267,0.51569,0.64453,0.6098
11.568,0.33007,0.48387,0.47059,0.62891,0.6549
11.576,0.35452,0.47703,0.4549,0.625,0.66471
11.584,0.37653,0.47312,0.46471,0.625,0.6549
11.592,0.40098,0.47019,0.4451,0.625,0.66471
11.6,0.42787,0.46921,0.43922,0.62891,0.67647
11.608,0.44988,0.46823,0.4549,0.63477,0.6549
11.616,0.47188,0.46921,0.44902,0.64062,0.66078
11.624,0.49389,0.47019,0.48039,0.66016,0.62941
11.632,0.51589,0.47214,0.50588,0.67969,0.61961
11.64,0.5379,0.47312,0.53529,0.68945,0.59608
11.648,0.5599,0.47312,0.52941,0.69531,0.6
11.656,0.58435,0.47214,0.57059,0.70898,0.58039
11.664,0.6088,0.47116,0.60588,0.73047,0.56078
11.672,0.63081,0.46921,0.58039,0.71484,0.58039
11.68,0.65281,0.4653,0.58431,0.70508,0.57451
11.688,0.67237,0.46237,0.56078,0.68945,0.5902
11.696,0.69438,0.45846,0.52549,0.66406,0.61569
11.704,0.71394,0.45455,0.47451,0.65039,0.6549
11.712,0.73594,0.45064,0.44902,0.62891,0.66471
11.72,0.75795,0.44673,0.43922,0.60938,0.66078
11.728,0.77995,0.44282,0.43529,0.59961,0.66471
11.736,0.8044,0.43891,0.42941,0.60547,0.67647
11.744,0.82641,0.435,0.43922,0.5957,0.66471
11.752,0.85086,0.43109,0.40392,0.58984,0.7
11.76,0.87531,0.42717,0.42549,0.59961,0.68039
11.768,0.89731,0.42131,0.43922,0.60938,0.67647
11.776,0.91687,0.41544,0.41961,0.61523,0.68627
11.784,0.93643,0.40958,0.4451,0.63477,0.66078
11.792,0.95844,0.40469,0.5451,0.68555,0.6
11.8,0.97555,0.40078,0.63529,0.65039,0.52941
11.808,0.99511,0.39785,0.68627,0.56055,0.51961
11.816,1.0147,0.39492,0.75098,0.4707,0.48039
11.824,1.0318,0.39296,0.46078,0.46484,0.7549
11.832,1.0465,0.39198,0.21961,0.5293,0.94706
11.84,1.0636,0.39394,0.18431,0.60547,0.97059
11.848,1.0758,0.3998,0.20392,0.60938,0.91176
11.856,1.088,0.41056,0.26471,0.60547,0.81569
11.864,1.1002,0.42717,0.3902,0.6543,0.70588
11.872,1.11,0.4477,0.48039,0.69531,0.61961
11.88,1.1198,0.47214,0.5098,0.70898,0.6
11.888,1.1296,0.49462,0.5098,0.71484,0.61961
11.896,1.1369,0.51515,0.53529,0.71484,0.5902
11.904,1.1418,0.53666,0.53529,0.7207,0.58431
11.912,1.1467,0.55621,0.5549,0.72461,0.56471
11.92,1.1516,0.57283,0.57059,0.72461,0.5451
11.928,1.154,0.58553,0.5549,0.7207,0.57059
11.936,1.1565,0.59335,0.56471,0.7207,0.53922
11.944,1.1565,0.59726,0.57451,0.71484,0.52549
11.952,1.1589,0.59824,0.58039,0.72461,0.5098
11.96,1.1565,0.59531,0.58431,0.73438,0.5
11.968,1.1565,0.58944,0.58039,0.73438,0.48039
11.976,1.1516,0.58162,0.62941,0.75,0.42549
11.984,1.1491,0.5738,0.66471,0.75391,0.38431
11.992,1.1467,0.565,0.6902,0.76953,0.35882
12,1.1443,0.55523,0.72157,0.7793,0.34902
12.008,1.1394,0.54252,0.72157,0.7793,0.36471
12.016,1.1369,0.52981,0.6902,0.75977,0.40392
12.024,1.132,0.51711,0.66078,0.75,0.43529
12.032,1.1271,0.50342,0.61961,0.73047,0.4902
12.04,1.1222,0.49071,0.57059,0.70898,0.53922
12.048,1.1174,0.47703,0.52941,0.68945,0.58039
12.056,1.11,0.4653,0.49412,0.68555,0.6098
12.064,1.1027,0.45552,0.48039,0.67578,0.62549
12.072,1.0978,0.44868,0.47059,0.66406,0.62941
12.08,1.0905,0.44282,0.4549,0.66406,0.6451
12.088,1.0831,0.43891,0.44902,0.66406,0.66471
12.096,1.0758,0.43793,0.46471,0.66992,0.65098
12.104,1.0709,0.43891,0.47451,0.66992,0.64118
12.112,1.0636,0.44086,0.49412,0.67969,0.61569
12.12,1.0562,0.44379,0.52941,0.69922,0.5902
12.128,1.0513,0.44673,0.57059,0.70898,0.56078
12.136,1.0416,0.45161,0.61569,0.7207,0.53529
12.144,1.0342,0.45552,0.62549,0.71484,0.5451
12.152,1.0269,0.45748,0.62941,0.70898,0.52549
12.16,1.0196,0.46041,0.6098,0.68555,0.55098
12.168,1.0122,0.46237,0.58431,0.66992,0.56078
12.176,1.0049,0.46334,0.55098,0.64062,0.58039
12.184,1,0.46334,0.48039,0.61914,0.63529
12.192,0.99267,0.46237,0.46471,0.61914,0.6451
12.2,0.98533,0.46139,0.46078,0.61523,0.65098
12.208,0.98044,0.45943,0.43529,0.59961,0.66078
12.216,0.97311,0.4565,0.43922,0.59961,0.66471
12.224,0.96822,0.45455,0.42941,0.59961,0.66471
12.232,0.96333,0.45259,0.42549,0.5957,0.67647
12.24,0.96088,0.44966,0.42941,0.5957,0.66471
12.248,0.95599,0.44673,0.43922,0.59961,0.6549
12.256,0.9511,0.44477,0.43529,0.59961,0.67059
12.264,0.94866,0.44184,0.47059,0.60938,0.6451
12.272,0.94377,0.43793,0.58431,0.66406,0.57451
12.28,0.94132,0.435,0.69608,0.64453,0.5
12.288,0.93888,0.43206,0.7451,0.53516,0.50588
12.296,0.93643,0.43011,0.78627,0.39062,0.42941
12.304,0.93154,0.42815,0.4451,0.3457,0.71569
12.312,0.9291,0.42717,0.16471,0.4043,0.94706
12.32,0.92665,0.42913,0.078431,0.46484,1.0118
12.328,0.92421,0.435,0.17451,0.51953,0.91176
12.336,0.92176,0.44673,0.25882,0.56055,0.80588
12.344,0.91687,0.46334,0.3549,0.59961,0.7098
12.352,0.91443,0.48485,0.42941,0.625,0.6451
12.36,0.90954,0.51124,0.46471,0.64453,0.61569
12.368,0.90465,0.53861,0.48431,0.6543,0.59608
12.376,0.89976,0.565,0.49412,0.6543,0.59608
12.384,0.89487,0.58651,0.50588,0.66406,0.5902
12.392,0.88753,0.60411,0.52941,0.66992,0.5549
12.4,0.88264,0.61877,0.51961,0.67578,0.56471
12.408,0.87531,0.62952,0.52941,0.67969,0.57059
12.416,0.87042,0.63539,0.55098,0.68555,0.53529
12.424,0.86308,0.63734,0.60588,0.70508,0.48039
12.432,0.85819,0.63636,0.65098,0.72461,0.4549
12.44,0.8533,0.63245,0.6902,0.75,0.41569
12.448,0.84841,0.62561,0.77059,0.79492,0.3451
12.456,0.84108,0.61584,0.81176,0.81055,0.29412
12.464,0.83619,0.60508,0.86078,0.82031,0.2451
12.472,0.8313,0.59238,0.83137,0.81055,0.23922
12.48,0.82641,0.58162,0.77059,0.80469,0.31961
12.488,0.82152,0.56989,0.73137,0.7793,0.34902
12.496,0.81663,0.55718,0.7,0.75391,0.37451
12.504,0.81174,0.54252,0.67059,0.75,0.42941
12.512,0.80685,0.52884,0.61569,0.72461,0.48039
12.52,0.80196,0.51515,0.53922,0.67969,0.5549
12.528,0.79951,0.50244,0.49412,0.64453,0.5902
12.536,0.79462,0.48974,0.43529,0.59961,0.63529
12.544,0.78973,0.47898,0.40392,0.57422,0.66078
12.552,0.7824,0.46921,0.37059,0.56055,0.6902
12.56,0.77751,0.46139,0.3451,0.55078,0.71569
12.568,0.77262,0.45552,0.35882,0.55078,0.7
12.576,0.76773,0.45161,0.37059,0.55469,0.68039
12.584,0.76039,0.45064,0.36471,0.55078,0.6902
12.592,0.7555,0.45064,0.38039,0.55469,0.68627
12.6,0.74817,0.45259,0.38431,0.56055,0.67647
12.608,0.74083,0.45455,0.3902,0.56445,0.68039
12.616,0.73105,0.4565,0.3902,0.56055,0.67059
12.624,0.72372,0.45846,0.41569,0.56445,0.66078
12.632,0.71638,0.46041,0.48431,0.60547,0.63529
12.64,0.7066,0.46237,0.5451,0.61914,0.61961
12.648,0.69927,0.46432,0.5098,0.44922,0.68627
12.656,0.68949,0.4653,0.5451,0.29492,0.66471
12.664,0.67971,0.46628,0.37059,0.26562,0.78039
12.672,0.67237,0.4653,0.084314,0.33594,1.0216
12.68,0.66259,0.46432,-0.021569,0.37109,1.0824
12.688,0.65281,0.46237,0.11961,0.46094,0.93137
12.696,0.64303,0.46041,0.23333,0.51953,0.79608
12.704,0.6357,0.45748,0.33529,0.56445,0.7
12.712,0.62836,0.45357,0.4,0.58984,0.6451
12.72,0.62103,0.44966,0.43529,0.60938,0.62549
12.728,0.61369,0.44673,0.4451,0.60547,0.61569
12.736,0.6088,0.44282,0.46078,0.61523,0.59608
12.744,0.60391,0.43891,0.4549,0.61523,0.60588
12.752,0.59902,0.435,0.46471,0.61523,0.5902
12.76,0.59413,0.43109,0.46471,0.625,0.57451
12.768,0.59169,0.42717,0.46471,0.625,0.57059
12.776,0.5868,0.42424,0.47451,0.63477,0.58039
12.784,0.58435,0.42229,0.51569,0.64453,0.52549
12.792,0.58191,0.42326,0.52941,0.6543,0.50588
12.8,0.57702,0.42913,0.57059,0.67578,0.46078
12.808,0.57457,0.43988,0.6098,0.69531,0.41569
12.816,0.57213,0.4565,0.66471,0.70898,0.35882
12.824,0.56968,0.47801,0.6902,0.72461,0.33922
12.832,0.56479,0.50538,0.7,0.7207,0.33922
12.84,0.56235,0.5347,0.70588,0.70898,0.3451
12.848,0.55746,0.56305,0.68039,0.69531,0.38039
12.856,0.55012,0.59042,0.63529,0.66406,0.42549
12.864,0.54523,0.61486,0.57059,0.625,0.5
12.872,0.5379,0.63343,0.52549,0.60547,0.5451
12.88,0.53301,0.64712,0.49412,0.59961,0.57451
12.888,0.52567,0.65494,0.44902,0.58398,0.61569
12.896,0.51834,0.65885,0.43529,0.58008,0.62941
12.904,0.511,0.65885,0.41961,0.58008,0.61961
12.912,0.50611,0.65591,0.41961,0.58008,0.64118
12.92,0.49633,0.65005,0.4,0.57031,0.66078
12.928,0.489,0.64125,0.41569,0.57031,0.6451
12.936,0.48166,0.63245,0.39412,0.56445,0.66078
12.944,0.47188,0.6217,0.40392,0.56445,0.6451
12.952,0.46455,0.60997,0.40392,0.57031,0.6451
12.96,0.45721,0.59726,0.38431,0.54492,0.66078
12.968,0.44988,0.58456,0.38039,0.55469,0.67647
12.976,0.44254,0.57185,0.37451,0.55078,0.6902
12.984,0.43276,0.56109,0.38039,0.54492,0.67059
12.992,0.42543,0.55034,0.37059,0.53906,0.67059
13,0.41809,0.53861,0.37059,0.53906,0.68627
13.008,0.41076,0.5259,0.38039,0.54492,0.67059
13.016,0.40098,0.51417,0.39412,0.53516,0.66078
13.024,0.39364,0.50342,0.3902,0.53906,0.66078
13.032,0.38386,0.49267,0.4,0.53906,0.66471
13.04,0.37408,0.48289,0.42549,0.56055,0.6451
13.048,0.36675,0.47507,0.46471,0.58398,0.62549
13.056,0.35697,0.46725,0.49412,0.5957,0.6098
13.064,0.34963,0.46237,0.50588,0.60547,0.6
13.072,0.3423,0.46041,0.51961,0.60938,0.5902
13.08,0.33496,0.45943,0.51569,0.5957,0.58431
13.088,0.32763,0.45846,0.5098,0.58984,0.57059
13.096,0.32029,0.45943,0.4902,0.57031,0.5902
13.104,0.31296,0.46139,0.4451,0.55078,0.62549
13.112,0.30807,0.46237,0.40392,0.54492,0.6549
13.12,0.30073,0.46432,0.37059,0.53516,0.68039
13.128,0.2934,0.4653,0.3549,0.5293,0.69608
13.136,0.28851,0.46628,0.37059,0.53516,0.6902
13.144,0.28117,0.4653,0.3451,0.51953,0.6902
13.152,0.27628,0.46334,0.34902,0.52539,0.68627
13.16,0.26895,0.46237,0.3451,0.52539,0.6902
13.168,0.26406,0.46041,0.34902,0.51953,0.68627
13.176,0.25672,0.45943,0.36471,0.52539,0.66471
13.184,0.24939,0.45846,0.37059,0.5293,0.67059
13.192,0.24205,0.45846,0.36471,0.52539,0.67647
13.2,0.23716,0.46041,0.52941,0.59961,0.5902
13.208,0.22983,0.46334,0.62549,0.57031,0.55098
13.216,0.22494,0.46921,0.72549,0.44922,0.48431
13.224,0.2176,0.47703,0.76667,0.33008,0.43529
13.232,0.21271,0.48583,0.32941,0.29492,0.7902
13.24,0.20538,0.49462,0.058824,0.35547,1.0059
13.248,0.20049,0.50342,-0.0019608,0.38477,1.0412
13.256,0.19315,0.51124,0.084314,0.44531,0.93725
13.264,0.18582,0.51711,0.18431,0.48438,0.8
13.272,0.17848,0.52102,0.26863,0.53516,0.71569
13.28,0.17115,0.52297,0.31373,0.56055,0.6902
13.288,0.16381,0.52199,0.34902,0.57031,0.66078
13.296,0.15892,0.51906,0.36471,0.57031,0.6451
13.304,0.15159,0.51515,0.37059,0.58398,0.6451
13.312,0.14425,0.51026,0.39412,0.5957,0.62941
13.32,0.13692,0.50342,0.4,0.58398,0.61961
13.328,0.12958,0.48583,0.3902,0.58984,0.61961
13.336,0.12225,0.46432,0.4098,0.58984,0.59608
13.344,0.11247,0.4477,0.41569,0.5957,0.5902
13.352,0.10513,0.435,0.42549,0.60547,0.57451
13.36,0.0978,0.42424,0.42941,0.61523,0.56078
13.368,0.090465,0.41447,0.46078,0.61523,0.51569
13.376,0.08313,0.40567,0.4902,0.64062,0.47451
13.384,0.075795,0.39883,0.51569,0.6543,0.4549
13.392,0.06846,0.39296,0.5451,0.65039,0.41569
13.4,0.061125,0.3871,0.58039,0.67969,0.37451
13.408,0.056235,0.38319,0.57059,0.68555,0.39412
13.416,0.0489,0.38025,0.56471,0.68945,0.3902
13.424,0.041565,0.3783,0.58431,0.68555,0.4
13.432,0.036675,0.37732,0.57059,0.67578,0.42549
13.44,0.02934,0.37928,0.53922,0.65039,0.46471
13.448,0.02445,0.38123,0.48039,0.62891,0.52941
13.456,0.022005,0.38416,0.46078,0.61523,0.56471
13.464,0.01467,0.3871,0.41569,0.60938,0.6
13.472,0.00978,0.39003,0.38039,0.58398,0.63529
13.48,0.00489,0.39296,0.37059,0.57031,0.65098
13.488,0,0.39589,0.35882,0.57031,0.66078
13.496,-0.007335,0.39785,0.34902,0.57422,0.66471
13.504,-0.012225,0.3998,0.34902,0.57031,0.66471
13.512,-0.01956,0.40078,0.36471,0.57422,0.66078
13.52,-0.026895,0.40176,0.37059,0.58008,0.65098
13.528,-0.031785,0.40176,0.4098,0.5957,0.61569
13.536,-0.03912,0.40274,0.42941,0.60547,0.59608
13.544,-0.04401,0.40274,0.44902,0.625,0.59608
13.552,-0.051345,0.40274,0.47451,0.63477,0.5902
13.56,-0.05868,0.40274,0.48431,0.625,0.58431
13.568,-0.066015,0.40176,0.47451,0.62891,0.5902
13.576,-0.07335,0.40176,0.48039,0.61914,0.6
13.584,-0.080685,0.40176,0.44902,0.59961,0.59608
13.592,-0.085575,0.40078,0.40392,0.58398,0.62941
13.6,-0.09291,0.40078,0.3451,0.56055,0.68627
13.608,-0.0978,0.39883,0.31373,0.55469,0.7
13.616,-0.10269,0.39687,0.30392,0.56055,0.6902
13.624,-0.10758,0.39492,0.2902,0.54492,0.72549
13.632,-0.11002,0.39296,0.27451,0.54492,0.73529
13.64,-0.11491,0.39003,0.26863,0.53516,0.73529
13.648,-0.11736,0.3871,0.27451,0.53906,0.72549
13.656,-0.1198,0.38416,0.2902,0.54492,0.7098
13.664,-0.1198,0.38221,0.27451,0.53906,0.72157
13.672,-0.12225,0.38025,0.3,0.55078,0.71569
13.68,-0.12225,0.37928,0.33529,0.56445,0.6902
13.688,-0.12225,0.37928,0.4549,0.62891,0.63529
13.696,-0.12225,0.38025,0.53529,0.63477,0.60588
13.704,-0.12225,0.38221,0.63529,0.49414,0.5549
13.712,-0.12225,0.38807,0.74118,0.38086,0.43529
13.72,-0.12225,0.3998,0.39412,0.33594,0.73137
13.728,-0.12225,0.4174,0.062745,0.38477,0.99608
13.736,-0.12225,0.43988,-0.027451,0.41016,1.0608
13.744,-0.12225,0.46725,0.052941,0.46484,0.95686
13.752,-0.12225,0.49756,0.14314,0.50977,0.83137
13.76,-0.12225,0.52884,0.23922,0.55078,0.73529
13.768,-0.12225,0.55718,0.29412,0.57031,0.6902
13.776,-0.12225,0.5826,0.31373,0.57422,0.66471
13.784,-0.12225,0.60215,0.3098,0.56445,0.66471
13.792,-0.12225,0.61486,0.34902,0.56055,0.65098
13.8,-0.12469,0.62463,0.3451,0.57031,0.65098
13.808,-0.12714,0.63148,0.3451,0.55078,0.64118
13.816,-0.12958,0.63441,0.35882,0.56055,0.63529
13.824,-0.12958,0.63441,0.38039,0.57031,0.6098
13.832,-0.13203,0.63148,0.41961,0.57422,0.57451
13.84,-0.13447,0.62659,0.4098,0.57031,0.58039
13.848,-0.13692,0.61975,0.42941,0.58398,0.5451
13.856,-0.13692,0.61095,0.46471,0.5957,0.50588
13.864,-0.13936,0.60117,0.50588,0.61523,0.47059
13.872,-0.14181,0.59042,0.52549,0.62891,0.43922
13.88,-0.14425,0.58065,0.58039,0.6543,0.3902
13.888,-0.14425,0.57087,0.59608,0.6543,0.38431
13.896,-0.1467,0.56012,0.61961,0.65039,0.38039
13.904,-0.14914,0.54839,0.6,0.6543,0.3902
13.912,-0.15159,0.53666,0.57059,0.61523,0.4451
13.92,-0.15159,0.52493,0.52549,0.59961,0.49412
13.928,-0.15403,0.51515,0.48431,0.56445,0.53922
13.936,-0.15648,0.50538,0.44902,0.55078,0.58039
13.944,-0.15892,0.4956,0.40392,0.5293,0.61961
13.952,-0.15892,0.48778,0.37059,0.5,0.66078
13.96,-0.16137,0.48192,0.3549,0.50586,0.67647
13.968,-0.16381,0.47703,0.3098,0.47461,0.69608
13.976,-0.16626,0.47214,0.3,0.47461,0.71569
13.984,-0.16626,0.46921,0.3098,0.47461,0.7098
13.992,-0.1687,0.46823,0.33529,0.49414,0.70588
14,-0.17115,0.46823,0.31961,0.49414,0.71569
14.008,-0.17359,0.46921,0.33922,0.50586,0.67647
14.016,-0.17359,0.47116,0.37059,0.51953,0.6549
14.024,-0.17604,0.4741,0.4,0.5293,0.64118
14.032,-0.17604,0.47605,0.43922,0.54492,0.6098
14.04,-0.18093,0.47703,0.43529,0.53906,0.61961
14.048,-0.18337,0.47801,0.4549,0.54492,0.60588
14.056,-0.18582,0.47801,0.43529,0.50586,0.62941
14.064,-0.18826,0.47801,0.43922,0.5,0.64118
14.072,-0.19071,0.47703,0.36471,0.49414,0.67647
14.08,-0.19315,0.47605,0.31961,0.47461,0.71569
14.088,-0.1956,0.4741,0.3,0.46484,0.72157
14.096,-0.19804,0.47214,0.26863,0.4707,0.7549
14.104,-0.20049,0.46921,0.27451,0.47461,0.7451
14.112,-0.20293,0.4653,0.26863,0.45508,0.73529
14.12,-0.20293,0.46139,0.25882,0.4707,0.7451
14.128,-0.20293,0.45846,0.27451,0.47461,0.73529
14.136,-0.20293,0.45455,0.2549,0.4707,0.75098
14.144,-0.20293,0.45064,0.27451,0.46484,0.7451
14.152,-0.20293,0.44575,0.3098,0.48438,0.75098
14.16,-0.20049,0.44184,0.33529,0.5,0.72157
14.168,-0.20049,0.43695,0.48039,0.55078,0.64118
14.176,-0.19804,0.43304,0.5451,0.50586,0.61569
14.184,-0.1956,0.43109,0.65098,0.38086,0.53922
14.192,-0.19315,0.43011,0.71569,0.29102,0.46471
14.2,-0.19071,0.43011,0.33529,0.26953,0.8
14.208,-0.18826,0.43206,0.062745,0.33984,1.0373
14.216,-0.18582,0.43695,0.0039216,0.37109,1.0863
14.224,-0.18093,0.4477,0.07451,0.41016,0.96078
14.232,-0.17848,0.46334,0.18431,0.44531,0.82157
14.24,-0.17604,0.48387,0.27843,0.49414,0.72549
14.248,-0.17359,0.50635,0.3098,0.50977,0.7
14.256,-0.1687,0.52981,0.32941,0.51953,0.68627
14.264,-0.16626,0.5523,0.34902,0.5293,0.66471
14.272,-0.16381,0.57283,0.35882,0.5293,0.65098
14.28,-0.16381,0.58847,0.36471,0.52539,0.6451
14.288,-0.16381,0.59922,0.37451,0.53516,0.6451
14.296,-0.16381,0.60899,0.36471,0.54492,0.6451
14.304,-0.16137,0.61486,0.4,0.55469,0.6098
14.312,-0.16137,0.61681,0.41569,0.54492,0.58431
14.32,-0.16137,0.61681,0.42549,0.55469,0.58039
14.328,-0.16381,0.61388,0.43922,0.57422,0.56078
14.336,-0.16381,0.60899,0.48039,0.58984,0.5098
14.344,-0.16381,0.60215,0.52941,0.61914,0.4549
14.352,-0.16381,0.59433,0.56078,0.63477,0.41961
14.36,-0.16626,0.58553,0.5902,0.63477,0.38039
14.368,-0.16626,0.57674,0.62549,0.64062,0.35882
14.376,-0.16626,0.56696,0.62941,0.64453,0.35882
14.384,-0.1687,0.55816,0.61961,0.62891,0.37451
14.392,-0.1687,0.54741,0.59608,0.61914,0.4098
14.4,-0.17115,0.5347,0.57059,0.5957,0.4549
14.408,-0.17115,0.52297,0.49412,0.57422,0.53529
14.416,-0.17359,0.51124,0.43922,0.56055,0.6
14.424,-0.17359,0.50049,0.39412,0.53906,0.63529
14.432,-0.17604,0.49071,0.37059,0.51953,0.66078
14.44,-0.17604,0.48192,0.33529,0.50977,0.68039
14.448,-0.17848,0.47507,0.31373,0.5,0.7098
14.456,-0.17848,0.47019,0.29412,0.5,0.72157
14.464,-0.18093,0.46628,0.31961,0.49414,0.7
14.472,-0.18093,0.4653,0.33529,0.49414,0.68627
14.48,-0.18337,0.4653,0.3451,0.51953,0.68039
14.488,-0.18337,0.46628,0.37059,0.53516,0.6549
14.496,-0.18582,0.47019,0.39412,0.53906,0.63529
14.504,-0.18826,0.47312,0.41961,0.55469,0.63529
14.512,-0.18826,0.47605,0.46471,0.57031,0.61569
14.52,-0.19071,0.47703,0.4451,0.55078,0.62941
14.528,-0.19315,0.47801,0.44902,0.55078,0.62549
14.536,-0.1956,0.47801,0.43922,0.54492,0.61961
14.544,-0.1956,0.47801,0.4,0.51953,0.64118
14.552,-0.19804,0.47801,0.34902,0.5,0.6902
14.56,-0.20049,0.47801,0.31961,0.50586,0.7098
14.568,-0.20293,0.47801,0.3,0.49414,0.72549
14.576,-0.20293,0.47703,0.3,0.50586,0.72157
14.584,-0.20538,0.47703,0.28431,0.48438,0.7451
14.592,-0.20538,0.47507,0.27451,0.48438,0.74118
14.6,-0.20538,0.47214,0.2451,0.49023,0.76078
14.608,-0.20538,0.46921,0.27451,0.49414,0.77059
14.616,-0.20538,0.46432,0.30392,0.49023,0.71569
14.624,-0.20538,0.46041,0.3,0.5,0.71569
14.632,-0.20293,0.45552,0.31373,0.5,0.72157
14.64,-0.20293,0.45064,0.38431,0.54492,0.68039
14.648,-0.20049,0.44673,0.5,0.58008,0.62941
14.656,-0.19804,0.44282,0.57059,0.51562,0.61569
14.664,-0.19804,0.43988,0.68627,0.38477,0.5098
14.672,-0.1956,0.43793,0.7451,0.34961,0.4549
14.68,-0.19315,0.43793,0.21373,0.33594,0.91176
14.688,-0.19071,0.44086,0.043137,0.41016,1.0569
14.696,-0.18826,0.44868,0.039216,0.46094,1.0157
14.704,-0.18582,0.46139,0.13922,0.47461,0.90588
14.712,-0.18337,0.47898,0.24902,0.50977,0.76667
14.72,-0.18093,0.50049,0.31961,0.54492,0.69608
14.728,-0.17848,0.52493,0.35882,0.55078,0.66471
14.736,-0.17604,0.54839,0.37451,0.56055,0.6549
14.744,-0.17604,0.57087,0.36471,0.55469,0.63529
14.752,-0.17604,0.58944,0.38431,0.57031,0.6451
14.76,-0.17604,0.60411,0.3902,0.56445,0.62941
14.768,-0.17359,0.61486,0.4,0.56445,0.61961
14.776,-0.17359,0.61975,0.40392,0.57031,0.60588
14.784,-0.17359,0.62072,0.41961,0.58398,0.5902
14.792,-0.17604,0.62072,0.44902,0.5957,0.56471
14.8,-0.17604,0.61779,0.48039,0.59961,0.53922
14.808,-0.17604,0.61388,0.51961,0.61523,0.50588
14.816,-0.17604,0.60802,0.5549,0.625,0.46471
14.824,-0.17848,0.60117,0.6,0.64062,0.41569
14.832,-0.17848,0.59238,0.65098,0.66406,0.35882
14.84,-0.17848,0.5826,0.67059,0.66406,0.33529
14.848,-0.17848,0.57283,0.69608,0.66406,0.31373
14.856,-0.17848,0.56207,0.7,0.67578,0.33529
14.864,-0.17848,0.55132,0.6549,0.65039,0.38039
14.872,-0.17848,0.53959,0.6098,0.62891,0.43529
14.88,-0.17848,0.53079,0.56078,0.60938,0.4902
14.888,-0.17848,0.52102,0.49412,0.58008,0.55098
14.896,-0.17848,0.51124,0.46078,0.55469,0.5902
14.904,-0.17848,0.50147,0.39412,0.51953,0.63529
14.912,-0.17848,0.49169,0.3549,0.49414,0.67059
14.92,-0.17848,0.48387,0.32353,0.47461,0.7
14.928,-0.18093,0.47801,0.3,0.44922,0.72157
14.936,-0.18093,0.47312,0.28431,0.42578,0.73137
14.944,-0.18093,0.47019,0.27843,0.41992,0.72549
14.952,-0.18093,0.47019,0.3,0.41016,0.70588
14.96,-0.18337,0.47116,0.3098,0.4043,0.7
14.968,-0.18337,0.4741,0.31961,0.4043,0.70588
14.976,-0.18337,0.47605,0.35882,0.40039,0.67059
14.984,-0.18337,0.47801,0.40392,0.4043,0.6451
14.992,-0.18337,0.47996,0.4098,0.38086,0.65098
15,-0.18337,0.47996,0.41569,0.35938,0.6451
15.008,-0.18582,0.48094,0.4098,0.33594,0.6451
15.016,-0.18582,0.48094,0.3902,0.30078,0.66471
15.024,-0.18826,0.48094,0.3451,0.25977,0.69608
15.032,-0.18826,0.48094,0.27451,0.22461,0.75098
15.04,-0.18826,0.47996,0.25882,0.20117,0.76078
15.048,-0.19071,0.47898,0.26863,0.17578,0.7549
15.056,-0.19071,0.47703,0.22941,0.16016,0.7902
15.064,-0.18826,0.4741,0.22353,0.15625,0.7902
15.072,-0.18826,0.47019,0.25882,0.14453,0.77059
15.08,-0.18582,0.46725,0.29412,0.16602,0.75098
15.088,-0.18337,0.46432,0.27451,0.16016,0.76078
15.096,-0.17848,0.46237,0.27843,0.18555,0.77059
15.104,-0.17359,0.45943,0.2902,0.20508,0.76078
15.112,-0.16626,0.4565,0.36471,0.25586,0.72157
15.12,-0.15892,0.45259,0.46078,0.32422,0.66471
15.128,-0.15159,0.4477,0.5098,0.33594,0.6451
15.136,-0.14425,0.44379,0.56471,0.30078,0.65098
15.144,-0.13447,0.44086,0.65098,0.22461,0.56078
15.152,-0.12714,0.43891,0.4549,0.2793,0.77647
15.16,-0.11491,0.43793,0.12941,0.3457,1.051
15.168,-0.10269,0.44086,0.04902,0.41992,1.0922
15.176,-0.090465,0.44673,0.078431,0.43945,1.0059
15.184,-0.075795,0.4565,0.18824,0.47461,0.88039
15.192,-0.06357,0.47214,0.30392,0.52539,0.7451
15.2,-0.0489,0.49169,0.3451,0.55469,0.7098
15.208,-0.036675,0.51417,0.36471,0.58398,0.69608
15.216,-0.02445,0.53861,0.4098,0.59961,0.66471
15.224,-0.012225,0.56109,0.43922,0.61914,0.6451
15.232,0,0.58162,0.4451,0.625,0.6451
15.24,0.00978,0.59922,0.42549,0.625,0.6451
15.248,0.022005,0.61095,0.4451,0.63477,0.61961
15.256,0.031785,0.61779,0.4902,0.66016,0.58431
15.264,0.04401,0.62072,0.48431,0.66406,0.58039
15.272,0.051345,0.61975,0.4902,0.66406,0.57059
15.28,0.061125,0.61584,0.50588,0.66992,0.55098
15.288,0.066015,0.60997,0.53529,0.66406,0.5098
15.296,0.07335,0.60313,0.59608,0.68555,0.43922
15.304,0.07824,0.59335,0.62549,0.70508,0.4
15.312,0.085575,0.58358,0.62549,0.70898,0.39412
15.32,0.090465,0.57283,0.6549,0.72461,0.38431
15.328,0.0978,0.56207,0.67647,0.73047,0.37451
15.336,0.10513,0.54936,0.68627,0.73438,0.38039
15.344,0.11247,0.53666,0.67059,0.73438,0.40392
15.352,0.1198,0.52493,0.6549,0.73047,0.43922
15.36,0.12714,0.51124,0.6,0.7207,0.50588
15.368,0.13447,0.49756,0.56471,0.70508,0.55098
15.376,0.14425,0.48583,0.52941,0.69531,0.58431
15.384,0.15403,0.4741,0.52549,0.69922,0.60588
15.392,0.16626,0.46334,0.4902,0.68555,0.62549
15.4,0.18337,0.45455,0.46471,0.68555,0.6451
15.408,0.19804,0.4477,0.44902,0.68555,0.67647
15.416,0.2176,0.44184,0.4451,0.68555,0.68627
15.424,0.23716,0.43695,0.47451,0.68555,0.6451
15.432,0.25672,0.43402,0.48431,0.68555,0.62941
15.44,0.27873,0.43304,0.5098,0.69922,0.61569
15.448,0.29829,0.43304,0.53529,0.71484,0.59608
15.456,0.32029,0.435,0.56471,0.73438,0.57059
15.464,0.33985,0.43891,0.56078,0.74414,0.58431
15.472,0.35941,0.44184,0.6,0.75391,0.56471
15.48,0.38142,0.44379,0.62549,0.75391,0.5451
15.488,0.40587,0.44575,0.61961,0.74023,0.56471
15.496,0.43032,0.4477,0.6,0.72461,0.56078
15.504,0.45477,0.44868,0.56078,0.69922,0.5902
15.512,0.47677,0.44966,0.52941,0.66992,0.6098
15.52,0.50122,0.44966,0.47059,0.6543,0.65098
15.528,0.52323,0.44868,0.46471,0.64062,0.65098
15.536,0.54523,0.4477,0.44902,0.64062,0.67647
15.544,0.56724,0.44575,0.4549,0.64453,0.68039
15.552,0.58924,0.44184,0.46078,0.63477,0.66471
15.56,0.61369,0.43793,0.43922,0.63477,0.67647
15.568,0.63814,0.43402,0.42549,0.64062,0.6902
15.576,0.66259,0.43109,0.42549,0.64062,0.68627
15.584,0.68704,0.42815,0.46078,0.64453,0.6549
15.592,0.71149,0.42522,0.46471,0.65039,0.65098
15.6,0.73594,0.42229,0.4549,0.64453,0.67059
15.608,0.75795,0.41935,0.5549,0.67969,0.6
15.616,0.77751,0.41642,0.61569,0.61914,0.57451
15.624,0.79707,0.41349,0.70588,0.50977,0.51569
15.632,0.81663,0.41056,0.73529,0.43945,0.48431
15.64,0.83619,0.40762,0.3451,0.45508,0.85686
15.648,0.85575,0.40567,0.16863,0.51562,0.98627
15.656,0.87286,0.40567,0.13333,0.53906,0.99608
15.664,0.89242,0.4086,0.18824,0.51953,0.90588
15.672,0.90709,0.41447,0.3,0.55078,0.77647
15.68,0.92421,0.42229,0.38039,0.58984,0.71569
15.688,0.93643,0.43304,0.44902,0.61523,0.64118
15.696,0.9511,0.44868,0.4902,0.64062,0.60588
15.704,0.96333,0.46628,0.5098,0.65039,0.5902
15.712,0.978,0.4868,0.5098,0.6543,0.59608
15.72,0.99022,0.50635,0.50588,0.66992,0.6
15.728,1.0024,0.5259,0.52549,0.68555,0.58431
15.736,1.0147,0.54252,0.51961,0.68555,0.5902
15.744,1.0269,0.55523,0.53529,0.68555,0.5549
15.752,1.0391,0.56403,0.5451,0.69922,0.53922
15.76,1.0513,0.56989,0.58431,0.70898,0.49412
15.768,1.0587,0.57185,0.5902,0.70898,0.4902
15.776,1.0685,0.57087,0.58039,0.71484,0.48039
15.784,1.0782,0.56794,0.60588,0.71484,0.4451
15.792,1.0856,0.56305,0.65098,0.73438,0.4
15.8,1.0905,0.55621,0.68039,0.75,0.37451
15.808,1.0978,0.54741,0.72157,0.75977,0.33922
15.816,1.1027,0.53666,0.70588,0.75977,0.37059
15.824,1.11,0.5259,0.69608,0.75391,0.38431
15.832,1.1125,0.51417,0.69608,0.74414,0.4
15.84,1.1174,0.50342,0.66471,0.73438,0.43922
15.848,1.1198,0.49267,0.61569,0.7207,0.5
15.856,1.1247,0.48289,0.5549,0.69531,0.5549
15.864,1.1247,0.47312,0.5098,0.68555,0.6
15.872,1.1271,0.46432,0.50588,0.67969,0.6098
15.88,1.1247,0.4565,0.48039,0.67969,0.65098
15.888,1.1247,0.45064,0.47059,0.67578,0.66471
15.896,1.1247,0.44477,0.46471,0.66992,0.65098
15.904,1.1222,0.43988,0.48431,0.66406,0.62549
15.912,1.1198,0.43695,0.49412,0.66406,0.61569
15.92,1.1149,0.43402,0.4902,0.67969,0.62941
15.928,1.1125,0.43402,0.52941,0.68945,0.59608
15.936,1.1076,0.43402,0.57451,0.70508,0.56471
15.944,1.1027,0.435,0.6098,0.70898,0.5451
15.952,1.0978,0.43695,0.65098,0.71484,0.51961
15.96,1.0905,0.43891,0.62549,0.70508,0.5451
15.968,1.0856,0.44184,0.63529,0.69922,0.55098
15.976,1.0758,0.44379,0.64118,0.68555,0.53529
15.984,1.0685,0.44575,0.6,0.66406,0.56471
15.992,1.0611,0.4477,0.5549,0.64062,0.57059
16,1.0562,0.44868,0.5,0.625,0.62549
16.008,1.0489,0.45064,0.47451,0.61523,0.6451
16.016,1.0416,0.45161,0.48039,0.61523,0.64118
16.024,1.0342,0.45064,0.4451,0.61523,0.67059
16.032,1.0293,0.44966,0.4549,0.61523,0.66471
16.04,1.022,0.4477,0.46078,0.60938,0.65098
16.048,1.0147,0.44575,0.4451,0.61523,0.67059
16.056,1.0073,0.44379,0.46078,0.61523,0.66078
16.064,1.0024,0.44184,0.46471,0.61523,0.6451
16.072,0.99511,0.44086,0.49412,0.61914,0.61961
16.08,0.99022,0.43891,0.56471,0.66406,0.5902
16.088,0.98533,0.43793,0.66471,0.67969,0.53529
16.096,0.98044,0.435,0.75098,0.58398,0.49412
16.104,0.97555,0.43109,0.83529,0.44922,0.4
16.112,0.97066,0.42815,0.6549,0.375,0.5549
16.12,0.96822,0.42424,0.26863,0.39453,0.88627
16.128,0.96333,0.42131,0.14314,0.48047,0.98627
16.136,0.95844,0.41935,0.12353,0.51953,0.99608
16.144,0.95355,0.42131,0.25882,0.56445,0.82157
16.152,0.94866,0.42717,0.37451,0.60938,0.70588
16.16,0.94377,0.43695,0.44902,0.64453,0.6451
16.168,0.93888,0.45161,0.48431,0.67578,0.62941
16.176,0.93154,0.46725,0.5098,0.66992,0.59608
16.184,0.92665,0.48289,0.53922,0.68555,0.56471
16.192,0.91932,0.50244,0.56078,0.69922,0.55098
16.2,0.91198,0.52297,0.57451,0.70508,0.5451
16.208,0.90465,0.54252,0.5902,0.70898,0.52549
16.216,0.89731,0.55914,0.59608,0.71484,0.51961
16.224,0.88753,0.57283,0.60588,0.7207,0.51569
16.232,0.8802,0.58162,0.6098,0.71484,0.5
16.24,0.87042,0.58749,0.60588,0.70898,0.5
16.248,0.86308,0.58944,0.64118,0.7207,0.46078
16.256,0.8533,0.58847,0.65098,0.73047,0.43529
16.264,0.84597,0.58456,0.68627,0.73438,0.3902
16.272,0.83863,0.57967,0.72549,0.74414,0.3451
16.28,0.8313,0.5738,0.75098,0.75391,0.31373
16.288,0.82396,0.56598,0.76078,0.75391,0.3098
16.296,0.81663,0.55718,0.77059,0.75977,0.32353
16.304,0.80929,0.54643,0.75098,0.75,0.35882
16.312,0.80196,0.53568,0.74118,0.73047,0.38039
16.32,0.79462,0.52297,0.6902,0.70898,0.42941
16.328,0.78729,0.51124,0.62941,0.68555,0.5
16.336,0.77995,0.49951,0.5902,0.66992,0.53922
16.344,0.77262,0.48876,0.5549,0.65039,0.56078
16.352,0.76773,0.47801,0.52941,0.64062,0.59608
16.36,0.75795,0.46823,0.5098,0.62891,0.61961
16.368,0.75061,0.45943,0.48039,0.61523,0.63529
16.376,0.74083,0.45259,0.49412,0.60938,0.61961
16.384,0.73105,0.44868,0.4902,0.61523,0.61569
16.392,0.72127,0.44477,0.50588,0.63477,0.62941
16.4,0.70905,0.44282,0.52941,0.64453,0.5902
16.408,0.69927,0.44282,0.55098,0.65039,0.56471
16.416,0.68949,0.44282,0.6098,0.66406,0.52941
16.424,0.67971,0.44379,0.6098,0.67578,0.5451
16.432,0.66993,0.44477,0.60588,0.64453,0.53922
16.44,0.66015,0.44673,0.60588,0.64062,0.55098
16.448,0.65037,0.4477,0.6098,0.62891,0.5451
16.456,0.63814,0.44966,0.56078,0.60938,0.56078
16.464,0.62592,0.45064,0.51569,0.58984,0.5902
16.472,0.61369,0.45259,0.47059,0.58008,0.62549
16.48,0.60147,0.45357,0.4451,0.57422,0.61961
16.488,0.59169,0.45357,0.41569,0.56445,0.67059
16.496,0.58191,0.45259,0.41569,0.56055,0.66471
16.504,0.57213,0.45161,0.40392,0.56055,0.67647
16.512,0.56235,0.45064,0.4,0.56445,0.68039
16.52,0.55257,0.44868,0.39412,0.56445,0.67647
16.528,0.54279,0.4477,0.3902,0.55078,0.68627
16.536,0.53545,0.44575,0.4,0.56055,0.68039
16.544,0.53056,0.44282,0.42549,0.56445,0.66471
16.552,0.52323,0.43988,0.5,0.60547,0.61961
16.56,0.51834,0.435,0.67059,0.64062,0.51961
16.568,0.51345,0.43011,0.7549,0.55469,0.47451
16.576,0.50856,0.4262,0.85098,0.4043,0.38431
16.584,0.50367,0.42326,0.6902,0.30469,0.5
16.592,0.50122,0.42131,0.28431,0.29492,0.84118
16.6,0.49878,0.41935,0.084314,0.38086,0.99608
16.608,0.49389,0.42131,0.058824,0.42969,1.0118
16.616,0.49144,0.42717,0.18824,0.49414,0.85098
16.624,0.489,0.43891,0.29412,0.53906,0.75098
16.632,0.48655,0.45455,0.35882,0.57422,0.6902
16.64,0.48411,0.47507,0.41569,0.5957,0.63529
16.648,0.48166,0.49853,0.42549,0.59961,0.63529
16.656,0.47922,0.52395,0.43922,0.60547,0.61961
16.664,0.47677,0.54839,0.4451,0.60547,0.60588
16.672,0.47433,0.56794,0.46078,0.60938,0.59608
16.68,0.47188,0.5826,0.46078,0.61523,0.59608
16.688,0.46944,0.59629,0.48431,0.62891,0.57059
16.696,0.46455,0.60704,0.47451,0.64062,0.57059
16.704,0.4621,0.6129,0.48431,0.64062,0.5549
16.712,0.45721,0.61584,0.52549,0.66016,0.51961
16.72,0.45477,0.61584,0.55098,0.67578,0.48431
16.728,0.44988,0.6129,0.6,0.70898,0.4451
16.736,0.44499,0.60997,0.68627,0.75,0.37059
16.744,0.4401,0.60411,0.7549,0.78516,0.3
16.752,0.43521,0.59726,0.80588,0.80469,0.24902
16.76,0.43032,0.58944,0.81569,0.79492,0.2451
16.768,0.42543,0.58065,0.7451,0.76953,0.30392
16.776,0.42054,0.57185,0.66471,0.73438,0.37451
16.784,0.4132,0.56305,0.62549,0.70898,0.42549
16.792,0.40831,0.55327,0.55098,0.68555,0.5098
16.8,0.40342,0.54154,0.5098,0.6543,0.55098
16.808,0.39853,0.52981,0.43922,0.61914,0.61961
16.816,0.3912,0.51711,0.38039,0.57422,0.66078
16.824,0.38631,0.50635,0.33529,0.53906,0.68627
16.832,0.37897,0.49658,0.27843,0.50977,0.73137
16.84,0.37164,0.4868,0.26863,0.50586,0.74118
16.848,0.36675,0.47898,0.27451,0.51953,0.7451
16.856,0.35697,0.47312,0.27451,0.51562,0.73529
16.864,0.34963,0.46823,0.29412,0.51953,0.72157
16.872,0.33985,0.4653,0.30392,0.51953,0.70588
16.88,0.33007,0.46432,0.31373,0.51953,0.7
16.888,0.32274,0.46334,0.30392,0.52539,0.71569
16.896,0.31296,0.46334,0.31373,0.53516,0.71569
16.904,0.30318,0.46432,0.3098,0.51953,0.71569
16.912,0.2934,0.4653,0.32353,0.51953,0.7098
16.92,0.28362,0.46725,0.40392,0.57422,0.66471
16.928,0.27384,0.46823,0.48039,0.5957,0.64118
16.936,0.26406,0.47019,0.46471,0.41602,0.68039
16.944,0.25428,0.47019,0.49412,0.25,0.66078
16.952,0.2445,0.47019,0.32941,0.2207,0.77647
16.96,0.23472,0.46921,0.033333,0.29492,1.0275
16.968,0.22494,0.46823,-0.082353,0.33594,1.0961
16.976,0.2176,0.46725,0.039216,0.41992,0.97059
16.984,0.21027,0.4653,0.15882,0.47461,0.83137
16.992,0.20049,0.46334,0.26471,0.53516,0.74118
17,0.19315,0.45943,0.32941,0.56055,0.6902
17.008,0.18582,0.45552,0.3549,0.57031,0.67647
17.016,0.18093,0.45161,0.38431,0.57031,0.64118
17.024,0.17359,0.4477,0.4,0.57422,0.62941
17.032,0.1687,0.44282,0.4098,0.58008,0.61961
17.04,0.16381,0.43891,0.41569,0.5957,0.6098
17.048,0.15892,0.43402,0.42549,0.5957,0.5902
17.056,0.15403,0.43011,0.41961,0.5957,0.58431
17.064,0.14914,0.42815,0.41569,0.60547,0.5902
17.072,0.14425,0.42717,0.4451,0.60547,0.5549
17.08,0.13936,0.42815,0.46471,0.61523,0.52549
17.088,0.13447,0.43304,0.5,0.62891,0.48431
17.096,0.12958,0.44477,0.5451,0.6543,0.43922
17.104,0.12469,0.46139,0.60588,0.66992,0.38431
17.112,0.1198,0.48192,0.64118,0.67969,0.35882
17.12,0.11491,0.50635,0.66078,0.67578,0.34902
17.128,0.11002,0.53177,0.68039,0.68945,0.33922
17.136,0.10513,0.55621,0.66078,0.66992,0.37451
17.144,0.0978,0.57771,0.61569,0.65039,0.42941
17.152,0.09291,0.59531,0.56078,0.61523,0.4902
17.16,0.08313,0.60802,0.51569,0.5957,0.53529
17.168,0.075795,0.61584,0.47059,0.58398,0.58039
17.176,0.06846,0.62072,0.43529,0.57031,0.62549
17.184,0.05868,0.6217,0.41569,0.57031,0.64118
17.192,0.0489,0.62072,0.4,0.55469,0.6451
17.2,0.036675,0.61779,0.3902,0.56055,0.66078
17.208,0.026895,0.6129,0.38431,0.56055,0.66471
17.216,0.017115,0.60802,0.3902,0.56055,0.66471
17.224,0.007335,0.60117,0.38039,0.56055,0.66471
17.232,-0.002445,0.59335,0.37451,0.54492,0.6549
17.24,-0.012225,0.58456,0.37059,0.55078,0.66471
17.248,-0.022005,0.57576,0.36471,0.54492,0.67059
17.256,-0.03423,0.56598,0.37451,0.53516,0.65098
17.264,-0.046455,0.55425,0.33922,0.53906,0.68627
17.272,-0.056235,0.5435,0.34902,0.54492,0.67647
17.28,-0.06846,0.53372,0.38039,0.55078,0.66471
17.288,-0.07824,0.52199,0.37059,0.55469,0.66471
17.296,-0.08802,0.51222,0.37059,0.55078,0.66078
17.304,-0.0978,0.50244,0.38039,0.55469,0.66471
17.312,-0.10758,0.49267,0.3902,0.57031,0.6451
17.32,-0.11736,0.48387,0.4,0.57031,0.64118
17.328,-0.12958,0.47703,0.38431,0.58398,0.6549
17.336,-0.13936,0.47116,0.4451,0.60938,0.6
17.344,-0.14914,0.46628,0.46078,0.61523,0.59608
17.352,-0.15892,0.46237,0.46471,0.61523,0.6098
17.36,-0.16626,0.45943,0.49412,0.61523,0.5902
17.368,-0.17359,0.45846,0.5,0.61523,0.57451
17.376,-0.18093,0.45943,0.48431,0.59961,0.58431
17.384,-0.18826,0.46041,0.4451,0.58398,0.6098
17.392,-0.19315,0.46237,0.4,0.57031,0.65098
17.4,-0.19804,0.4653,0.3549,0.55469,0.67647
17.408,-0.20293,0.46725,0.32353,0.54492,0.7
17.416,-0.20782,0.46921,0.31961,0.52539,0.7098
17.424,-0.21271,0.4653,0.32941,0.54492,0.68039
17.432,-0.2176,0.45748,0.31961,0.54492,0.6902
17.44,-0.22249,0.45357,0.32941,0.54492,0.69608
17.448,-0.22494,0.44966,0.33529,0.55469,0.6902
17.456,-0.22983,0.4477,0.31961,0.53906,0.6902
17.464,-0.23227,0.44575,0.31961,0.55469,0.6902
17.472,-0.23716,0.44379,0.36471,0.54492,0.66471
17.48,-0.24205,0.44379,0.44902,0.61914,0.62941
17.488,-0.24694,0.44379,0.56471,0.625,0.5549
17.496,-0.25183,0.44575,0.66471,0.5293,0.51569
17.504,-0.25672,0.45064,0.74118,0.39062,0.43922
17.512,-0.26161,0.45748,0.47451,0.32031,0.66471
17.52,-0.2665,0.46628,0.10392,0.35547,0.98235
17.528,-0.27139,0.47605,-0.031373,0.40039,1.0863
17.536,-0.27628,0.4868,0.039216,0.44922,0.98627
17.544,-0.28117,0.4956,0.13922,0.50977,0.85098
17.552,-0.28362,0.50244,0.23333,0.55469,0.75098
17.56,-0.29095,0.50635,0.30392,0.58008,0.6902
17.568,-0.29584,0.50733,0.31961,0.58984,0.67059
17.576,-0.30073,0.50635,0.33529,0.58398,0.67647
17.584,-0.30562,0.50342,0.3549,0.5957,0.65098
17.592,-0.31051,0.49951,0.37059,0.58398,0.61961
17.6,-0.3154,0.49365,0.34902,0.58984,0.6549
17.608,-0.32029,0.48485,0.3451,0.58398,0.67059
17.616,-0.32274,0.4741,0.3902,0.58008,0.6098
17.624,-0.32763,0.46334,0.4,0.58984,0.59608
17.632,-0.33007,0.45161,0.42549,0.59961,0.56471
17.64,-0.33496,0.43988,0.43922,0.60547,0.55098
17.648,-0.33741,0.42815,0.43922,0.61523,0.5451
17.656,-0.33985,0.4174,0.48039,0.60547,0.49412
17.664,-0.3423,0.40665,0.50588,0.61523,0.46471
17.672,-0.34474,0.39883,0.5451,0.62891,0.43529
17.68,-0.34719,0.39394,0.58039,0.64453,0.39412
17.688,-0.34719,0.3871,0.5902,0.64062,0.37059
17.696,-0.34719,0.38123,0.60588,0.64062,0.36471
17.704,-0.34963,0.37634,0.58431,0.63477,0.40392
17.712,-0.34963,0.37341,0.56471,0.625,0.42941
17.72,-0.34963,0.37146,0.53922,0.59961,0.47059
17.728,-0.34719,0.37243,0.5,0.58008,0.52549
17.736,-0.34719,0.37439,0.46471,0.56055,0.56078
17.744,-0.34474,0.37732,0.42549,0.55078,0.5902
17.752,-0.34474,0.38025,0.3902,0.5293,0.61961
17.76,-0.3423,0.38416,0.37451,0.51953,0.64118
17.768,-0.33985,0.38807,0.3902,0.52539,0.62941
17.776,-0.33985,0.39101,0.3451,0.51953,0.68039
17.784,-0.33741,0.39492,0.32353,0.51562,0.6902
17.792,-0.33496,0.39785,0.34902,0.5293,0.67059
17.8,-0.33496,0.3998,0.37059,0.53906,0.6549
17.808,-0.33496,0.3998,0.39412,0.56055,0.66471
17.816,-0.33496,0.3998,0.4,0.56445,0.62941
17.824,-0.33496,0.3998,0.42549,0.5957,0.61961
17.832,-0.33496,0.3998,0.4549,0.5957,0.6098
17.84,-0.33496,0.3998,0.47451,0.58398,0.59608
17.848,-0.33496,0.3998,0.46471,0.57031,0.59608
17.856,-0.33496,0.3998,0.47451,0.55078,0.5902
17.864,-0.33496,0.3998,0.41961,0.53906,0.61569
17.872,-0.33252,0.3998,0.38431,0.51953,0.65098
17.88,-0.33252,0.39883,0.33922,0.50977,0.6902
17.888,-0.33252,0.39785,0.30392,0.5,0.71569
17.896,-0.33252,0.39492,0.29412,0.5,0.7098
17.904,-0.33007,0.39198,0.28431,0.50586,0.73529
17.912,-0.33007,0.39003,0.2902,0.49414,0.73137
17.92,-0.32763,0.3871,0.25882,0.5,0.75098
17.928,-0.32518,0.38514,0.2549,0.49023,0.7451
17.936,-0.32274,0.38416,0.25882,0.48438,0.7451
17.944,-0.31785,0.38221,0.27843,0.50586,0.75098
17.952,-0.3154,0.38025,0.30392,0.51953,0.73137
17.96,-0.31051,0.37928,0.31961,0.51953,0.71569
17.968,-0.30562,0.37928,0.4451,0.58398,0.65098
17.976,-0.30073,0.37928,0.56471,0.58984,0.58431
17.984,-0.29584,0.38221,0.6549,0.46484,0.53922
17.992,-0.29095,0.3871,0.77059,0.37109,0.42549
18,-0.28362,0.39883,0.4098,0.32422,0.72157
18.008,-0.27873,0.41642,0.07451,0.37109,1.0216
18.016,-0.27384,0.44086,-0.0019608,0.41016,1.0863
18.024,-0.27139,0.47019,0.078431,0.45508,0.97059
18.032,-0.2665,0.50342,0.17843,0.49414,0.83529
18.04,-0.26406,0.53861,0.25882,0.53516,0.74118
18.048,-0.25917,0.57283,0.3098,0.56055,0.68627
18.056,-0.25917,0.60313,0.31961,0.56445,0.67647
18.064,-0.25672,0.62757,0.33529,0.56055,0.66471
18.072,-0.25428,0.64418,0.3451,0.57031,0.66471
18.08,-0.25183,0.65494,0.34902,0.58008,0.6549
18.088,-0.24939,0.66276,0.37059,0.57422,0.64118
18.096,-0.24939,0.66667,0.3549,0.58398,0.6451
18.104,-0.24694,0.66667,0.38431,0.59961,0.61961
18.112,-0.2445,0.66276,0.3902,0.59961,0.60588
18.12,-0.2445,0.65787,0.4098,0.60547,0.58039
18.128,-0.24205,0.65103,0.42549,0.60938,0.56078
18.136,-0.24205,0.64223,0.46078,0.60547,0.51569
18.144,-0.23961,0.63245,0.5098,0.62891,0.47059
18.152,-0.23961,0.6217,0.5451,0.65039,0.41961
18.16,-0.23716,0.60997,0.60588,0.67969,0.38039
18.168,-0.23716,0.59824,0.60588,0.66406,0.37451
18.176,-0.23472,0.58553,0.61961,0.66992,0.38431
18.184,-0.23472,0.57185,0.6,0.65039,0.40392
18.192,-0.23227,0.55718,0.57059,0.61914,0.4451
18.2,-0.22983,0.5435,0.5549,0.60547,0.47451
18.208,-0.22738,0.52981,0.50588,0.58398,0.52941
18.216,-0.22494,0.51808,0.46471,0.57422,0.57451
18.224,-0.22249,0.50733,0.41569,0.54492,0.61569
18.232,-0.22249,0.49756,0.35882,0.5293,0.66078
18.24,-0.22005,0.49071,0.32353,0.5293,0.70588
18.248,-0.2176,0.48485,0.31373,0.51953,0.7098
18.256,-0.21516,0.48094,0.31373,0.52539,0.70588
18.264,-0.21271,0.47898,0.3,0.51953,0.7
18.272,-0.21271,0.47898,0.28431,0.51953,0.72549
18.28,-0.21027,0.47996,0.32353,0.5293,0.69608
18.288,-0.20782,0.48094,0.3549,0.53516,0.66471
18.296,-0.20782,0.48387,0.36471,0.55078,0.67647
18.304,-0.20538,0.48583,0.41569,0.57031,0.64118
18.312,-0.20538,0.48778,0.43922,0.56055,0.61961
18.32,-0.20538,0.48974,0.43922,0.57031,0.62549
18.328,-0.20538,0.49071,0.43922,0.55469,0.63529
18.336,-0.20538,0.49169,0.46471,0.56445,0.61569
18.344,-0.20538,0.49071,0.43922,0.53516,0.61961
18.352,-0.20538,0.48876,0.38431,0.51953,0.66471
18.36,-0.20538,0.4868,0.32941,0.51953,0.7098
18.368,-0.20293,0.48387,0.2902,0.49414,0.73529
18.376,-0.20293,0.48094,0.29412,0.5,0.73529
18.384,-0.20049,0.47507,0.2902,0.5,0.73137
18.392,-0.20049,0.47019,0.27451,0.49414,0.72549
18.4,-0.19804,0.4653,0.25882,0.5,0.76078
18.408,-0.1956,0.45943,0.24902,0.48438,0.76667
18.416,-0.19315,0.45552,0.27451,0.49414,0.75098
18.424,-0.19071,0.45064,0.28431,0.50977,0.73529
18.432,-0.18582,0.44673,0.2902,0.51562,0.74118
18.44,-0.18337,0.44184,0.33922,0.5293,0.71569
18.448,-0.17848,0.43695,0.47059,0.59961,0.65098
18.456,-0.17604,0.43206,0.57059,0.55469,0.5902
18.464,-0.17115,0.42717,0.66471,0.44922,0.53529
18.472,-0.1687,0.42424,0.75098,0.35938,0.4549
18.48,-0.16381,0.42229,0.3549,0.33984,0.81176
18.488,-0.15892,0.42326,0.062745,0.39062,1.051
18.496,-0.15648,0.42815,0.013725,0.41602,1.0863
18.504,-0.15403,0.43891,0.11373,0.4707,0.93137
18.512,-0.14914,0.45357,0.20392,0.49414,0.81569
18.52,-0.1467,0.4741,0.2902,0.52539,0.72549
18.528,-0.14425,0.49756,0.32353,0.54492,0.7
18.536,-0.14181,0.52395,0.34902,0.55078,0.67059
18.544,-0.13692,0.55132,0.3451,0.55469,0.66078
18.552,-0.13692,0.57674,0.37451,0.56445,0.6451
18.56,-0.13447,0.59726,0.37059,0.57031,0.6451
18.568,-0.13447,0.61095,0.38431,0.58008,0.64118
18.576,-0.13203,0.62072,0.4,0.57422,0.61961
18.584,-0.13203,0.62659,0.40392,0.58398,0.6
18.592,-0.13203,0.6305,0.4098,0.58398,0.59608
18.6,-0.13203,0.6305,0.4549,0.59961,0.56078
18.608,-0.13203,0.62757,0.5,0.61523,0.5098
18.616,-0.13203,0.62268,0.51961,0.61523,0.4902
18.624,-0.13203,0.61486,0.57451,0.62891,0.42941
18.632,-0.13203,0.60704,0.61569,0.64453,0.3902
18.64,-0.13203,0.59726,0.6549,0.66016,0.3451
18.648,-0.13447,0.58651,0.67647,0.66406,0.32941
18.656,-0.13447,0.5738,0.67647,0.66016,0.3451
18.664,-0.13692,0.56207,0.6549,0.64453,0.37451
18.672,-0.13692,0.55132,0.63529,0.63477,0.4098
18.68,-0.13936,0.54057,0.6,0.60938,0.43922
18.688,-0.13936,0.52884,0.53922,0.57422,0.5098
18.696,-0.13936,0.51515,0.4549,0.53906,0.5902
18.704,-0.14181,0.50244,0.4098,0.51953,0.62549
18.712,-0.14181,0.49071,0.38431,0.5,0.6549
18.72,-0.14181,0.47996,0.33922,0.4707,0.68039
18.728,-0.14181,0.47116,0.31961,0.43945,0.7098
18.736,-0.14181,0.46432,0.29412,0.41602,0.71569
18.744,-0.14425,0.45943,0.27451,0.4043,0.73529
18.752,-0.14425,0.4565,0.2902,0.375,0.72157
18.76,-0.14425,0.4565,0.29412,0.36523,0.71569
18.768,-0.1467,0.45748,0.31373,0.35938,0.7
18.776,-0.1467,0.45846,0.32353,0.34961,0.6902
18.784,-0.14914,0.46139,0.36471,0.35547,0.67059
18.792,-0.14914,0.46432,0.38039,0.33008,0.66078
18.8,-0.15159,0.46725,0.4,0.31055,0.66471
18.808,-0.15159,0.47116,0.3902,0.29102,0.6451
18.816,-0.15159,0.47312,0.37451,0.26562,0.66471
18.824,-0.15403,0.4741,0.3451,0.2207,0.68039
18.832,-0.15403,0.47507,0.2902,0.19531,0.73137
18.84,-0.15403,0.4741,0.2451,0.16602,0.77059
18.848,-0.15403,0.47214,0.20392,0.12109,0.8
18.856,-0.15403,0.46921,0.2,0.11523,0.78039
18.864,-0.15403,0.4653,0.21373,0.12109,0.79608
18.872,-0.15403,0.46041,0.2,0.125,0.82157
18.88,-0.15159,0.4565,0.23922,0.125,0.78039
18.888,-0.14914,0.45259,0.2549,0.14062,0.77059
18.896,-0.1467,0.44868,0.24902,0.13477,0.76667
18.904,-0.14181,0.44477,0.2549,0.16992,0.77647
18.912,-0.13692,0.44086,0.2902,0.21094,0.7549
18.92,-0.12958,0.43695,0.35882,0.28516,0.71569
18.928,-0.12225,0.43304,0.49412,0.36523,0.6451
18.936,-0.11247,0.42815,0.5451,0.3457,0.63529
18.944,-0.10269,0.42424,0.58431,0.26562,0.6098
18.952,-0.09291,0.42229,0.60588,0.24023,0.6
18.96,-0.080685,0.42131,0.17451,0.32031,1.0118
18.968,-0.06846,0.42326,0.068627,0.42578,1.0922
18.976,-0.056235,0.43011,0.058824,0.44922,1.0471
18.984,-0.046455,0.44282,0.07451,0.44922,0.98235
18.992,-0.03423,0.46139,0.18431,0.49023,0.8451
19,-0.022005,0.48485,0.32941,0.57422,0.73137
19.008,-0.00978,0.51222,0.35882,0.58008,0.69608
19.016,0.002445,0.54057,0.37059,0.5957,0.6902
19.024,0.01467,0.56794,0.36471,0.60938,0.70588
19.032,0.02445,0.5914,0.4098,0.625,0.65098
19.04,0.03423,0.60997,0.4451,0.64062,0.61961
19.048,0.041565,0.62366,0.42941,0.62891,0.62549
19.056,0.051345,0.63245,0.41961,0.65039,0.62941
19.064,0.056235,0.63636,0.44902,0.66016,0.6
19.072,0.06357,0.63539,0.47451,0.65039,0.58431
19.08,0.066015,0.63245,0.5098,0.67969,0.55098
19.088,0.070905,0.62757,0.51569,0.66406,0.52549
19.096,0.075795,0.61975,0.5451,0.68555,0.4902
19.104,0.07824,0.61095,0.56471,0.68945,0.4549
19.112,0.07824,0.6002,0.61961,0.70898,0.41569
19.12,0.080685,0.58944,0.65098,0.7207,0.38431
19.128,0.08313,0.57674,0.67647,0.73047,0.35882
19.136,0.085575,0.56207,0.68627,0.74023,0.37451
19.144,0.085575,0.54741,0.69608,0.75,0.38431
19.152,0.08802,0.53275,0.6451,0.73438,0.44902
19.16,0.09291,0.51808,0.61569,0.72461,0.49412
19.168,0.0978,0.50635,0.57451,0.71484,0.53529
19.176,0.10513,0.49462,0.55098,0.70898,0.57059
19.184,0.11247,0.48192,0.52549,0.69922,0.61569
19.192,0.1198,0.46921,0.48431,0.69531,0.65098
19.2,0.12714,0.45748,0.46471,0.68555,0.66471
19.208,0.13692,0.44575,0.47059,0.68945,0.6549
19.216,0.1467,0.435,0.48039,0.69922,0.66078
19.224,0.15892,0.42717,0.47059,0.68555,0.66078
19.232,0.17115,0.42131,0.46471,0.69531,0.65098
19.24,0.18826,0.41838,0.52549,0.7207,0.62549
19.248,0.20538,0.4174,0.52941,0.72461,0.62941
19.256,0.22494,0.41838,0.51961,0.73047,0.61569
19.264,0.2445,0.42033,0.5549,0.74023,0.58431
19.272,0.2665,0.42229,0.61961,0.77539,0.5549
19.28,0.28851,0.42522,0.62549,0.75977,0.57059
19.288,0.30807,0.42717,0.59608,0.75,0.5902
19.296,0.32763,0.42815,0.60588,0.73047,0.57451
19.304,0.34719,0.43011,0.56471,0.71484,0.5902
19.312,0.36675,0.43109,0.53922,0.69922,0.60588
19.32,0.38875,0.43206,0.48431,0.67969,0.66078
19.328,0.40831,0.43109,0.44902,0.66406,0.68039
19.336,0.43032,0.43011,0.4549,0.66992,0.67059
19.344,0.45477,0.42815,0.41961,0.64062,0.69608
19.352,0.47433,0.42717,0.42941,0.64062,0.7
19.36,0.49633,0.42424,0.42549,0.64062,0.6902
19.368,0.51589,0.42131,0.42941,0.62891,0.69608
19.376,0.53545,0.41838,0.41961,0.63477,0.69608
19.384,0.55746,0.41447,0.43529,0.63477,0.6902
19.392,0.57946,0.40958,0.44902,0.64453,0.66078
19.4,0.60391,0.40469,0.46078,0.64062,0.66471
19.408,0.62592,0.3998,0.53529,0.68555,0.62549
19.416,0.65037,0.39492,0.61569,0.64453,0.56471
19.424,0.67237,0.39003,0.67647,0.56445,0.57451
19.432,0.69438,0.38514,0.73137,0.45508,0.4902
19.44,0.71883,0.38025,0.46471,0.44922,0.7451
19.448,0.73839,0.37732,0.21373,0.51953,0.94706
19.456,0.75795,0.37439,0.14902,0.58984,1.002
19.464,0.77751,0.37537,0.14314,0.58984,0.93725
19.472,0.79462,0.3783,0.25882,0.60547,0.82549
19.48,0.81174,0.38612,0.36471,0.6543,0.73137
19.488,0.82885,0.39589,0.4451,0.68945,0.6549
19.496,0.84597,0.40958,0.48039,0.70508,0.62549
19.504,0.86308,0.4262,0.48431,0.70898,0.62941
19.512,0.87531,0.44477,0.5098,0.70898,0.59608
19.52,0.88998,0.4653,0.52549,0.71484,0.59608
19.528,0.9022,0.48485,0.5451,0.7207,0.57451
19.536,0.91443,0.50244,0.5451,0.7207,0.57059
19.544,0.92421,0.51711,0.57059,0.73438,0.55098
19.552,0.93399,0.52884,0.56471,0.73438,0.55098
19.56,0.94377,0.53568,0.59608,0.73438,0.51961
19.568,0.95355,0.53861,0.60588,0.74023,0.5
19.576,0.96088,0.53959,0.59608,0.74414,0.49412
19.584,0.96822,0.53763,0.61569,0.74023,0.46078
19.592,0.97311,0.53372,0.6549,0.77539,0.41961
19.6,0.98044,0.52884,0.7,0.78516,0.37451
19.608,0.98533,0.52199,0.73137,0.79883,0.3451
19.616,0.99022,0.51515,0.73529,0.79883,0.34902
19.624,0.99267,0.50635,0.7451,0.80469,0.3549
19.632,0.99511,0.49756,0.73137,0.79883,0.38039
19.64,0.99511,0.48778,0.69608,0.78516,0.43529
19.648,0.99756,0.47703,0.6451,0.75391,0.4902
19.656,0.99511,0.46628,0.6,0.73438,0.53922
19.664,0.99267,0.45552,0.57451,0.72461,0.56078
19.672,0.99022,0.4477,0.53529,0.71484,0.6
19.68,0.99022,0.43988,0.52549,0.7207,0.62549
19.688,0.98533,0.43109,0.50588,0.69531,0.62941
19.696,0.98289,0.42424,0.4902,0.68945,0.64118
19.704,0.978,0.4174,0.48431,0.69531,0.6451
19.712,0.97311,0.41251,0.50588,0.68945,0.62941
19.72,0.96333,0.40958,0.52941,0.70898,0.60588
19.728,0.95599,0.40762,0.5549,0.71484,0.58039
19.736,0.94866,0.40762,0.56471,0.7207,0.58431
19.744,0.93888,0.40762,0.61961,0.73438,0.5451
19.752,0.9291,0.4086,0.63529,0.74414,0.53922
19.76,0.91687,0.41056,0.62941,0.73438,0.55098
19.768,0.90709,0.41251,0.65098,0.73438,0.52549
19.776,0.89731,0.41447,0.64118,0.7207,0.53529
19.784,0.88753,0.4174,0.6098,0.69531,0.5549
19.792,0.87775,0.41935,0.55098,0.66406,0.6
19.8,0.86797,0.42033,0.5,0.66406,0.63529
19.808,0.85575,0.42229,0.48431,0.65039,0.6451
19.816,0.84597,0.42229,0.4549,0.63477,0.66471
19.824,0.83619,0.42131,0.46078,0.625,0.66078
19.832,0.82641,0.42033,0.43922,0.625,0.67647
19.84,0.81663,0.41935,0.4549,0.64062,0.66078
19.848,0.80929,0.41838,0.46078,0.63477,0.66471
19.856,0.79951,0.41642,0.44902,0.63477,0.66471
19.864,0.79218,0.41544,0.46078,0.62891,0.6549
19.872,0.78729,0.41349,0.46078,0.63477,0.67059
19.88,0.77995,0.41056,0.5098,0.65039,0.62941
19.888,0.77262,0.40665,0.64118,0.68555,0.55098
19.896,0.76773,0.40274,0.73137,0.62891,0.5
19.904,0.76284,0.39785,0.79608,0.48438,0.44902
19.912,0.75795,0.39394,0.81569,0.37109,0.41569
19.92,0.75306,0.39101,0.3451,0.3457,0.82157
19.928,0.75061,0.38807,0.12941,0.43945,0.98627
19.936,0.74572,0.38807,0.094118,0.48438,1.0157
19.944,0.74083,0.39101,0.21373,0.54492,0.87059
19.952,0.73594,0.39785,0.32353,0.58398,0.7451
19.96,0.7335,0.4086,0.42941,0.64062,0.6549
19.968,0.72861,0.42131,0.46471,0.66016,0.64118
19.976,0.72372,0.43597,0.4902,0.67578,0.61569
19.984,0.71883,0.45552,0.4902,0.68555,0.61569
19.992,0.71638,0.47703,0.50588,0.68945,0.60588
20,0.71149,0.49951,0.52941,0.69922,0.58431
20.008,0.7066,0.52004,0.5451,0.70898,0.56471
20.016,0.70171,0.53763,0.56078,0.70898,0.5451
20.024,0.69682,0.55132,0.5902,0.71484,0.51961
20.032,0.69438,0.56012,0.58039,0.70508,0.51569
20.04,0.68704,0.56403,0.5902,0.71484,0.5098
20.048,0.68215,0.56598,0.58431,0.70898,0.49412
20.056,0.67726,0.565,0.61569,0.70898,0.46078
20.064,0.67237,0.56207,0.6451,0.7207,0.42549
20.072,0.66748,0.55816,0.6902,0.74023,0.38039
20.08,0.66015,0.55132,0.73529,0.75977,0.33922
20.088,0.65526,0.5435,0.75098,0.77539,0.32941
20.096,0.65037,0.5347,0.7451,0.76953,0.33922
20.104,0.64548,0.52493,0.7549,0.75391,0.32353
20.112,0.64059,0.51515,0.72157,0.74023,0.38431
20.12,0.6357,0.5044,0.68627,0.7207,0.42549
20.128,0.63081,0.49267,0.62549,0.68555,0.4902
20.136,0.62836,0.48192,0.57451,0.66406,0.52941
20.144,0.62347,0.47116,0.53529,0.64062,0.56471
20.152,0.62103,0.45943,0.50588,0.62891,0.6
20.16,0.61614,0.44966,0.49412,0.61523,0.61569
20.168,0.61369,0.44086,0.46078,0.60547,0.6451
20.176,0.6088,0.43402,0.44902,0.59961,0.6451
20.184,0.60636,0.42815,0.46471,0.60547,0.62941
20.192,0.60147,0.42229,0.48431,0.61523,0.60588
20.2,0.59902,0.41935,0.5098,0.625,0.5902
20.208,0.59413,0.4174,0.52549,0.63477,0.58039
20.216,0.58924,0.4174,0.56078,0.65039,0.5549
20.224,0.58435,0.4174,0.59608,0.6543,0.53529
20.232,0.57946,0.42033,0.6,0.65039,0.55098
20.24,0.57213,0.42229,0.5902,0.65039,0.56471
20.248,0.56724,0.42522,0.59608,0.61523,0.5451
20.256,0.5599,0.42815,0.5549,0.5957,0.56078
20.264,0.55501,0.43011,0.51961,0.58008,0.58039
20.272,0.54768,0.43109,0.44902,0.56445,0.64118
20.28,0.54279,0.43304,0.41961,0.55469,0.66471
20.288,0.53545,0.43402,0.4098,0.54492,0.66471
20.296,0.53056,0.43304,0.4098,0.53906,0.66471
20.304,0.52567,0.43304,0.3902,0.53516,0.68039
20.312,0.52078,0.43109,0.3902,0.53516,0.68627
20.32,0.51589,0.42913,0.4,0.54492,0.67059
20.328,0.511,0.42522,0.40392,0.54492,0.68039
20.336,0.50611,0.42229,0.41569,0.55078,0.67647
20.344,0.50367,0.41935,0.41961,0.55078,0.66471
20.352,0.50122,0.41642,0.4549,0.57031,0.64118
20.36,0.49633,0.41349,0.6,0.63477,0.57059
20.368,0.49389,0.41056,0.73529,0.59961,0.48431
20.376,0.49144,0.4086,0.8,0.46094,0.4451
20.384,0.49144,0.40469,0.85098,0.33594,0.3902
20.392,0.489,0.40176,0.40392,0.30078,0.74118
20.4,0.489,0.39883,0.12353,0.36523,0.96078
20.408,0.48655,0.39785,0.062745,0.41602,1.002
20.416,0.48655,0.3998,0.15882,0.49414,0.8902
20.424,0.48411,0.40665,0.25882,0.55469,0.77059
20.432,0.48411,0.41838,0.3549,0.59961,0.6902
20.44,0.48166,0.435,0.4,0.61523,0.6549
20.448,0.47922,0.4565,0.4098,0.61914,0.6451
20.456,0.47677,0.48094,0.4451,0.64062,0.6098
20.464,0.47433,0.50244,0.4451,0.63477,0.61569
20.472,0.47188,0.52199,0.47059,0.64062,0.59608
20.48,0.46944,0.54154,0.4902,0.64062,0.58039
20.488,0.46455,0.55816,0.47451,0.63477,0.5902
20.496,0.4621,0.57087,0.49412,0.63477,0.57059
20.504,0.45721,0.57967,0.5098,0.64453,0.55098
20.512,0.45232,0.58456,0.52549,0.64453,0.52549
20.52,0.44743,0.58651,0.53529,0.6543,0.51569
20.528,0.44254,0.58456,0.53922,0.66406,0.5
20.536,0.43521,0.58162,0.58039,0.67578,0.4451
20.544,0.43032,0.57576,0.60588,0.69531,0.41569
20.552,0.42298,0.56891,0.63529,0.70508,0.37451
20.56,0.41565,0.56207,0.66471,0.70898,0.35882
20.568,0.40831,0.55425,0.67647,0.70898,0.35882
20.576,0.40342,0.54643,0.68627,0.69922,0.35882
20.584,0.39609,0.53666,0.65098,0.68555,0.4098
20.592,0.3912,0.52786,0.62549,0.66406,0.4451
20.6,0.38386,0.51711,0.58039,0.64453,0.5
20.608,0.37653,0.50635,0.53529,0.62891,0.53922
20.616,0.36675,0.49462,0.4902,0.60547,0.5902
20.624,0.35941,0.48289,0.46078,0.58984,0.61961
20.632,0.34963,0.47214,0.42941,0.57031,0.6451
20.64,0.3423,0.46237,0.41569,0.55078,0.6549
20.648,0.33252,0.45259,0.42941,0.54492,0.63529
20.656,0.32518,0.44575,0.42549,0.56445,0.6451
20.664,0.31296,0.43988,0.41961,0.58008,0.65098
20.672,0.30318,0.43597,0.46078,0.5957,0.61961
20.68,0.28851,0.43304,0.48431,0.60547,0.5902
20.688,0.27628,0.43206,0.51569,0.61914,0.57451
20.696,0.26161,0.43109,0.55098,0.62891,0.56078
20.704,0.24694,0.43109,0.56078,0.61523,0.55098
20.712,0.23227,0.43206,0.53922,0.5957,0.57059
20.72,0.21516,0.43304,0.5451,0.58008,0.56471
20.728,0.20049,0.435,0.50588,0.57031,0.5902
20.736,0.18582,0.43597,0.4549,0.54492,0.61961
20.744,0.17359,0.43695,0.4,0.52539,0.66078
20.752,0.15892,0.43793,0.37059,0.51562,0.68627
20.76,0.14425,0.43891,0.34902,0.50586,0.69608
20.768,0.13203,0.43891,0.34902,0.50977,0.69608
20.776,0.11736,0.43891,0.33529,0.50586,0.7
20.784,0.10269,0.43793,0.32353,0.50586,0.71569
20.792,0.090465,0.43695,0.3098,0.5,0.72549
20.8,0.07824,0.43402,0.31961,0.50977,0.73137
20.808,0.066015,0.43109,0.32353,0.5,0.71569
20.816,0.05379,0.42717,0.33922,0.51562,0.72157
20.824,0.041565,0.42326,0.4,0.53906,0.67059
20.832,0.031785,0.41935,0.52941,0.5957,0.60588
20.84,0.01956,0.41544,0.62549,0.55078,0.56471
20.848,0.007335,0.41056,0.73137,0.39453,0.46471
20.856,-0.00489,0.40567,0.7902,0.30078,0.39412
20.864,-0.01467,0.40274,0.33529,0.26953,0.77059
20.872,-0.02445,0.40078,0.033333,0.33984,1.0275
20.88,-0.03423,0.3998,-0.027451,0.375,1.0667
20.888,-0.04401,0.40274,0.1098,0.45508,0.91176
20.896,-0.05379,0.40958,0.2,0.50586,0.80588
20.904,-0.061125,0.42131,0.26863,0.53906,0.73137
20.912,-0.06846,0.43793,0.32941,0.56445,0.67647
20.92,-0.07824,0.45943,0.36471,0.57422,0.65098
20.928,-0.085575,0.48387,0.37059,0.58398,0.6451
20.936,-0.09291,0.50831,0.39412,0.59961,0.63529
20.944,-0.10024,0.53177,0.3902,0.60938,0.6451
20.952,-0.10758,0.5523,0.41569,0.59961,0.61961
20.96,-0.11491,0.56794,0.42549,0.60938,0.6
20.968,-0.12225,0.57869,0.41961,0.60938,0.59608
20.976,-0.12714,0.58553,0.42941,0.61523,0.5902
20.984,-0.13447,0.58944,0.44902,0.625,0.56078
20.992,-0.14181,0.59042,0.47451,0.63477,0.53529
21,-0.14914,0.58944,0.5098,0.65039,0.48039
21.008,-0.15648,0.58553,0.52941,0.66992,0.4549
21.016,-0.16137,0.57967,0.56471,0.68555,0.42549
21.024,-0.1687,0.57283,0.6,0.69531,0.38431
21.032,-0.17604,0.565,0.62549,0.69922,0.35882
21.04,-0.18093,0.55621,0.64118,0.70898,0.36471
21.048,-0.18826,0.54643,0.62549,0.70508,0.38431
21.056,-0.19315,0.53666,0.60588,0.70898,0.42941
