Time [s], PLETH, RESP, II, V, AVR
0,0.59922,-0.056235,0.3451,0.59608,0.58039
0.008,0.59042,-0.06357,0.36471,0.5902,0.5549
0.016,0.5826,-0.070905,0.38431,0.58431,0.5451
0.024,0.57478,-0.075795,0.37451,0.6,0.56078
0.032,0.56696,-0.080685,0.4,0.58039,0.52941
0.04,0.56109,-0.085575,0.42941,0.57059,0.49412
0.048,0.55621,-0.090465,0.44902,0.57451,0.47451
0.056,0.55132,-0.095355,0.43922,0.56078,0.4549
0.064,0.54741,-0.10024,0.46471,0.56078,0.42549
0.072,0.54448,-0.10513,0.48039,0.55098,0.4
0.08,0.54252,-0.11002,0.50588,0.57059,0.37059
0.088,0.54057,-0.11491,0.5451,0.50588,0.32353
0.096,0.53861,-0.1198,0.6,0.48431,0.2549
0.104,0.53666,-0.12469,0.61961,0.46078,0.21373
0.112,0.53568,-0.12958,0.63529,0.44902,0.2
0.12,0.53372,-0.13447,0.65098,0.47059,0.18431
0.128,0.53275,-0.13692,0.68627,0.43529,0.16471
0.136,0.53177,-0.13936,0.6902,0.43529,0.14902
0.144,0.53177,-0.14181,0.69608,0.43922,0.15882
0.152,0.53177,-0.14425,0.67059,0.42941,0.19412
0.16,0.53177,-0.1467,0.62941,0.48039,0.23922
0.168,0.53177,-0.14914,0.58431,0.49412,0.3
0.176,0.53177,-0.15403,0.52549,0.52549,0.4
0.184,0.53177,-0.15648,0.46078,0.5549,0.46471
0.192,0.53177,-0.15648,0.42941,0.58039,0.51961
0.2,0.53177,-0.15892,0.3902,0.60588,0.58431
0.208,0.53177,-0.16137,0.33529,0.61961,0.65098
0.216,0.53177,-0.16381,0.3098,0.6098,0.68039
0.224,0.53079,-0.16381,0.29412,0.60588,0.6902
0.232,0.52884,-0.16626,0.26863,0.61569,0.70588
0.24,0.52688,-0.1687,0.26863,0.5902,0.7
0.248,0.52493,-0.17115,0.27843,0.60588,0.7098
0.256,0.52297,-0.17115,0.25882,0.61569,0.71569
0.264,0.52102,-0.17359,0.24902,0.65098,0.72157
0.272,0.51906,-0.17604,0.25882,0.67059,0.72157
0.28,0.51808,-0.17848,0.27451,0.6098,0.71569
0.288,0.51711,-0.18093,0.28431,0.61569,0.7
0.296,0.51515,-0.18093,0.3,0.60588,0.67059
0.304,0.5132,-0.18337,0.29412,0.61569,0.66471
0.312,0.51026,-0.18337,0.3,0.60588,0.68039
0.32,0.50831,-0.18582,0.31373,0.5902,0.66471
0.328,0.50538,-0.18826,0.31373,0.58431,0.6549
0.336,0.50342,-0.18826,0.3,0.5902,0.66078
0.344,0.50049,-0.19071,0.28431,0.5902,0.67059
0.352,0.49658,-0.19071,0.31961,0.57059,0.65098
0.36,0.49267,-0.19315,0.30392,0.58431,0.66078
0.368,0.48876,-0.19315,0.2902,0.5902,0.67059
0.376,0.48583,-0.19315,0.32353,0.57451,0.6451
0.384,0.48387,-0.19315,0.33922,0.58431,0.63529
0.392,0.48192,-0.19315,0.3451,0.59608,0.64118
0.4,0.47996,-0.19315,0.31961,0.5902,0.65098
0.408,0.47898,-0.19315,0.31961,0.6,0.66471
0.416,0.47898,-0.1956,0.33529,0.6098,0.67059
0.424,0.47996,-0.1956,0.31961,0.6,0.6451
0.432,0.48192,-0.19804,0.36471,0.63529,0.58431
0.44,0.48485,-0.19804,0.3902,0.56078,0.5549
0.448,0.48876,-0.19804,0.40392,0.55098,0.57059
0.456,0.4956,-0.20049,0.3902,0.5549,0.58039
0.464,0.5044,-0.20049,0.33922,0.56471,0.6098
0.472,0.51417,-0.20293,0.34902,0.55098,0.6
0.48,0.52493,-0.20293,0.3451,0.5451,0.60588
0.488,0.53763,-0.20538,0.33922,0.56471,0.61961
0.496,0.55034,-0.20782,0.34902,0.57059,0.62549
0.504,0.56305,-0.21027,0.33922,0.56078,0.61569
0.512,0.57576,-0.21271,0.33529,0.57059,0.6098
0.52,0.58847,-0.2176,0.32353,0.56471,0.62941
0.528,0.59726,-0.22005,0.3,0.58039,0.6549
0.536,0.60508,-0.22249,0.2451,0.70588,0.76667
0.544,0.6129,-0.22738,0.18824,0.76667,0.81176
0.552,0.61975,-0.22983,0.41961,0.57451,0.46078
0.56,0.62463,-0.23472,1.0216,0.16471,-0.18627
0.568,0.62757,-0.23716,1.3216,-0.041176,-0.48235
0.576,0.62952,-0.24205,0.87059,0.16863,0.1098
0.584,0.62854,-0.24694,0.47451,0.33922,0.68627
0.592,0.62757,-0.24939,0.31373,0.38039,0.7451
0.6,0.62463,-0.25428,0.29412,0.4902,0.68627
0.608,0.62072,-0.25672,0.33922,0.59608,0.62549
0.616,0.61486,-0.26161,0.33529,0.57451,0.61569
0.624,0.60802,-0.26406,0.31961,0.58431,0.61961
0.632,0.6002,-0.2665,0.32941,0.5902,0.6098
0.64,0.5914,-0.26895,0.3451,0.6,0.6
0.648,0.58162,-0.27139,0.36471,0.5902,0.56471
0.656,0.5738,-0.27384,0.38039,0.57451,0.55098
0.664,0.565,-0.27384,0.38431,0.57451,0.53922
0.672,0.55718,-0.27628,0.3902,0.58039,0.52941
0.68,0.55034,-0.27628,0.4,0.57451,0.51961
0.688,0.5435,-0.27628,0.40392,0.56471,0.50588
0.696,0.53861,-0.27873,0.42941,0.5451,0.48039
0.704,0.53372,-0.27873,0.46078,0.55098,0.43922
0.712,0.53079,-0.27873,0.47451,0.5549,0.43529
0.72,0.52688,-0.27628,0.49412,0.53922,0.4
0.728,0.52493,-0.27628,0.51961,0.51961,0.38039
0.736,0.52297,-0.27628,0.53922,0.50588,0.3451
0.744,0.52102,-0.27384,0.57451,0.49412,0.29412
0.752,0.52004,-0.27384,0.6098,0.47059,0.2451
0.76,0.52004,-0.27139,0.61961,0.44902,0.20392
0.768,0.51906,-0.27139,0.65098,0.42549,0.16863
0.776,0.51906,-0.26895,0.67059,0.4451,0.14902
0.784,0.51906,-0.2665,0.69608,0.44902,0.13333
0.792,0.51906,-0.26406,0.6902,0.43529,0.14314
0.8,0.51808,-0.26161,0.67059,0.44902,0.17843
0.808,0.51711,-0.25917,0.65098,0.44902,0.22941
0.816,0.51515,-0.25672,0.59608,0.4902,0.30392
0.824,0.51417,-0.25428,0.53922,0.51961,0.4
0.832,0.51222,-0.25183,0.47451,0.5451,0.47059
0.84,0.51124,-0.24939,0.4,0.57059,0.5451
0.848,0.51026,-0.24694,0.3549,0.56471,0.6
0.856,0.51026,-0.2445,0.31961,0.59608,0.65098
0.864,0.50831,-0.24205,0.2902,0.61961,0.68627
0.872,0.50733,-0.23961,0.28431,0.62549,0.7
0.88,0.5044,-0.23716,0.26863,0.64118,0.71569
0.888,0.50147,-0.23227,0.3,0.6549,0.73137
0.896,0.49853,-0.22983,0.2902,0.61961,0.73529
0.904,0.4956,-0.22738,0.2902,0.6098,0.7
0.912,0.49267,-0.22249,0.29412,0.61961,0.68627
0.92,0.48974,-0.22005,0.31373,0.6,0.67059
0.928,0.4868,-0.2176,0.28431,0.61569,0.6902
0.936,0.48485,-0.21516,0.26863,0.58039,0.7
0.944,0.48289,-0.21271,0.2902,0.6098,0.69608
0.952,0.48094,-0.21027,0.28431,0.61569,0.69608
0.96,0.47801,-0.21027,0.2902,0.61961,0.69608
0.968,0.47605,-0.20782,0.2902,0.6098,0.69608
0.976,0.47214,-0.20782,0.31373,0.59608,0.67647
0.984,0.46921,-0.20538,0.30392,0.5902,0.67059
0.992,0.46628,-0.20538,0.31373,0.5902,0.66078
1,0.46334,-0.20293,0.32353,0.6,0.6549
1.008,0.46139,-0.20293,0.3098,0.58431,0.66078
1.016,0.45846,-0.20293,0.3098,0.56471,0.6549
1.024,0.45748,-0.20049,0.30392,0.5902,0.66471
1.032,0.45552,-0.20049,0.31373,0.58039,0.66078
1.04,0.45357,-0.19804,0.3098,0.5902,0.65098
1.048,0.45161,-0.19804,0.32941,0.5902,0.6451
1.056,0.44966,-0.1956,0.35882,0.58039,0.61569
1.064,0.4477,-0.19315,0.33922,0.61569,0.63529
1.072,0.44673,-0.19071,0.31961,0.59608,0.65098
1.08,0.44575,-0.19071,0.31961,0.60588,0.66078
1.088,0.4477,-0.18826,0.3549,0.57059,0.61961
1.096,0.45064,-0.18582,0.38039,0.58431,0.5902
1.104,0.45552,-0.18582,0.4,0.5902,0.56471
1.112,0.46334,-0.18582,0.40392,0.57451,0.57451
1.12,0.47214,-0.18337,0.3902,0.5451,0.58431
1.128,0.48094,-0.18582,0.35882,0.53529,0.59608
1.136,0.48974,-0.18582,0.36471,0.57059,0.6
1.144,0.50049,-0.18582,0.3451,0.58431,0.61569
1.152,0.51222,-0.18582,0.32353,0.57059,0.63529
1.16,0.52493,-0.18582,0.33529,0.57059,0.62549
1.168,0.53666,-0.18582,0.3549,0.56078,0.6098
1.176,0.54741,-0.18826,0.32941,0.55098,0.62549
1.184,0.55816,-0.19071,0.31373,0.55098,0.63529
1.192,0.56598,-0.19315,0.2902,0.6549,0.7098
1.2,0.57283,-0.1956,0.22941,0.76667,0.76667
1.208,0.57771,-0.1956,0.36471,0.61569,0.51961
1.216,0.58065,-0.19804,0.91176,0.22941,-0.047059
1.224,0.58065,-0.20049,1.302,0.017647,-0.41176
1.232,0.57967,-0.20293,0.95098,0.21961,0.04902
1.24,0.57771,-0.20293,0.52941,0.46471,0.70588
1.248,0.57576,-0.20538,0.32353,0.4451,0.81176
1.256,0.57087,-0.20538,0.27843,0.4902,0.74118
1.264,0.565,-0.20538,0.32941,0.51569,0.63529
1.272,0.55816,-0.20538,0.3549,0.56078,0.59608
1.28,0.55034,-0.20538,0.33922,0.57059,0.6
1.288,0.54057,-0.20538,0.35882,0.56078,0.56471
1.296,0.53177,-0.20538,0.36471,0.51961,0.5549
1.304,0.52199,-0.20293,0.36471,0.56471,0.56078
1.312,0.5132,-0.20293,0.35882,0.57059,0.57451
1.32,0.50342,-0.20049,0.38431,0.53529,0.55098
1.328,0.4956,-0.1956,0.4,0.52941,0.53922
1.336,0.48974,-0.19315,0.41569,0.57059,0.51569
1.344,0.48485,-0.19071,0.4451,0.57451,0.47451
1.352,0.47996,-0.18582,0.4549,0.51961,0.46471
1.36,0.47605,-0.18093,0.47059,0.51961,0.44902
1.368,0.47214,-0.17604,0.48431,0.51569,0.42549
1.376,0.46921,-0.17115,0.50588,0.47451,0.39412
1.384,0.46628,-0.16626,0.52549,0.4902,0.35882
1.392,0.46432,-0.15892,0.56078,0.46078,0.31961
1.4,0.46334,-0.15403,0.58039,0.48039,0.2902
1.408,0.46334,-0.14914,0.61961,0.4549,0.24902
1.416,0.46334,-0.14425,0.63529,0.43922,0.22941
1.424,0.46334,-0.13936,0.6549,0.4451,0.20392
1.432,0.46334,-0.13447,0.70588,0.37451,0.14902
1.44,0.46334,-0.12714,0.7098,0.4098,0.1549
1.448,0.46237,-0.1198,0.71569,0.42549,0.15882
1.456,0.46237,-0.11491,0.70588,0.4098,0.18431
1.464,0.46041,-0.10758,0.65098,0.44902,0.2451
1.472,0.45943,-0.10269,0.6098,0.48039,0.30392
1.48,0.45748,-0.095355,0.5549,0.51569,0.3902
1.488,0.45455,-0.090465,0.49412,0.53922,0.46471
1.496,0.45064,-0.08313,0.43529,0.56471,0.53529
1.504,0.4477,-0.075795,0.38431,0.57059,0.5902
1.512,0.44379,-0.06846,0.33529,0.58431,0.64118
1.52,0.44086,-0.05868,0.31373,0.5902,0.66078
1.528,0.43793,-0.051345,0.3098,0.58039,0.66471
1.536,0.43695,-0.041565,0.31373,0.57059,0.67059
1.544,0.43597,-0.03423,0.29412,0.61961,0.6902
1.552,0.435,-0.02445,0.2902,0.62549,0.69608
1.56,0.43402,-0.017115,0.27843,0.61569,0.70588
1.568,0.42229,-0.00978,0.26863,0.62549,0.7098
1.576,0.40567,-0.00489,0.3,0.60588,0.67647
1.584,0.39687,0.002445,0.31373,0.6098,0.67059
1.592,0.39198,0.00978,0.30392,0.60588,0.67059
1.6,0.38807,0.017115,0.2902,0.59608,0.67647
1.608,0.38514,0.02445,0.30392,0.57059,0.66471
1.616,0.38319,0.031785,0.31961,0.58431,0.6549
1.624,0.38221,0.036675,0.31373,0.5902,0.6549
1.632,0.38025,0.04401,0.31373,0.58431,0.6549
1.64,0.3783,0.0489,0.33922,0.6,0.62941
1.648,0.37634,0.05379,0.3451,0.57059,0.62549
1.656,0.37439,0.061125,0.33922,0.57451,0.62941
1.664,0.37243,0.066015,0.31961,0.56471,0.6451
1.672,0.37048,0.07335,0.33529,0.57059,0.6451
1.68,0.36852,0.080685,0.32941,0.57059,0.6451
1.688,0.36755,0.08802,0.32941,0.57059,0.63529
1.696,0.36657,0.095355,0.3451,0.58431,0.62549
1.704,0.36657,0.10269,0.34902,0.6,0.63529
1.712,0.36559,0.11002,0.37451,0.5902,0.6098
1.72,0.36559,0.11736,0.39412,0.5902,0.58039
1.728,0.36657,0.12714,0.3902,0.58039,0.58431
1.736,0.36755,0.13447,0.3902,0.57059,0.58431
1.744,0.37048,0.14181,0.3902,0.56471,0.58039
1.752,0.37341,0.14914,0.38431,0.56078,0.58039
1.76,0.37928,0.15648,0.36471,0.56471,0.59608
1.768,0.38514,0.16137,0.35882,0.5451,0.6
1.776,0.39296,0.1687,0.3451,0.56078,0.61569
1.784,0.40176,0.17604,0.32941,0.55098,0.62549
1.792,0.41251,0.18093,0.32941,0.56471,0.62941
1.8,0.42522,0.18582,0.31961,0.5549,0.63529
1.808,0.43793,0.19071,0.31373,0.56078,0.62549
1.816,0.45161,0.1956,0.33529,0.6,0.61961
1.824,0.46237,0.19804,0.26863,0.72549,0.7451
1.832,0.47214,0.20293,0.22941,0.76667,0.76667
1.84,0.48192,0.20538,0.53922,0.51961,0.34902
1.848,0.49071,0.20782,1.1059,0.14902,-0.19608
1.856,0.49853,0.21027,1.298,0.039216,-0.37255
1.864,0.50538,0.21027,0.69608,0.31373,0.37059
1.872,0.50929,0.21271,0.37451,0.4,0.76078
1.88,0.5132,0.21271,0.2451,0.3902,0.78627
1.888,0.51417,0.21271,0.2902,0.4902,0.68039
1.896,0.51417,0.21271,0.33529,0.56471,0.61569
1.904,0.51222,0.21271,0.3549,0.57451,0.6
1.912,0.50733,0.21271,0.35882,0.58431,0.6
1.92,0.50147,0.21271,0.35882,0.57059,0.57451
1.928,0.49658,0.21271,0.35882,0.58039,0.57451
1.936,0.48974,0.21271,0.37059,0.58039,0.56471
1.944,0.48289,0.21271,0.38431,0.58431,0.56078
1.952,0.47507,0.21027,0.4,0.57059,0.55098
1.96,0.46725,0.21027,0.41569,0.57059,0.52941
1.968,0.46041,0.21027,0.43529,0.56471,0.50588
1.976,0.45357,0.21027,0.43922,0.5549,0.48431
1.984,0.4477,0.20782,0.4549,0.56078,0.47451
1.992,0.44379,0.20782,0.48039,0.55098,0.4549
2,0.44086,0.20782,0.48431,0.53922,0.43529
2.008,0.43793,0.20782,0.5098,0.52941,0.40392
2.016,0.43695,0.20538,0.53922,0.51961,0.37451
2.024,0.43597,0.20538,0.56471,0.5098,0.3451
2.032,0.43695,0.20538,0.6,0.49412,0.3
2.04,0.43793,0.20538,0.64118,0.47059,0.2549
2.048,0.43891,0.20538,0.68039,0.46471,0.21373
2.056,0.44086,0.20538,0.69608,0.46078,0.19412
2.064,0.44282,0.20538,0.71569,0.44902,0.17451
2.072,0.44379,0.20782,0.72157,0.4549,0.17451
2.08,0.44379,0.20782,0.75098,0.46078,0.1549
2.088,0.44477,0.21027,0.71569,0.46078,0.19412
2.096,0.44477,0.21271,0.6451,0.47451,0.27843
2.104,0.44477,0.21516,0.58039,0.5,0.3549
2.112,0.44477,0.2176,0.51569,0.52549,0.43529
2.12,0.44477,0.22005,0.4451,0.55098,0.5098
2.128,0.44477,0.22249,0.38431,0.57059,0.58039
2.136,0.44477,0.22738,0.33529,0.58431,0.62941
2.144,0.44477,0.22983,0.30392,0.5902,0.66471
2.152,0.44379,0.23472,0.2902,0.59608,0.67647
2.16,0.44477,0.23961,0.28431,0.59608,0.6902
2.168,0.44477,0.2445,0.28431,0.6,0.69608
2.176,0.44477,0.24694,0.27843,0.6,0.69608
2.184,0.44477,0.25183,0.27451,0.6098,0.7
2.192,0.44379,0.25672,0.26863,0.60588,0.7
2.2,0.44184,0.25917,0.27843,0.60588,0.69608
2.208,0.44086,0.26161,0.28431,0.6098,0.69608
2.216,0.44086,0.26406,0.27843,0.60588,0.6902
2.224,0.43988,0.2665,0.2902,0.6,0.67647
2.232,0.43988,0.26895,0.29412,0.6,0.67059
2.24,0.43988,0.26895,0.3,0.59608,0.66471
2.248,0.43891,0.27139,0.31373,0.5902,0.6451
2.256,0.43891,0.27384,0.31373,0.58431,0.6451
2.264,0.43793,0.27628,0.31961,0.58039,0.6451
2.272,0.43695,0.27628,0.31961,0.58039,0.6451
2.28,0.435,0.27873,0.31961,0.58039,0.6451
2.288,0.43402,0.28117,0.32353,0.58039,0.64118
2.296,0.43206,0.28362,0.32353,0.58039,0.63529
2.304,0.43109,0.28606,0.32353,0.57059,0.62941
2.312,0.42913,0.28851,0.32941,0.57451,0.62549
2.32,0.42913,0.29095,0.33529,0.5902,0.62549
2.328,0.42815,0.2934,0.33922,0.59608,0.62549
2.336,0.42815,0.29584,0.3549,0.60588,0.6098
2.344,0.42815,0.30073,0.38039,0.6,0.5902
2.352,0.43011,0.30318,0.38431,0.59608,0.58431
2.36,0.43109,0.30562,0.38039,0.57451,0.57451
2.368,0.43304,0.30807,0.38431,0.56471,0.57451
2.376,0.43597,0.30807,0.38039,0.56078,0.57451
2.384,0.44086,0.31051,0.37451,0.56078,0.58431
2.392,0.44673,0.31051,0.35882,0.5549,0.5902
2.4,0.45357,0.31296,0.3451,0.56078,0.6
2.408,0.46334,0.31296,0.3451,0.55098,0.60588
2.416,0.47507,0.31296,0.35882,0.5549,0.6
2.424,0.48583,0.31296,0.34902,0.56471,0.59608
2.432,0.49756,0.31296,0.3451,0.57059,0.61961
2.44,0.51026,0.31051,0.3098,0.61961,0.67647
2.448,0.52297,0.31051,0.23922,0.76667,0.78627
2.456,0.53568,0.30562,0.20392,0.80588,0.8
2.464,0.54741,0.30318,0.53922,0.53922,0.34902
2.472,0.55718,0.30073,1.1667,0.10392,-0.27647
2.48,0.56696,0.29584,1.3882,-0.05098,-0.49216
2.488,0.57478,0.29095,0.76667,0.17843,0.21373
2.496,0.58065,0.28606,0.36471,0.2902,0.69608
2.504,0.58456,0.27873,0.2549,0.37451,0.73529
2.512,0.58553,0.27384,0.3,0.5,0.66078
2.52,0.58553,0.26895,0.33529,0.56471,0.61961
2.528,0.58358,0.26406,0.34902,0.5902,0.60588
2.536,0.57967,0.25672,0.33922,0.6,0.6
2.544,0.57478,0.25183,0.33529,0.61569,0.61569
2.552,0.56891,0.24694,0.35882,0.6098,0.58431
2.56,0.56109,0.23961,0.38039,0.61569,0.5549
2.568,0.5523,0.23472,0.37059,0.60588,0.5549
2.576,0.5435,0.22983,0.39412,0.6,0.53529
2.584,0.53372,0.22494,0.42941,0.59608,0.50588
2.592,0.52395,0.22005,0.43529,0.5902,0.49412
2.6,0.51417,0.21516,0.43529,0.58431,0.4902
2.608,0.5044,0.21271,0.43922,0.5902,0.49412
2.616,0.49658,0.21027,0.4549,0.57451,0.46471
2.624,0.49071,0.20538,0.48039,0.57059,0.43922
2.632,0.48485,0.20293,0.50588,0.57059,0.41961
2.64,0.47898,0.20049,0.53529,0.5902,0.40392
2.648,0.47507,0.19804,0.58431,0.55098,0.32941
2.656,0.47116,0.19804,0.60588,0.51961,0.2902
2.664,0.46823,0.1956,0.6451,0.50588,0.23922
2.672,0.46432,0.19315,0.6549,0.48431,0.22353
2.68,0.46139,0.19071,0.67059,0.47451,0.20392
2.688,0.45748,0.19071,0.68039,0.46471,0.2
2.696,0.45455,0.18826,0.7098,0.46471,0.17451
2.704,0.45161,0.18826,0.71569,0.47451,0.17843
2.712,0.44868,0.18582,0.70588,0.48431,0.20392
2.72,0.44673,0.18582,0.66078,0.50588,0.25882
2.728,0.44575,0.18337,0.6,0.53922,0.34902
2.736,0.44477,0.18337,0.51961,0.56471,0.4451
2.744,0.44477,0.18337,0.4451,0.57059,0.51569
2.752,0.44379,0.18337,0.40392,0.58431,0.5451
2.76,0.44282,0.18337,0.3451,0.5902,0.60588
2.768,0.44282,0.18337,0.2902,0.58431,0.6549
2.776,0.44184,0.18337,0.27843,0.62941,0.67059
2.784,0.44086,0.18337,0.2902,0.59608,0.67647
2.792,0.43988,0.18582,0.26471,0.58039,0.69608
2.8,0.43988,0.18582,0.2549,0.59608,0.70588
2.808,0.43988,0.18582,0.2549,0.5902,0.7098
2.816,0.44086,0.18826,0.26863,0.5902,0.69608
2.824,0.44086,0.18826,0.27451,0.5902,0.6902
2.832,0.44184,0.19071,0.27843,0.5902,0.69608
2.84,0.44184,0.19071,0.27451,0.60588,0.68627
2.848,0.44086,0.19071,0.27451,0.5902,0.68627
2.856,0.43988,0.19071,0.27843,0.5902,0.67647
2.864,0.43891,0.19071,0.29412,0.59608,0.66471
2.872,0.43695,0.19071,0.3,0.59608,0.66471
2.88,0.43597,0.19071,0.29412,0.59608,0.67647
2.888,0.43402,0.19071,0.3,0.58431,0.68039
2.896,0.43206,0.19071,0.29412,0.58039,0.67059
2.904,0.43011,0.19071,0.3,0.58039,0.6549
2.912,0.42815,0.19071,0.29412,0.5902,0.6451
2.92,0.42717,0.19071,0.31373,0.57059,0.64118
2.928,0.42522,0.19071,0.32353,0.56471,0.64118
2.936,0.42424,0.19071,0.32941,0.6098,0.63529
2.944,0.42229,0.19071,0.32353,0.61961,0.65098
2.952,0.42131,0.19071,0.3549,0.61569,0.6098
2.96,0.42033,0.19315,0.37059,0.5902,0.58431
2.968,0.42033,0.19315,0.38039,0.57451,0.57451
2.976,0.42131,0.19315,0.37059,0.57059,0.58039
2.984,0.42326,0.1956,0.37059,0.57059,0.57451
2.992,0.4262,0.1956,0.36471,0.56078,0.57451
3,0.43206,0.19804,0.34902,0.56471,0.6
3.008,0.43988,0.19804,0.31961,0.56471,0.62549
3.016,0.44966,0.19804,0.31373,0.57059,0.63529
3.024,0.45943,0.20049,0.3,0.57059,0.6451
3.032,0.47019,0.20049,0.3098,0.57059,0.6451
3.04,0.48289,0.20049,0.3098,0.57059,0.62941
3.048,0.49756,0.20049,0.3,0.56471,0.6451
3.056,0.51222,0.20049,0.23333,0.68039,0.7549
3.064,0.52688,0.19804,0.13922,0.8,0.8451
3.072,0.54057,0.19804,0.3098,0.6902,0.58431
3.08,0.55425,0.19804,0.94706,0.27451,-0.041176
3.088,0.56598,0.19804,1.4078,-0.037255,-0.49216
3.096,0.57674,0.1956,0.99608,0.068627,-0.072549
3.104,0.58651,0.1956,0.46471,0.25882,0.6
3.112,0.59433,0.19315,0.27451,0.32353,0.74118
3.12,0.59922,0.19071,0.24902,0.46471,0.70588
3.128,0.60117,0.19071,0.31373,0.56078,0.65098
3.136,0.60313,0.18826,0.32941,0.6098,0.61961
3.144,0.60313,0.18826,0.33922,0.6,0.6098
3.152,0.60117,0.18582,0.33529,0.60588,0.61569
3.16,0.59922,0.18582,0.33529,0.6098,0.6098
3.168,0.59531,0.18337,0.3451,0.5902,0.58039
3.176,0.58944,0.18337,0.3549,0.5902,0.56471
3.184,0.58162,0.18093,0.37059,0.5902,0.55098
3.192,0.5738,0.18093,0.3902,0.6098,0.52941
3.2,0.56305,0.18093,0.41569,0.61569,0.51569
3.208,0.5523,0.18093,0.43529,0.60588,0.50588
3.216,0.54057,0.18093,0.41569,0.58431,0.51961
3.224,0.53079,0.18093,0.43529,0.57059,0.4902
3.232,0.52102,0.18337,0.46078,0.5549,0.4549
3.24,0.51124,0.18337,0.5,0.56471,0.41961
3.248,0.50244,0.18337,0.52549,0.57059,0.3902
3.256,0.4956,0.18337,0.56078,0.58039,0.34902
3.264,0.48974,0.18582,0.5902,0.51961,0.3098
3.272,0.48583,0.18582,0.61961,0.50588,0.26863
3.28,0.48387,0.18582,0.64118,0.49412,0.24902
3.288,0.48387,0.18582,0.6549,0.4902,0.23922
3.296,0.48485,0.18582,0.68039,0.48039,0.21961
3.304,0.48583,0.18582,0.6902,0.46471,0.2
3.312,0.4868,0.18826,0.70588,0.47059,0.2
3.32,0.4868,0.18826,0.6902,0.47451,0.21373
3.328,0.48778,0.18826,0.65098,0.5,0.27451
3.336,0.4868,0.18826,0.5902,0.53922,0.3549
3.344,0.48583,0.18826,0.53529,0.56078,0.42549
3.352,0.48289,0.19071,0.44902,0.56471,0.5
3.36,0.48094,0.19071,0.3902,0.58039,0.55098
3.368,0.47801,0.19315,0.3451,0.58431,0.60588
3.376,0.47605,0.1956,0.3098,0.60588,0.63529
3.384,0.4741,0.1956,0.30392,0.61569,0.6451
3.392,0.47214,0.19804,0.29412,0.63529,0.66078
3.4,0.47116,0.19804,0.27843,0.64118,0.67059
3.408,0.46921,0.19804,0.27451,0.5902,0.68039
3.416,0.46725,0.19804,0.27843,0.6,0.68627
3.424,0.46432,0.19804,0.23333,0.58431,0.71569
3.432,0.46237,0.1956,0.2451,0.59608,0.72157
3.44,0.45943,0.1956,0.2451,0.60588,0.71569
3.448,0.45552,0.19315,0.25882,0.59608,0.70588
3.456,0.45259,0.19315,0.26863,0.6098,0.7
3.464,0.44966,0.19071,0.27451,0.61569,0.7
3.472,0.44673,0.18826,0.2902,0.61569,0.67059
3.48,0.44477,0.18826,0.28431,0.6,0.66471
3.488,0.44282,0.18582,0.27843,0.5902,0.68039
3.496,0.44086,0.18337,0.2902,0.58431,0.66471
3.504,0.43891,0.18337,0.3,0.58431,0.6451
3.512,0.43793,0.18093,0.30392,0.5902,0.65098
3.52,0.43597,0.18093,0.3,0.58431,0.6451
3.528,0.435,0.18093,0.31373,0.58039,0.64118
3.536,0.43402,0.18093,0.31373,0.5902,0.63529
3.544,0.43206,0.18093,0.32941,0.61569,0.62941
3.552,0.42913,0.18093,0.33529,0.5902,0.62549
3.56,0.4262,0.18093,0.3549,0.5902,0.6
3.568,0.42326,0.18093,0.35882,0.61961,0.6
3.576,0.42131,0.18093,0.36471,0.62549,0.5902
3.584,0.42033,0.18093,0.3549,0.55098,0.58431
3.592,0.41935,0.18093,0.33922,0.5451,0.61961
3.6,0.42131,0.18337,0.32941,0.55098,0.62549
3.608,0.42522,0.18337,0.32353,0.5549,0.62941
3.616,0.43793,0.18337,0.32353,0.56471,0.62549
3.624,0.45357,0.18337,0.31373,0.56078,0.62549
3.632,0.46432,0.18582,0.31373,0.57059,0.63529
3.64,0.4741,0.18582,0.31373,0.5549,0.62941
3.648,0.48583,0.18582,0.33529,0.57451,0.63529
3.656,0.49756,0.18582,0.33922,0.6,0.6
3.664,0.50929,0.18582,0.22941,0.74118,0.77647
3.672,0.52004,0.18337,0.14902,0.7902,0.83529
3.68,0.52981,0.18093,0.43529,0.58039,0.4549
3.688,0.53959,0.17848,1.0961,0.14314,-0.19608
3.696,0.54741,0.17604,1.3431,-0.031373,-0.42745
3.704,0.55523,0.17359,0.77647,0.16471,0.2
3.712,0.56207,0.17115,0.3549,0.27843,0.7098
3.72,0.56696,0.1687,0.23922,0.35882,0.7549
3.728,0.56989,0.16626,0.2902,0.49412,0.66471
3.736,0.57283,0.16137,0.3451,0.58039,0.59608
3.744,0.57478,0.15892,0.35882,0.6,0.58039
3.752,0.57576,0.15403,0.32941,0.6098,0.61569
3.76,0.57576,0.14914,0.32353,0.6,0.62549
3.768,0.57478,0.14425,0.33922,0.5902,0.5902
3.776,0.57283,0.14181,0.3451,0.6,0.59608
3.784,0.56989,0.13692,0.35882,0.6098,0.57451
3.792,0.565,0.13447,0.38039,0.59608,0.55098
3.8,0.55816,0.12958,0.3902,0.62549,0.53529
3.808,0.55132,0.12714,0.38431,0.62941,0.52941
3.816,0.54448,0.12225,0.41569,0.57451,0.5098
3.824,0.53763,0.1198,0.43529,0.58039,0.4902
3.832,0.52981,0.11491,0.43529,0.58431,0.47451
3.84,0.52297,0.11247,0.48039,0.58039,0.4549
3.848,0.51613,0.11002,0.51569,0.57059,0.4098
3.856,0.51026,0.10758,0.53922,0.55098,0.38039
3.864,0.5044,0.10513,0.58039,0.5549,0.32941
3.872,0.49951,0.10269,0.59608,0.52941,0.31373
3.88,0.49658,0.10269,0.61569,0.5098,0.28431
3.888,0.49267,0.10024,0.62941,0.49412,0.26471
3.896,0.49071,0.0978,0.66078,0.48431,0.22353
3.904,0.48778,0.095355,0.68039,0.5,0.2
3.912,0.48485,0.095355,0.6902,0.47451,0.2
3.92,0.48387,0.09291,0.68039,0.47059,0.20392
3.928,0.48192,0.09291,0.66471,0.47451,0.23333
3.936,0.48094,0.090465,0.64118,0.50588,0.27451
3.944,0.47996,0.090465,0.57451,0.52549,0.34902
3.952,0.47996,0.090465,0.5,0.5451,0.43529
3.96,0.47996,0.090465,0.43922,0.58039,0.5098
3.968,0.47996,0.090465,0.3902,0.5902,0.57059
3.976,0.47898,0.09291,0.3451,0.5902,0.61961
3.984,0.47801,0.09291,0.3098,0.6098,0.66471
3.992,0.47801,0.09291,0.29412,0.61961,0.67647
4,0.47703,0.09291,0.27843,0.64118,0.7
4.008,0.47703,0.095355,0.26863,0.6549,0.70588
4.016,0.47703,0.095355,0.25882,0.5902,0.6902
4.024,0.47605,0.095355,0.26863,0.58431,0.67059
4.032,0.47507,0.0978,0.2902,0.59608,0.66078
4.04,0.47312,0.0978,0.27451,0.59608,0.68627
4.048,0.47116,0.0978,0.26863,0.59608,0.69608
4.056,0.46921,0.095355,0.25882,0.6098,0.7098
4.064,0.46823,0.095355,0.27451,0.60588,0.6902
4.072,0.46628,0.095355,0.27843,0.5902,0.67059
4.08,0.4653,0.09291,0.2902,0.5902,0.66078
4.088,0.46334,0.09291,0.2902,0.5902,0.66471
4.096,0.46237,0.090465,0.27843,0.6,0.66471
4.104,0.46041,0.090465,0.2902,0.5902,0.66078
4.112,0.45943,0.08802,0.31373,0.57451,0.63529
4.12,0.45748,0.08802,0.31373,0.59608,0.62941
4.128,0.4565,0.085575,0.31373,0.5902,0.64118
4.136,0.45552,0.085575,0.31373,0.59608,0.65098
4.144,0.45455,0.08313,0.31373,0.61569,0.66471
4.152,0.45357,0.08313,0.33529,0.59608,0.62941
4.16,0.45259,0.08313,0.36471,0.5902,0.59608
4.168,0.45064,0.08313,0.37059,0.61961,0.58039
4.176,0.44966,0.08313,0.35882,0.55098,0.58431
4.184,0.44868,0.08313,0.35882,0.53529,0.57451
4.192,0.44673,0.08313,0.33922,0.53529,0.59608
4.2,0.44575,0.08313,0.32353,0.5451,0.6098
4.208,0.44673,0.08313,0.31373,0.56471,0.61961
4.216,0.44868,0.08313,0.32353,0.57059,0.61569
4.224,0.45161,0.08313,0.33529,0.57059,0.60588
4.232,0.45552,0.08313,0.33922,0.57451,0.61961
4.24,0.46237,0.08313,0.31961,0.5902,0.6451
4.248,0.47019,0.08313,0.3,0.57451,0.6549
4.256,0.47996,0.08313,0.22941,0.73137,0.75098
4.264,0.49169,0.080685,0.14314,0.7902,0.82157
4.272,0.50244,0.080685,0.3549,0.61961,0.52941
4.28,0.51417,0.07824,1.002,0.2098,-0.10196
4.288,0.52493,0.07824,1.3118,-0.027451,-0.39804
4.296,0.53568,0.075795,0.8,0.13922,0.16863
4.304,0.54448,0.075795,0.3902,0.28431,0.70588
4.312,0.5523,0.07335,0.26863,0.35882,0.75098
4.32,0.55718,0.070905,0.29412,0.48431,0.67647
4.328,0.56207,0.066015,0.3451,0.58039,0.6
4.336,0.56598,0.061125,0.35882,0.61569,0.57451
4.344,0.56989,0.05868,0.33922,0.57451,0.59608
4.352,0.57185,0.05379,0.3451,0.58039,0.5902
4.36,0.57283,0.051345,0.3549,0.57451,0.57451
4.368,0.57283,0.046455,0.36471,0.58431,0.56471
4.376,0.57087,0.04401,0.37451,0.60588,0.5549
4.384,0.56794,0.03912,0.36471,0.6098,0.55098
4.392,0.56403,0.03423,0.38431,0.59608,0.52549
4.4,0.55816,0.02934,0.4098,0.60588,0.50588
4.408,0.55132,0.026895,0.43529,0.59608,0.50588
4.416,0.54545,0.022005,0.43529,0.60588,0.5
4.424,0.54057,0.017115,0.43922,0.57059,0.48039
4.432,0.5347,0.01467,0.4549,0.56078,0.4549
4.44,0.52786,0.012225,0.47451,0.57059,0.43529
4.448,0.52199,0.007335,0.51961,0.53529,0.38431
4.456,0.51515,0.00489,0.5451,0.51961,0.3451
4.464,0.51026,0.002445,0.58431,0.5,0.29412
4.472,0.50538,0.002445,0.64118,0.53529,0.23922
4.48,0.50147,0,0.66471,0.55098,0.2098
4.488,0.49853,-0.002445,0.68039,0.46078,0.18824
4.496,0.4956,-0.00489,0.6549,0.47451,0.19412
4.504,0.49267,-0.00489,0.65098,0.4549,0.20392
4.512,0.49169,-0.007335,0.66471,0.43922,0.2
4.52,0.49071,-0.00978,0.6451,0.48039,0.23922
4.528,0.49071,-0.012225,0.61961,0.49412,0.2902
4.536,0.49071,-0.01467,0.56471,0.5098,0.35882
4.544,0.49071,-0.01467,0.49412,0.53922,0.43529
4.552,0.49071,-0.017115,0.43922,0.56078,0.5
4.56,0.49071,-0.01956,0.37451,0.58039,0.57059
4.568,0.49071,-0.01956,0.33922,0.60588,0.61961
4.576,0.49071,-0.022005,0.3098,0.61961,0.66471
4.584,0.49071,-0.02445,0.26863,0.64118,0.7098
4.592,0.49071,-0.026895,0.26863,0.63529,0.70588
4.6,0.49169,-0.02934,0.27451,0.6098,0.67647
4.608,0.49169,-0.031785,0.2902,0.61961,0.66078
4.616,0.49267,-0.03423,0.3,0.61569,0.67059
4.624,0.49267,-0.036675,0.27451,0.6451,0.69608
4.632,0.49267,-0.03912,0.26471,0.59608,0.70588
4.64,0.49169,-0.04401,0.2451,0.6,0.71569
4.648,0.49071,-0.0489,0.24902,0.5902,0.7098
4.656,0.48974,-0.051345,0.2549,0.59608,0.69608
4.664,0.48876,-0.056235,0.2451,0.61569,0.7
4.672,0.4868,-0.061125,0.28431,0.60588,0.67647
4.68,0.48583,-0.066015,0.26863,0.6098,0.6902
4.688,0.48289,-0.070905,0.27451,0.5902,0.69608
4.696,0.48094,-0.07824,0.27843,0.6,0.67059
4.704,0.47801,-0.08313,0.26863,0.58431,0.6549
4.712,0.47605,-0.08802,0.2902,0.59608,0.67059
4.72,0.47312,-0.09291,0.30392,0.60588,0.65098
4.728,0.47214,-0.10024,0.3098,0.60588,0.62941
4.736,0.47116,-0.10513,0.31373,0.5902,0.62549
4.744,0.46921,-0.11002,0.3098,0.60588,0.6451
4.752,0.46823,-0.11491,0.3,0.59608,0.67059
4.76,0.46823,-0.1198,0.31373,0.6451,0.65098
4.768,0.46823,-0.12469,0.34902,0.59608,0.59608
4.776,0.46725,-0.12958,0.3549,0.57059,0.6
4.784,0.46823,-0.13203,0.35882,0.57059,0.59608
4.792,0.46823,-0.13692,0.33922,0.57059,0.6098
4.8,0.46823,-0.13936,0.3451,0.55098,0.6
4.808,0.46921,-0.14425,0.33922,0.5451,0.6
4.816,0.47116,-0.1467,0.3549,0.58039,0.5902
4.824,0.4741,-0.15159,0.32941,0.58431,0.61569
4.832,0.47898,-0.15403,0.3098,0.5549,0.62941
4.84,0.48485,-0.15648,0.30392,0.56471,0.62549
4.848,0.49267,-0.16137,0.31373,0.58039,0.63529
4.856,0.50147,-0.16381,0.3098,0.5902,0.62941
4.864,0.51124,-0.1687,0.2902,0.57059,0.6549
4.872,0.52297,-0.17359,0.22941,0.71569,0.76078
4.88,0.53275,-0.17848,0.15882,0.8,0.83529
4.888,0.54252,-0.18582,0.3,0.67647,0.5902
4.896,0.55132,-0.19071,0.87059,0.25882,-0.011765
4.904,0.55914,-0.19804,1.298,-0.021569,-0.44706
4.912,0.56696,-0.20293,0.90196,0.14314,0.033333
4.92,0.57185,-0.20782,0.46078,0.3549,0.66471
4.928,0.57576,-0.21516,0.28431,0.32941,0.7549
4.936,0.57869,-0.22005,0.24902,0.4549,0.70588
4.944,0.58065,-0.22494,0.29412,0.55098,0.64118
4.952,0.58162,-0.22983,0.31961,0.6,0.61961
4.96,0.58065,-0.23716,0.32941,0.60588,0.61569
4.968,0.57771,-0.24205,0.3451,0.5902,0.59608
4.976,0.5738,-0.24939,0.3451,0.58039,0.59608
4.984,0.56891,-0.25428,0.35882,0.59608,0.58039
4.992,0.56305,-0.25917,0.37059,0.60588,0.56471
5,0.55621,-0.26406,0.3902,0.58431,0.53529
5.008,0.54936,-0.2665,0.38431,0.58431,0.52941
5.016,0.5435,-0.27139,0.3902,0.60588,0.51961
5.024,0.53763,-0.27628,0.40392,0.6098,0.5
5.032,0.53275,-0.28117,0.41961,0.57059,0.49412
5.04,0.52786,-0.28362,0.43529,0.6098,0.47451
5.048,0.52297,-0.28606,0.46078,0.5451,0.4451
5.056,0.51808,-0.29095,0.5098,0.52549,0.38431
5.064,0.51417,-0.2934,0.52549,0.5098,0.36471
5.072,0.51026,-0.2934,0.5549,0.50588,0.33529
5.08,0.50733,-0.29584,0.6098,0.49412,0.27451
5.088,0.5044,-0.29829,0.59608,0.48431,0.2549
5.096,0.50244,-0.29829,0.6,0.47059,0.22353
5.104,0.49951,-0.29829,0.62549,0.44902,0.2098
5.112,0.49853,-0.30073,0.67059,0.4549,0.15882
5.12,0.49756,-0.30073,0.68627,0.44902,0.1549
5.128,0.49658,-0.30073,0.67647,0.44902,0.16471
5.136,0.49658,-0.30073,0.6549,0.44902,0.20392
5.144,0.49658,-0.30073,0.61961,0.47059,0.25882
5.152,0.49658,-0.30073,0.56471,0.5,0.33922
5.16,0.49658,-0.30073,0.49412,0.5451,0.41961
5.168,0.49658,-0.29829,0.4549,0.57451,0.47451
5.176,0.49658,-0.29829,0.43529,0.5902,0.51569
5.184,0.49658,-0.29584,0.38039,0.57059,0.58431
5.192,0.49658,-0.29584,0.31961,0.61961,0.65098
5.2,0.49658,-0.2934,0.3,0.61569,0.66078
5.208,0.4956,-0.2934,0.27843,0.65098,0.69608
5.216,0.49462,-0.29095,0.27843,0.6098,0.69608
5.224,0.49365,-0.29095,0.26863,0.61569,0.71569
5.232,0.49169,-0.29095,0.26863,0.61569,0.72157
5.24,0.48974,-0.29095,0.27451,0.61961,0.69608
5.248,0.48876,-0.29095,0.3098,0.60588,0.66471
5.256,0.4868,-0.28851,0.31961,0.62941,0.6549
5.264,0.48485,-0.28851,0.27843,0.64118,0.7098
5.272,0.48387,-0.28851,0.26863,0.61569,0.71569
5.28,0.48192,-0.28851,0.26863,0.59608,0.70588
5.288,0.48094,-0.29095,0.26471,0.59608,0.71569
5.296,0.47898,-0.29095,0.29412,0.60588,0.67647
5.304,0.47703,-0.2934,0.31373,0.5902,0.64118
5.312,0.47507,-0.2934,0.3098,0.6,0.65098
5.32,0.47312,-0.29584,0.30392,0.61961,0.66471
5.328,0.47116,-0.29584,0.28431,0.59608,0.66078
5.336,0.46921,-0.29829,0.30392,0.6,0.65098
5.344,0.46823,-0.30073,0.31961,0.61961,0.66078
5.352,0.46628,-0.30318,0.3,0.62549,0.68039
5.36,0.4653,-0.30562,0.2902,0.58039,0.6902
5.368,0.46334,-0.30807,0.31373,0.57059,0.64118
5.376,0.46237,-0.31051,0.3451,0.57059,0.61569
5.384,0.46237,-0.31051,0.32941,0.58431,0.63529
5.392,0.46237,-0.31296,0.33529,0.5902,0.6451
5.4,0.46334,-0.31296,0.35882,0.59608,0.61961
5.408,0.46432,-0.31296,0.34902,0.6,0.6098
5.416,0.4653,-0.31296,0.38431,0.58431,0.57451
5.424,0.46628,-0.3154,0.39412,0.57451,0.56471
5.432,0.46823,-0.3154,0.3549,0.5549,0.6
5.44,0.47214,-0.3154,0.34902,0.56471,0.60588
5.448,0.47801,-0.3154,0.33922,0.57451,0.62549
5.456,0.48583,-0.31785,0.31373,0.56078,0.61961
5.464,0.49462,-0.31785,0.3,0.57451,0.6451
5.472,0.5044,-0.31785,0.31961,0.58431,0.62549
5.48,0.51515,-0.3154,0.32941,0.57059,0.61961
5.488,0.5259,-0.3154,0.32353,0.6,0.62549
5.496,0.53666,-0.3154,0.32941,0.57451,0.63529
5.504,0.54545,-0.3154,0.29412,0.7098,0.73529
5.512,0.55425,-0.31785,0.22353,0.77059,0.77647
5.52,0.56012,-0.31785,0.37451,0.57451,0.47059
5.528,0.565,-0.32029,0.94118,0.17843,-0.12157
5.536,0.56891,-0.32274,1.2569,-0.05098,-0.43725
5.544,0.57185,-0.32518,0.83137,0.17451,0.13922
5.552,0.5738,-0.32763,0.43529,0.3549,0.73529
5.56,0.5738,-0.32763,0.3,0.34902,0.77647
5.568,0.5738,-0.33007,0.28431,0.4902,0.68627
5.576,0.57185,-0.33007,0.33922,0.56078,0.62549
5.584,0.56891,-0.33252,0.33922,0.60588,0.6098
5.592,0.565,-0.33252,0.33529,0.61569,0.60588
5.6,0.56012,-0.33252,0.31373,0.5902,0.61569
5.608,0.55523,-0.33252,0.33922,0.58431,0.58039
5.616,0.55132,-0.33252,0.35882,0.6098,0.57059
5.624,0.54643,-0.33252,0.3549,0.57451,0.56078
5.632,0.54057,-0.33252,0.38431,0.57059,0.5451
5.64,0.53275,-0.33007,0.4,0.5902,0.51961
5.648,0.52493,-0.33007,0.41961,0.56078,0.48431
5.656,0.51711,-0.32763,0.4,0.58039,0.5098
5.664,0.50635,-0.32518,0.40392,0.6,0.52549
5.672,0.49267,-0.32274,0.3902,0.53922,0.49412
5.68,0.48289,-0.32274,0.4451,0.51961,0.43529
5.688,0.47605,-0.32029,0.48039,0.50588,0.4
5.696,0.47116,-0.31785,0.50588,0.4902,0.37451
5.704,0.46725,-0.3154,0.53529,0.52549,0.33922
5.712,0.46432,-0.31296,0.58039,0.48039,0.28431
5.72,0.46237,-0.31051,0.6,0.46471,0.24902
5.728,0.46139,-0.30807,0.62941,0.4549,0.21373
5.736,0.46041,-0.30562,0.65098,0.46078,0.16863
5.744,0.46041,-0.30318,0.67059,0.4451,0.13922
5.752,0.46041,-0.30073,0.67647,0.44902,0.1549
5.76,0.46139,-0.29829,0.65098,0.4098,0.17451
5.768,0.46139,-0.29584,0.6549,0.42941,0.18431
5.776,0.46237,-0.2934,0.66471,0.46471,0.22941
5.784,0.46237,-0.29095,0.56471,0.4902,0.31961
5.792,0.46237,-0.28851,0.5451,0.51569,0.37451
5.8,0.46237,-0.28606,0.47451,0.53529,0.46471
5.808,0.46139,-0.28362,0.41569,0.56471,0.53529
5.816,0.46139,-0.28117,0.3549,0.60588,0.62549
5.824,0.45943,-0.27873,0.33529,0.62549,0.66078
5.832,0.45748,-0.27628,0.3,0.63529,0.7
5.84,0.45455,-0.27384,0.28431,0.64118,0.72157
5.848,0.45161,-0.27139,0.28431,0.60588,0.71569
5.856,0.44966,-0.26895,0.26863,0.6,0.7098
5.864,0.44673,-0.26895,0.27843,0.60588,0.6902
5.872,0.44477,-0.2665,0.30392,0.62549,0.66471
5.88,0.44379,-0.2665,0.2902,0.64118,0.68627
5.888,0.44282,-0.26406,0.29412,0.6098,0.6902
5.896,0.44086,-0.26406,0.28431,0.62549,0.69608
5.904,0.43891,-0.26406,0.31373,0.62941,0.68039
5.912,0.43695,-0.26161,0.28431,0.59608,0.7098
5.92,0.43597,-0.26161,0.26471,0.61569,0.72549
5.928,0.435,-0.26161,0.3098,0.59608,0.66078
5.936,0.43304,-0.26161,0.3098,0.6098,0.6549
5.944,0.43109,-0.25917,0.2902,0.58431,0.67059
5.952,0.43011,-0.25917,0.3,0.58431,0.67059
5.96,0.42815,-0.25917,0.2902,0.5902,0.66471
5.968,0.42522,-0.25672,0.31961,0.57451,0.6451
5.976,0.42229,-0.25672,0.3,0.6098,0.66471
5.984,0.41935,-0.25428,0.32353,0.58431,0.66078
5.992,0.41642,-0.25428,0.31373,0.59608,0.67059
6,0.41447,-0.25183,0.32941,0.61961,0.67647
6.008,0.41349,-0.24939,0.32353,0.5902,0.65098
6.016,0.41251,-0.24939,0.31373,0.6,0.66471
6.024,0.41349,-0.24694,0.3451,0.63529,0.6451
6.032,0.41447,-0.2445,0.37059,0.59608,0.59608
6.04,0.41642,-0.2445,0.38039,0.56078,0.57059
6.048,0.4174,-0.24205,0.3902,0.5549,0.56078
6.056,0.42033,-0.23961,0.39412,0.55098,0.57451
6.064,0.42326,-0.23716,0.38431,0.57059,0.58431
6.072,0.42913,-0.23716,0.35882,0.56078,0.6098
6.08,0.43695,-0.23472,0.33529,0.57059,0.61961
6.088,0.44673,-0.23472,0.32941,0.5902,0.62941
6.096,0.45748,-0.23227,0.33922,0.57059,0.62941
6.104,0.47019,-0.23227,0.3,0.5549,0.65098
6.112,0.48192,-0.23227,0.32941,0.57059,0.65098
6.12,0.49169,-0.23227,0.33922,0.58431,0.6549
6.128,0.50244,-0.23227,0.3451,0.56471,0.63529
6.136,0.51417,-0.23227,0.28431,0.6902,0.71569
6.144,0.52493,-0.23472,0.22353,0.78039,0.79608
6.152,0.53372,-0.23472,0.3098,0.68039,0.5902
6.16,0.54154,-0.23716,0.81569,0.30392,0.0078431
6.168,0.54741,-0.23961,1.3118,-0.031373,-0.50196
6.176,0.55132,-0.24205,1.0314,0.062745,-0.13725
6.184,0.55425,-0.2445,0.5451,0.32353,0.63529
6.192,0.55327,-0.24694,0.32353,0.37059,0.81176
6.2,0.55132,-0.24939,0.27451,0.47451,0.7451
6.208,0.54839,-0.25183,0.33922,0.5451,0.62941
6.216,0.54448,-0.25183,0.35882,0.58039,0.59608
6.224,0.54057,-0.25428,0.3451,0.57451,0.59608
6.232,0.53372,-0.25672,0.33529,0.59608,0.60588
6.24,0.52688,-0.25672,0.3451,0.5902,0.6
6.248,0.51711,-0.25917,0.38431,0.6098,0.57059
6.256,0.50733,-0.25917,0.39412,0.5902,0.55098
6.264,0.49658,-0.25917,0.37451,0.5902,0.5549
6.272,0.4868,-0.25917,0.37059,0.5902,0.5451
6.28,0.47801,-0.25917,0.4,0.5902,0.52549
6.288,0.47019,-0.25917,0.4098,0.56471,0.50588
6.296,0.46334,-0.25917,0.41569,0.57451,0.50588
6.304,0.45846,-0.25917,0.42941,0.58431,0.48431
6.312,0.45455,-0.25917,0.46078,0.5451,0.42549
6.32,0.45161,-0.25917,0.49412,0.48431,0.38039
6.328,0.44868,-0.25917,0.51961,0.47451,0.34902
6.336,0.4477,-0.25672,0.53529,0.49412,0.32941
6.344,0.44673,-0.25672,0.56471,0.48039,0.2902
6.352,0.44673,-0.25428,0.5902,0.47059,0.2549
6.36,0.44673,-0.25428,0.61569,0.44902,0.2098
6.368,0.44673,-0.25183,0.66078,0.43529,0.16863
6.376,0.44673,-0.25183,0.67647,0.43529,0.1549
6.384,0.44673,-0.24939,0.66471,0.42941,0.1549
6.392,0.44673,-0.24694,0.67059,0.43922,0.1549
6.4,0.44575,-0.24694,0.66078,0.44902,0.18431
6.408,0.44379,-0.2445,0.64118,0.46078,0.22353
6.416,0.44379,-0.24205,0.6,0.4902,0.29412
6.424,0.44184,-0.23961,0.5451,0.52549,0.38039
6.432,0.43988,-0.23716,0.47451,0.55098,0.48039
6.44,0.43891,-0.23472,0.41961,0.58039,0.53529
6.448,0.43695,-0.23227,0.38039,0.59608,0.59608
6.456,0.435,-0.22738,0.3451,0.61569,0.65098
6.464,0.43304,-0.22494,0.3098,0.6098,0.68039
6.472,0.43206,-0.22249,0.2902,0.61961,0.7
6.48,0.43011,-0.2176,0.2902,0.61569,0.69608
6.488,0.42913,-0.21516,0.2902,0.64118,0.7
6.496,0.42815,-0.21027,0.2902,0.61961,0.70588
6.504,0.42717,-0.20782,0.2902,0.61569,0.69608
6.512,0.4262,-0.20293,0.3,0.61961,0.69608
6.52,0.42522,-0.20049,0.29412,0.62941,0.7
6.528,0.42424,-0.1956,0.2902,0.61961,0.69608
6.536,0.42229,-0.19315,0.28431,0.59608,0.7
6.544,0.42033,-0.19071,0.2902,0.6,0.6902
6.552,0.41838,-0.18826,0.3,0.59608,0.68627
6.56,0.41642,-0.18337,0.3098,0.60588,0.67647
6.568,0.41447,-0.18093,0.3,0.5902,0.68039
6.576,0.41251,-0.17848,0.30392,0.58431,0.67059
6.584,0.41056,-0.17604,0.29412,0.5902,0.68627
6.592,0.4086,-0.17359,0.3,0.5902,0.69608
6.6,0.40665,-0.17115,0.3,0.5902,0.7
6.608,0.40567,-0.1687,0.31373,0.5902,0.66078
6.616,0.40371,-0.16626,0.32353,0.59608,0.6451
6.624,0.40274,-0.16381,0.31373,0.58431,0.66078
6.632,0.40176,-0.16137,0.31373,0.58039,0.65098
6.64,0.3998,-0.15892,0.3451,0.56078,0.62941
6.648,0.39785,-0.15648,0.33922,0.58039,0.62549
6.656,0.39687,-0.15159,0.32941,0.59608,0.6451
6.664,0.39492,-0.14914,0.3549,0.6,0.62549
6.672,0.39296,-0.14425,0.37059,0.61569,0.61569
6.68,0.39198,-0.14181,0.3902,0.5902,0.5902
6.688,0.39198,-0.13692,0.4,0.58431,0.58431
6.696,0.39296,-0.13447,0.3902,0.56471,0.5902
6.704,0.39687,-0.13203,0.39412,0.56471,0.58039
6.712,0.40176,-0.12958,0.37059,0.56078,0.59608
6.72,0.4086,-0.12469,0.3549,0.56471,0.61569
6.728,0.4174,-0.12225,0.35882,0.56471,0.6098
6.736,0.42815,-0.1198,0.33529,0.57059,0.62549
6.744,0.43988,-0.11736,0.33529,0.57451,0.62941
6.752,0.45259,-0.11247,0.34902,0.58039,0.61961
6.76,0.46628,-0.11247,0.3451,0.5549,0.62549
6.768,0.47898,-0.11002,0.34902,0.56471,0.62941
6.776,0.48876,-0.10758,0.3098,0.52941,0.67647
6.784,0.49756,-0.10758,0.2549,0.7549,0.78627
6.792,0.50538,-0.10758,0.21373,0.78627,0.8
6.8,0.51026,-0.10758,0.61569,0.46471,0.2549
6.808,0.5132,-0.10758,1.1667,0.084314,-0.32745
6.816,0.51417,-0.10758,1.3118,-0.015686,-0.45686
6.824,0.5132,-0.10758,0.67647,0.28431,0.41569
6.832,0.51124,-0.10758,0.4098,0.38039,0.7549
6.84,0.50733,-0.10758,0.30392,0.43529,0.76667
6.848,0.50147,-0.10513,0.33529,0.51569,0.65098
6.856,0.49462,-0.10513,0.37451,0.51961,0.5902
6.864,0.48583,-0.10513,0.38431,0.56078,0.57451
6.872,0.47703,-0.10269,0.34902,0.6,0.6
6.88,0.46628,-0.10269,0.3549,0.60588,0.5902
6.888,0.4565,-0.10024,0.36471,0.58039,0.57451
6.896,0.44673,-0.0978,0.38431,0.57059,0.55098
6.904,0.43695,-0.0978,0.4,0.5902,0.5451
6.912,0.43011,-0.095355,0.4098,0.56471,0.52941
6.92,0.42326,-0.090465,0.4098,0.56078,0.52549
6.928,0.41544,-0.08802,0.42941,0.51961,0.50588
6.936,0.4086,-0.08313,0.4549,0.55098,0.47451
6.944,0.40274,-0.07824,0.46078,0.56471,0.46471
6.952,0.39687,-0.07335,0.46471,0.5451,0.4549
6.96,0.39198,-0.06846,0.49412,0.53529,0.41961
6.968,0.3871,-0.061125,0.52549,0.49412,0.37451
6.976,0.38416,-0.05379,0.53529,0.4902,0.35882
6.984,0.38319,-0.046455,0.58431,0.44902,0.3098
6.992,0.38221,-0.03912,0.6098,0.48431,0.27451
7,0.38221,-0.031785,0.62941,0.5,0.24902
7.008,0.38221,-0.02445,0.66471,0.47059,0.21373
7.016,0.38319,-0.017115,0.66471,0.42549,0.19412
7.024,0.38319,-0.00978,0.70588,0.40392,0.1549
7.032,0.38319,-0.002445,0.6902,0.39412,0.15882
7.04,0.38319,0.00489,0.68627,0.43529,0.17451
7.048,0.38319,0.01467,0.6902,0.41961,0.2
7.056,0.38319,0.02445,0.64118,0.47451,0.26863
7.064,0.38319,0.031785,0.59608,0.50588,0.33922
7.072,0.38319,0.03912,0.55098,0.51961,0.4
7.08,0.38221,0.046455,0.47059,0.56078,0.48431
7.088,0.38221,0.05379,0.39412,0.5902,0.56471
7.096,0.38221,0.061125,0.3549,0.56078,0.61569
7.104,0.38221,0.070905,0.33529,0.57451,0.6549
7.112,0.38221,0.080685,0.31373,0.59608,0.67647
7.12,0.38221,0.08802,0.27843,0.61569,0.70588
7.128,0.38221,0.0978,0.26863,0.61569,0.7098
7.136,0.38123,0.10758,0.2902,0.6,0.68627
7.144,0.37928,0.11491,0.29412,0.60588,0.6902
7.152,0.3783,0.12469,0.28431,0.6,0.7
7.16,0.37634,0.13203,0.2902,0.6098,0.70588
7.168,0.37439,0.13936,0.28431,0.6,0.69608
7.176,0.37146,0.1467,0.28431,0.6098,0.69608
7.184,0.36852,0.15159,0.2902,0.60588,0.69608
7.192,0.36559,0.15892,0.29412,0.59608,0.68039
7.2,0.36364,0.16381,0.3098,0.58039,0.66078
7.208,0.3607,0.17115,0.31373,0.58039,0.6549
7.216,0.35875,0.17604,0.32353,0.57059,0.66078
7.224,0.35777,0.18093,0.31961,0.58039,0.6549
7.232,0.35679,0.18826,0.32353,0.58431,0.65098
7.24,0.35386,0.19315,0.31961,0.58039,0.6451
7.248,0.35093,0.20049,0.32353,0.57059,0.6451
7.256,0.348,0.20538,0.31961,0.57059,0.6451
7.264,0.34506,0.21271,0.33922,0.57059,0.64118
7.272,0.34213,0.22249,0.33922,0.57059,0.62941
7.28,0.3392,0.22983,0.34902,0.57059,0.61569
7.288,0.33724,0.23716,0.35882,0.57451,0.60588
7.296,0.33724,0.2445,0.37059,0.59608,0.61569
7.304,0.33627,0.25428,0.38039,0.5902,0.6098
7.312,0.33627,0.26161,0.38431,0.5902,0.6
7.32,0.33724,0.26895,0.4,0.58431,0.57451
7.328,0.33822,0.27628,0.42549,0.56471,0.55098
7.336,0.3392,0.28362,0.40392,0.57451,0.56078
7.344,0.34213,0.29095,0.38039,0.56078,0.58039
7.352,0.348,0.29584,0.35882,0.55098,0.6
7.36,0.35582,0.30318,0.3451,0.5451,0.60588
7.368,0.36559,0.31051,0.33922,0.5451,0.6098
7.376,0.3783,0.3154,0.3451,0.56078,0.60588
7.384,0.39198,0.32029,0.33922,0.57059,0.62549
7.392,0.40665,0.32763,0.33922,0.55098,0.61961
7.4,0.42131,0.33007,0.33529,0.5451,0.63529
7.408,0.435,0.33496,0.29412,0.63529,0.68627
7.416,0.44575,0.33741,0.25882,0.7549,0.7451
7.424,0.45455,0.3423,0.2451,0.69608,0.61961
7.432,0.46237,0.34474,0.7098,0.42549,0.17451
7.44,0.47019,0.34719,1.2176,0.084314,-0.30196
7.448,0.47605,0.34719,1.2529,0.043137,-0.32157
7.456,0.47898,0.34963,0.55098,0.4,0.58039
7.464,0.48094,0.34963,0.33529,0.43529,0.78627
7.472,0.48192,0.34963,0.25882,0.4098,0.75098
7.48,0.48192,0.34963,0.31373,0.50588,0.6549
7.488,0.48094,0.34963,0.3549,0.56078,0.6098
7.496,0.47801,0.34963,0.35882,0.58431,0.60588
7.504,0.47214,0.34963,0.3451,0.59608,0.6
7.512,0.46725,0.34963,0.38039,0.59608,0.57059
7.52,0.46139,0.34963,0.39412,0.58431,0.5451
7.528,0.45357,0.34963,0.3902,0.57451,0.53922
7.536,0.44575,0.34963,0.4,0.58039,0.53529
7.544,0.43695,0.34963,0.4098,0.5902,0.52549
7.552,0.42913,0.34963,0.42941,0.57059,0.5098
7.56,0.42229,0.34963,0.4451,0.56078,0.50588
7.568,0.4174,0.34963,0.4549,0.56471,0.4902
7.576,0.41251,0.34963,0.47451,0.5451,0.46078
7.584,0.40958,0.34963,0.4902,0.55098,0.4549
7.592,0.40762,0.34963,0.51569,0.5549,0.42549
7.6,0.40665,0.34963,0.53529,0.53529,0.39412
7.608,0.40567,0.34963,0.57059,0.51569,0.3451
7.616,0.40567,0.34963,0.59608,0.5,0.3
7.624,0.40469,0.34963,0.62549,0.48039,0.26863
7.632,0.40274,0.34963,0.6549,0.48039,0.23922
7.64,0.40176,0.34963,0.67647,0.46471,0.21961
7.648,0.3998,0.34963,0.69608,0.44902,0.19412
7.656,0.39785,0.34963,0.70588,0.4549,0.18431
7.664,0.39687,0.34963,0.71569,0.46078,0.17843
7.672,0.39687,0.35208,0.69608,0.47451,0.21961
7.68,0.39883,0.35208,0.68039,0.4902,0.24902
7.688,0.40274,0.35208,0.62941,0.5,0.30392
7.696,0.4086,0.35452,0.58039,0.51961,0.37059
7.704,0.41447,0.35452,0.52941,0.53922,0.41961
7.712,0.43304,0.35697,0.4549,0.57451,0.50588
7.72,0.45846,0.35941,0.3902,0.58039,0.57451
7.728,0.47312,0.35941,0.33529,0.58039,0.62941
7.736,0.48192,0.36186,0.31961,0.5902,0.65098
7.744,0.48583,0.36675,0.3098,0.61569,0.6451
7.752,0.4868,0.36919,0.29412,0.61961,0.67059
7.76,0.48583,0.37164,0.29412,0.60588,0.68039
7.768,0.48485,0.37653,0.29412,0.61569,0.6902
7.776,0.48289,0.37897,0.27451,0.62549,0.71569
7.784,0.48192,0.38386,0.26863,0.61569,0.70588
7.792,0.48094,0.38631,0.27451,0.6098,0.69608
7.8,0.48094,0.3912,0.27843,0.60588,0.6902
7.808,0.48192,0.39364,0.27843,0.6,0.67647
7.816,0.48387,0.39609,0.3,0.59608,0.66078
7.824,0.48485,0.39853,0.29412,0.5902,0.6549
7.832,0.4868,0.40098,0.3,0.5902,0.66078
7.84,0.48778,0.40342,0.3098,0.5902,0.6451
7.848,0.48778,0.40831,0.31373,0.5902,0.63529
7.856,0.48778,0.41076,0.33529,0.5902,0.62549
7.864,0.4868,0.4132,0.3451,0.59608,0.62941
7.872,0.4868,0.41565,0.31373,0.58039,0.6451
7.88,0.4868,0.41809,0.31961,0.61569,0.64118
7.888,0.48583,0.42054,0.31373,0.58039,0.6451
7.896,0.48583,0.42298,0.31373,0.57059,0.64118
7.904,0.48485,0.42787,0.3098,0.56471,0.6451
7.912,0.48485,0.43032,0.3098,0.5902,0.6451
7.92,0.48485,0.43521,0.32941,0.6,0.62549
7.928,0.48387,0.43765,0.33922,0.59608,0.64118
7.936,0.48387,0.4401,0.3549,0.6098,0.61961
7.944,0.48485,0.44254,0.38431,0.59608,0.58039
7.952,0.48583,0.44743,0.3902,0.59608,0.57451
7.96,0.4868,0.44988,0.40392,0.6,0.56078
7.968,0.48876,0.45232,0.39412,0.57451,0.5549
7.976,0.49267,0.45232,0.37451,0.5549,0.56078
7.984,0.49951,0.45477,0.36471,0.57059,0.57451
7.992,0.50929,0.45721,0.34902,0.5902,0.6
8,0.52102,0.45721,0.33529,0.5902,0.61569
8.008,0.53177,0.45721,0.31373,0.57451,0.6451
8.016,0.54252,0.45721,0.3098,0.56078,0.6451
8.024,0.55523,0.45721,0.31373,0.5549,0.62941
8.032,0.56891,0.45477,0.32941,0.55098,0.61569
8.04,0.58162,0.45477,0.33922,0.58039,0.6098
8.048,0.5914,0.45477,0.27451,0.72157,0.72549
8.056,0.6002,0.45232,0.2098,0.79608,0.78039
8.064,0.60606,0.44988,0.40392,0.63529,0.47451
8.072,0.61095,0.44743,1.002,0.21961,-0.12157
8.08,0.61486,0.44499,1.3784,-0.037255,-0.50196
8.088,0.61779,0.4401,0.88039,0.12941,0.052941
8.096,0.61877,0.43765,0.41961,0.27843,0.67647
8.104,0.61877,0.43276,0.24902,0.35882,0.76078
8.112,0.61877,0.42787,0.2451,0.52549,0.7
8.12,0.61681,0.42543,0.31961,0.56471,0.62941
8.128,0.6129,0.42054,0.33529,0.59608,0.6098
8.136,0.60899,0.41809,0.33529,0.6098,0.61569
8.144,0.60215,0.4132,0.32353,0.59608,0.6
8.152,0.59531,0.40831,0.3451,0.6,0.58431
8.16,0.58651,0.40342,0.37059,0.61961,0.57451
8.168,0.57771,0.39853,0.38431,0.62941,0.57059
8.176,0.56891,0.39609,0.38039,0.60588,0.57451
8.184,0.56012,0.3912,0.3902,0.60588,0.53529
8.192,0.55132,0.38631,0.40392,0.59608,0.5098
8.2,0.5435,0.38386,0.4098,0.57451,0.5
8.208,0.53763,0.38142,0.42549,0.58431,0.5
8.216,0.53275,0.37653,0.46471,0.58431,0.4549
8.224,0.52786,0.37408,0.4902,0.57451,0.41961
8.232,0.52395,0.36919,0.50588,0.57059,0.40392
8.24,0.52102,0.3643,0.53922,0.5549,0.37451
8.248,0.51906,0.35941,0.55098,0.5451,0.33529
8.256,0.51808,0.35452,0.56471,0.51569,0.3098
8.264,0.51808,0.34963,0.58039,0.5,0.28431
8.272,0.51711,0.34474,0.6098,0.5,0.2549
8.28,0.51711,0.33985,0.64118,0.4902,0.21961
8.288,0.51613,0.33741,0.66471,0.47059,0.19412
8.296,0.51515,0.33252,0.68039,0.48039,0.17451
8.304,0.51417,0.32763,0.67059,0.51961,0.2
8.312,0.51417,0.32274,0.66471,0.4902,0.21373
8.32,0.51417,0.32029,0.65098,0.48431,0.2451
8.328,0.51417,0.3154,0.6,0.4902,0.30392
8.336,0.51417,0.31296,0.53529,0.53529,0.39412
8.344,0.51417,0.30807,0.46471,0.5902,0.4902
8.352,0.51417,0.30562,0.4098,0.6,0.56078
8.36,0.51417,0.30318,0.35882,0.61569,0.61569
8.368,0.5132,0.30073,0.31373,0.62549,0.66078
8.376,0.51222,0.29829,0.2902,0.6,0.67059
8.384,0.51026,0.2934,0.26863,0.60588,0.67647
8.392,0.50733,0.29095,0.26863,0.6098,0.6902
8.4,0.5044,0.28851,0.27843,0.61569,0.68627
8.408,0.50147,0.28362,0.26863,0.6098,0.69608
8.416,0.49853,0.28117,0.28431,0.61569,0.67647
8.424,0.4956,0.27628,0.2902,0.61569,0.67059
8.432,0.49267,0.27384,0.2902,0.62941,0.68039
8.44,0.49071,0.26895,0.27451,0.61569,0.69608
8.448,0.48974,0.2665,0.26863,0.61961,0.70588
8.456,0.48778,0.26161,0.27843,0.61569,0.71569
8.464,0.4868,0.25917,0.27451,0.62549,0.7098
8.472,0.4868,0.25428,0.26863,0.60588,0.7
8.48,0.48583,0.24939,0.26863,0.61569,0.68039
8.488,0.48583,0.2445,0.30392,0.6,0.6451
8.496,0.48485,0.24205,0.31373,0.63529,0.63529
8.504,0.48485,0.23716,0.32941,0.57451,0.62549
8.512,0.48583,0.23472,0.3098,0.58431,0.65098
8.52,0.48583,0.22983,0.3,0.59608,0.67059
8.528,0.48485,0.22738,0.30392,0.58039,0.66078
8.536,0.48289,0.22494,0.3,0.57059,0.6451
8.544,0.48192,0.22005,0.31373,0.57059,0.6451
8.552,0.47996,0.21516,0.31373,0.58039,0.64118
8.56,0.47801,0.21271,0.30392,0.58431,0.6451
8.568,0.47605,0.20782,0.30392,0.58039,0.65098
8.576,0.47507,0.20538,0.31373,0.6098,0.66078
8.584,0.47507,0.20293,0.33529,0.63529,0.6451
8.592,0.47703,0.20049,0.31961,0.59608,0.64118
8.6,0.48094,0.19804,0.36471,0.58039,0.5902
8.608,0.48485,0.19315,0.38039,0.57451,0.57059
8.616,0.48974,0.19071,0.4098,0.57451,0.53529
8.624,0.49756,0.18826,0.4,0.56471,0.5549
8.632,0.50831,0.18337,0.35882,0.56471,0.59608
8.64,0.52102,0.18093,0.3451,0.58039,0.6
8.648,0.53666,0.17604,0.37059,0.5549,0.57451
8.656,0.55132,0.17115,0.33922,0.55098,0.61569
8.664,0.56598,0.16626,0.32353,0.58431,0.64118
8.672,0.57967,0.16137,0.31373,0.57059,0.65098
8.68,0.59042,0.15648,0.31373,0.5549,0.62941
8.688,0.59922,0.15159,0.32941,0.57059,0.61961
8.696,0.60411,0.1467,0.33529,0.61569,0.65098
8.704,0.60802,0.13936,0.23333,0.78627,0.77059
8.712,0.60899,0.13203,0.18824,0.81176,0.8
8.72,0.60899,0.12469,0.55098,0.5098,0.31373
8.728,0.60899,0.11736,1.1471,0.088235,-0.31176
8.736,0.60899,0.10758,1.3373,-0.027451,-0.49804
8.744,0.60802,0.10024,0.72157,0.2098,0.28431
8.752,0.60802,0.09291,0.37059,0.31373,0.75098
8.76,0.60704,0.085575,0.25882,0.40392,0.78039
8.768,0.60606,0.07824,0.30392,0.51961,0.66471
8.776,0.60313,0.070905,0.32353,0.56471,0.61961
8.784,0.59922,0.066015,0.31373,0.61569,0.61569
8.792,0.59335,0.05868,0.3451,0.62549,0.60588
8.8,0.58553,0.051345,0.37059,0.58431,0.57451
8.808,0.57771,0.046455,0.38039,0.59608,0.57059
8.816,0.56794,0.03912,0.37451,0.61961,0.55098
8.824,0.55718,0.03423,0.38431,0.62941,0.5451
8.832,0.54545,0.02934,0.37059,0.58431,0.5549
8.84,0.5347,0.02445,0.39412,0.57451,0.5451
8.848,0.52493,0.01956,0.38431,0.5902,0.55098
8.856,0.51808,0.01467,0.42549,0.59608,0.5
8.864,0.51222,0.012225,0.46078,0.56078,0.4549
8.872,0.50929,0.007335,0.48039,0.53529,0.41569
8.88,0.50831,0.00489,0.49412,0.52549,0.40392
8.888,0.50831,0.002445,0.51961,0.51961,0.37451
8.896,0.50831,0,0.56471,0.52941,0.33922
8.904,0.50929,-0.00489,0.56078,0.52549,0.32941
8.912,0.51026,-0.007335,0.58431,0.4902,0.27843
8.92,0.51026,-0.00978,0.60588,0.48039,0.23922
8.928,0.51026,-0.012225,0.6451,0.47451,0.2
8.936,0.51026,-0.017115,0.67059,0.48039,0.16863
8.944,0.51026,-0.01956,0.6902,0.43922,0.14314
8.952,0.51026,-0.022005,0.6902,0.43529,0.1549
8.96,0.51026,-0.02445,0.66471,0.4549,0.17451
8.968,0.51026,-0.02445,0.67059,0.42549,0.19412
8.976,0.50929,-0.026895,0.63529,0.46471,0.23922
8.984,0.50831,-0.02934,0.58039,0.51569,0.31373
8.992,0.50635,-0.02934,0.52941,0.53922,0.38039
9,0.50538,-0.02934,0.47059,0.56471,0.47059
9.008,0.50538,-0.02934,0.3902,0.6,0.58039
9.016,0.50538,-0.02934,0.33922,0.6098,0.63529
9.024,0.50538,-0.02934,0.31373,0.60588,0.67647
9.032,0.5044,-0.031785,0.30392,0.61961,0.68039
9.04,0.50342,-0.031785,0.28431,0.61569,0.6902
9.048,0.50244,-0.031785,0.26863,0.61569,0.70588
9.056,0.50147,-0.03423,0.26471,0.6,0.71569
9.064,0.49951,-0.03423,0.28431,0.60588,0.69608
9.072,0.49853,-0.036675,0.27451,0.6,0.7098
9.08,0.49756,-0.036675,0.26863,0.62549,0.71569
9.088,0.4956,-0.03912,0.30392,0.64118,0.67059
9.096,0.49365,-0.03912,0.3,0.61569,0.68039
9.104,0.49169,-0.041565,0.3098,0.64118,0.67647
9.112,0.49071,-0.04401,0.27451,0.65098,0.68039
9.12,0.48974,-0.04401,0.29412,0.5902,0.67059
9.128,0.48876,-0.046455,0.31961,0.6,0.65098
9.136,0.48778,-0.0489,0.30392,0.61569,0.67059
9.144,0.48778,-0.051345,0.31373,0.58039,0.66471
9.152,0.48778,-0.05379,0.2902,0.5902,0.68627
9.16,0.48778,-0.056235,0.2902,0.58431,0.69608
9.168,0.48778,-0.05868,0.3098,0.5902,0.66471
9.176,0.4868,-0.05868,0.2902,0.60588,0.67647
9.184,0.48583,-0.061125,0.3098,0.59608,0.6549
9.192,0.48485,-0.06357,0.33529,0.58039,0.65098
9.2,0.48485,-0.066015,0.31373,0.57451,0.66471
9.208,0.48583,-0.06846,0.31373,0.57451,0.65098
9.216,0.4868,-0.06846,0.31373,0.57059,0.6451
9.224,0.48876,-0.070905,0.31373,0.58039,0.63529
9.232,0.48974,-0.070905,0.32353,0.59608,0.62549
9.24,0.49071,-0.07335,0.33529,0.6,0.65098
9.248,0.49071,-0.07335,0.34902,0.59608,0.63529
9.256,0.49169,-0.075795,0.37059,0.6451,0.60588
9.264,0.49462,-0.075795,0.3902,0.56471,0.57451
9.272,0.49951,-0.075795,0.37059,0.57059,0.58039
9.28,0.50733,-0.07824,0.3902,0.56471,0.56471
9.288,0.51808,-0.07824,0.38431,0.57059,0.58039
9.296,0.53079,-0.07824,0.35882,0.55098,0.5902
9.304,0.54545,-0.080685,0.38039,0.5451,0.57059
9.312,0.55816,-0.080685,0.36471,0.57451,0.60588
9.32,0.56989,-0.08313,0.31961,0.58431,0.6451
9.328,0.58162,-0.08313,0.3,0.57059,0.65098
9.336,0.59335,-0.08802,0.31373,0.58039,0.63529
9.344,0.60508,-0.090465,0.32353,0.58431,0.6451
9.352,0.61486,-0.09291,0.33529,0.55098,0.61569
9.36,0.62268,-0.0978,0.33922,0.6098,0.6451
9.368,0.62952,-0.10269,0.23922,0.77059,0.7902
9.376,0.63343,-0.10758,0.20392,0.7902,0.79608
9.384,0.63636,-0.11247,0.6549,0.41961,0.19412
9.392,0.63734,-0.11736,1.2275,0.023529,-0.41765
9.4,0.63832,-0.12225,1.3373,-0.05098,-0.50196
9.408,0.63734,-0.12714,0.6451,0.3098,0.43529
9.416,0.63539,-0.13203,0.4098,0.37059,0.72157
9.424,0.63148,-0.13447,0.3,0.35882,0.74118
9.432,0.62659,-0.13936,0.33922,0.52941,0.6451
9.44,0.61975,-0.14181,0.34902,0.58039,0.61569
9.448,0.61095,-0.14425,0.33529,0.6,0.61961
9.456,0.60313,-0.14914,0.32941,0.59608,0.60588
9.464,0.59433,-0.15159,0.31961,0.6098,0.6098
9.472,0.58553,-0.15159,0.33922,0.63529,0.59608
9.48,0.57674,-0.15403,0.37059,0.6,0.5549
9.488,0.56794,-0.15648,0.35882,0.57059,0.5451
9.496,0.56012,-0.15648,0.3902,0.57451,0.52941
9.504,0.55327,-0.15892,0.38431,0.56078,0.52549
9.512,0.54839,-0.16137,0.40392,0.55098,0.5
9.52,0.54545,-0.16137,0.4098,0.5451,0.48431
9.528,0.54154,-0.16137,0.43922,0.55098,0.47059
9.536,0.53959,-0.16137,0.4549,0.53922,0.43922
9.544,0.53763,-0.16137,0.47451,0.53529,0.4098
9.552,0.53666,-0.16137,0.51569,0.5451,0.3902
9.56,0.53568,-0.16137,0.55098,0.5549,0.3451
9.568,0.5347,-0.16137,0.5902,0.56078,0.3
9.576,0.5347,-0.15892,0.59608,0.48039,0.2549
9.584,0.5347,-0.15892,0.6,0.44902,0.21373
9.592,0.5347,-0.15892,0.62941,0.41961,0.18431
9.6,0.5347,-0.15892,0.63529,0.41569,0.16863
9.608,0.53568,-0.15892,0.69608,0.41569,0.12353
9.616,0.53763,-0.15648,0.7,0.44902,0.13333
9.624,0.53861,-0.15648,0.63529,0.47059,0.19412
9.632,0.53959,-0.15648,0.65098,0.46078,0.2
9.64,0.53959,-0.15648,0.62549,0.47059,0.2549
9.648,0.53959,-0.15648,0.58431,0.46078,0.31373
9.656,0.53959,-0.15403,0.52941,0.51961,0.3902
9.664,0.53763,-0.15403,0.4451,0.57059,0.4902
9.672,0.53666,-0.15159,0.37059,0.6098,0.59608
9.68,0.53372,-0.15159,0.31961,0.61961,0.66078
9.688,0.53177,-0.14914,0.3,0.63529,0.6902
9.696,0.52981,-0.1467,0.2902,0.61961,0.69608
9.704,0.52884,-0.1467,0.3,0.6549,0.67059
9.712,0.52688,-0.14425,0.30392,0.61961,0.67647
9.72,0.5259,-0.14181,0.27843,0.6098,0.69608
9.728,0.52493,-0.14181,0.28431,0.5902,0.6902
9.736,0.52395,-0.13936,0.26863,0.6,0.7
9.744,0.52199,-0.13936,0.25882,0.62549,0.7098
9.752,0.51906,-0.13936,0.27451,0.61569,0.7
9.76,0.49853,-0.13692,0.2902,0.61569,0.69608
9.768,0.46921,-0.13692,0.27843,0.62941,0.72549
9.776,0.45161,-0.13692,0.26863,0.6098,0.73529
9.784,0.44086,-0.13692,0.26863,0.61569,0.7098
9.792,0.43402,-0.13692,0.2902,0.6098,0.68039
9.8,0.42815,-0.13692,0.27451,0.59608,0.7
9.808,0.42326,-0.13692,0.24902,0.62549,0.70588
9.816,0.42033,-0.13692,0.33529,0.5902,0.62549
9.824,0.4174,-0.13936,0.32941,0.58431,0.6098
9.832,0.41544,-0.13936,0.35882,0.6098,0.6
9.84,0.41349,-0.14181,0.31373,0.58431,0.6549
9.848,0.41349,-0.14181,0.31373,0.58039,0.66471
9.856,0.41349,-0.14181,0.27843,0.57059,0.68039
9.864,0.41349,-0.14181,0.26863,0.57451,0.6902
9.872,0.41251,-0.14425,0.28431,0.5902,0.68039
9.88,0.41251,-0.14425,0.30392,0.59608,0.66078
9.888,0.41251,-0.14425,0.31373,0.57059,0.64118
9.896,0.41251,-0.14425,0.31961,0.58431,0.62941
9.904,0.41251,-0.14425,0.31373,0.5902,0.63529
9.912,0.41349,-0.14425,0.31961,0.57059,0.66078
9.92,0.41544,-0.14425,0.30392,0.60588,0.68627
9.928,0.42033,-0.14425,0.3549,0.6098,0.62549
9.936,0.42815,-0.14425,0.35882,0.58431,0.59608
9.944,0.43891,-0.14425,0.40392,0.57451,0.56078
9.952,0.45259,-0.14425,0.3902,0.57059,0.5549
9.96,0.46823,-0.1467,0.37451,0.57451,0.58039
9.968,0.4868,-0.1467,0.37451,0.58431,0.5902
9.976,0.50538,-0.14914,0.38431,0.56078,0.56078
9.984,0.52395,-0.14914,0.39412,0.6,0.5549
9.992,0.54252,-0.15159,0.34902,0.5451,0.5902
10,0.55816,-0.15403,0.31373,0.5549,0.62549
10.008,0.57087,-0.15892,0.30392,0.55098,0.63529
10.016,0.5826,-0.16137,0.31373,0.5549,0.64118
10.024,0.59335,-0.16626,0.3,0.56471,0.63529
10.032,0.60313,-0.17115,0.26863,0.68627,0.7451
10.04,0.61095,-0.17604,0.21961,0.79608,0.81176
10.048,0.61584,-0.17848,0.33922,0.65098,0.5549
10.056,0.61779,-0.18337,0.90588,0.23922,-0.072549
10.064,0.61877,-0.18826,1.3471,-0.056863,-0.50196
10.072,0.61779,-0.19315,0.97059,0.1098,-0.056863
10.08,0.61388,-0.1956,0.5098,0.37451,0.66078
10.088,0.60802,-0.20049,0.31373,0.3902,0.78039
10.096,0.6002,-0.20293,0.27451,0.48431,0.71569
10.104,0.59042,-0.20538,0.33922,0.53922,0.61569
10.112,0.58065,-0.21027,0.3549,0.56078,0.58431
10.12,0.56891,-0.21271,0.35882,0.59608,0.57451
10.128,0.55718,-0.21516,0.33922,0.64118,0.5902
10.136,0.54545,-0.21516,0.35882,0.57059,0.57451
10.144,0.5347,-0.2176,0.36471,0.59608,0.56471
10.152,0.52297,-0.2176,0.33922,0.58431,0.57451
10.16,0.51124,-0.22005,0.3549,0.5902,0.57059
10.168,0.50049,-0.22005,0.37451,0.59608,0.57451
10.176,0.49267,-0.22005,0.40392,0.57451,0.52549
10.184,0.4868,-0.22005,0.4098,0.5902,0.51961
10.192,0.48387,-0.22249,0.4451,0.5451,0.47059
10.2,0.48192,-0.22249,0.46471,0.52941,0.41961
10.208,0.48094,-0.22249,0.43529,0.52549,0.41569
10.216,0.48094,-0.22249,0.44902,0.5549,0.43529
10.224,0.47996,-0.22249,0.50588,0.50588,0.37059
10.232,0.48094,-0.22249,0.52941,0.48431,0.32353
10.24,0.48192,-0.22005,0.5451,0.49412,0.29412
10.248,0.48387,-0.22005,0.57059,0.49412,0.26863
10.256,0.48387,-0.22005,0.61569,0.46078,0.23333
10.264,0.48485,-0.22005,0.62941,0.43922,0.2098
10.272,0.48485,-0.2176,0.6549,0.46471,0.16863
10.28,0.48485,-0.2176,0.64118,0.42941,0.14314
10.288,0.48485,-0.21516,0.6451,0.41961,0.15882
10.296,0.48485,-0.21516,0.67059,0.41961,0.16863
10.304,0.48485,-0.21271,0.66471,0.4451,0.2098
10.312,0.48387,-0.21027,0.62941,0.49412,0.27451
10.32,0.48289,-0.20782,0.58431,0.50588,0.32941
10.328,0.47996,-0.20538,0.52549,0.5451,0.39412
10.336,0.47703,-0.20293,0.4549,0.58039,0.48431
10.344,0.47312,-0.20049,0.37451,0.58431,0.58039
10.352,0.47019,-0.19804,0.32353,0.60588,0.65098
10.36,0.46628,-0.1956,0.27451,0.61569,0.7
10.368,0.46334,-0.19315,0.2549,0.62549,0.72549
10.376,0.46041,-0.19315,0.27451,0.61569,0.71569
10.384,0.4565,-0.19071,0.27843,0.62941,0.72549
10.392,0.45357,-0.18826,0.26863,0.61961,0.73529
10.4,0.44966,-0.18582,0.27451,0.64118,0.73529
10.408,0.44575,-0.18582,0.26863,0.63529,0.74118
10.416,0.44282,-0.18337,0.28431,0.61569,0.7
10.424,0.43988,-0.18337,0.3,0.6,0.67059
10.432,0.43695,-0.18093,0.30392,0.60588,0.67059
10.44,0.43402,-0.18093,0.2902,0.61569,0.67647
10.448,0.43011,-0.17848,0.28431,0.65098,0.69608
10.456,0.4262,-0.17848,0.28431,0.61569,0.70588
10.464,0.42229,-0.17848,0.2902,0.59608,0.69608
10.472,0.41838,-0.17848,0.29412,0.60588,0.68627
10.48,0.41544,-0.17848,0.2902,0.5902,0.67647
10.488,0.41349,-0.17848,0.29412,0.58431,0.67059
10.496,0.41251,-0.17848,0.30392,0.5902,0.6549
10.504,0.41251,-0.17604,0.31373,0.58039,0.65098
10.512,0.41251,-0.17604,0.3098,0.59608,0.6549
10.52,0.41153,-0.17604,0.30392,0.59608,0.67059
10.528,0.41153,-0.17604,0.29412,0.5902,0.68039
10.536,0.41056,-0.17359,0.3,0.5902,0.67059
10.544,0.40958,-0.17359,0.30392,0.58431,0.66471
10.552,0.40958,-0.17359,0.31373,0.58039,0.65098
10.56,0.40958,-0.17359,0.32941,0.57059,0.64118
10.568,0.41056,-0.17115,0.33529,0.5902,0.62549
10.576,0.41251,-0.17115,0.33922,0.61569,0.64118
10.584,0.41544,-0.17115,0.33529,0.61569,0.6451
10.592,0.41935,-0.17115,0.34902,0.60588,0.62941
10.6,0.4262,-0.17115,0.37451,0.59608,0.6
10.608,0.43402,-0.17115,0.38431,0.58431,0.58431
10.616,0.44379,-0.17359,0.35882,0.5549,0.5902
10.624,0.45846,-0.17359,0.34902,0.55098,0.6
10.632,0.47507,-0.17359,0.33922,0.56471,0.61569
10.64,0.49462,-0.17604,0.33529,0.57059,0.61961
10.648,0.51613,-0.17848,0.33922,0.58039,0.62549
10.656,0.53568,-0.17848,0.32353,0.56078,0.63529
10.664,0.55523,-0.18337,0.31373,0.56078,0.64118
10.672,0.57283,-0.18582,0.32353,0.56471,0.62549
10.68,0.58847,-0.18826,0.31373,0.57059,0.64118
10.688,0.60313,-0.19071,0.2902,0.58431,0.66471
10.696,0.61388,-0.19315,0.25882,0.72157,0.75098
10.704,0.62072,-0.1956,0.2,0.77647,0.8
10.712,0.62463,-0.19804,0.41569,0.58039,0.4549
10.72,0.62659,-0.20049,0.98235,0.18824,-0.15686
10.728,0.62659,-0.20538,1.2765,-0.041176,-0.46275
10.736,0.62463,-0.20782,0.83529,0.18431,0.13922
10.744,0.62072,-0.21027,0.4451,0.39412,0.73529
10.752,0.61486,-0.21271,0.26863,0.38431,0.80588
10.76,0.60802,-0.21516,0.2549,0.5,0.72157
10.768,0.59922,-0.21516,0.31961,0.5451,0.64118
10.776,0.58944,-0.2176,0.33529,0.58039,0.62549
10.784,0.57771,-0.2176,0.32941,0.61961,0.63529
10.792,0.565,-0.22005,0.3451,0.62549,0.61569
10.8,0.55327,-0.22005,0.33922,0.5902,0.6
10.808,0.54252,-0.22005,0.3451,0.58039,0.58039
10.816,0.53275,-0.22005,0.38039,0.56078,0.52941
10.824,0.52199,-0.2176,0.4,0.56471,0.5098
10.832,0.51124,-0.21516,0.40392,0.55098,0.50588
10.84,0.50049,-0.21271,0.39412,0.56078,0.52549
10.848,0.48974,-0.21271,0.4098,0.55098,0.51569
10.856,0.48192,-0.21027,0.43529,0.52941,0.48431
10.864,0.47507,-0.20782,0.4451,0.53922,0.46471
10.872,0.46921,-0.20538,0.47059,0.53529,0.43529
10.88,0.46432,-0.20293,0.49412,0.51961,0.40392
10.888,0.46041,-0.20049,0.52941,0.49412,0.3549
10.896,0.4565,-0.1956,0.57451,0.4902,0.3098
10.904,0.45455,-0.19315,0.5902,0.48039,0.28431
10.912,0.45357,-0.18826,0.62549,0.47451,0.2451
10.92,0.45161,-0.18582,0.63529,0.43529,0.22353
10.928,0.44966,-0.18093,0.6451,0.42941,0.19412
10.936,0.44868,-0.17604,0.66471,0.42549,0.17843
10.944,0.4477,-0.17115,0.67647,0.41961,0.16863
10.952,0.44379,-0.16626,0.68039,0.3902,0.17451
10.96,0.43988,-0.15892,0.67059,0.35882,0.19412
10.968,0.43597,-0.15159,0.65098,0.46471,0.23922
10.976,0.43206,-0.14425,0.60588,0.4902,0.31373
10.984,0.42717,-0.13692,0.53922,0.52549,0.39412
10.992,0.42229,-0.12958,0.4902,0.53922,0.46471
11,0.41838,-0.12225,0.41569,0.58039,0.5549
11.008,0.41544,-0.11491,0.35882,0.6098,0.61961
11.016,0.41153,-0.10758,0.3451,0.6,0.64118
11.024,0.40665,-0.10024,0.32941,0.5902,0.67647
11.032,0.3998,-0.09291,0.28431,0.58039,0.72157
11.04,0.39492,-0.085575,0.2549,0.61961,0.73529
11.048,0.39003,-0.07824,0.2451,0.5902,0.72157
11.056,0.38514,-0.070905,0.26863,0.6,0.6902
11.064,0.38025,-0.06357,0.26863,0.6098,0.6902
11.072,0.37732,-0.056235,0.28431,0.61569,0.68039
11.08,0.37439,-0.0489,0.3,0.6,0.67647
11.088,0.37146,-0.041565,0.2902,0.59608,0.68627
11.096,0.36852,-0.036675,0.2902,0.56471,0.68039
11.104,0.36657,-0.02934,0.28431,0.59608,0.6902
11.112,0.36559,-0.022005,0.28431,0.6,0.68627
11.12,0.36266,-0.01467,0.2902,0.57451,0.68039
11.128,0.35973,-0.00978,0.30392,0.60588,0.67647
11.136,0.35484,-0.002445,0.28431,0.59608,0.6902
11.144,0.34995,0.002445,0.2902,0.5902,0.66471
11.152,0.34506,0.007335,0.30392,0.53922,0.66078
11.16,0.34213,0.012225,0.3,0.57059,0.67059
11.168,0.34115,0.017115,0.31373,0.58431,0.66471
11.176,0.34018,0.022005,0.3,0.5902,0.67059
11.184,0.34018,0.026895,0.31373,0.57059,0.64118
11.192,0.34018,0.031785,0.31961,0.58039,0.64118
11.2,0.34018,0.036675,0.31373,0.5902,0.64118
11.208,0.34018,0.04401,0.33922,0.56471,0.62941
11.216,0.34115,0.0489,0.33922,0.5451,0.62941
11.224,0.34213,0.056235,0.32941,0.6098,0.64118
11.232,0.34213,0.061125,0.33922,0.62941,0.62549
11.24,0.34311,0.066015,0.36471,0.60588,0.60588
11.248,0.34409,0.07335,0.39412,0.5549,0.57451
11.256,0.34702,0.07824,0.38039,0.57059,0.5902
11.264,0.35093,0.085575,0.35882,0.57059,0.59608
11.272,0.35777,0.090465,0.35882,0.58431,0.6
11.28,0.36755,0.0978,0.3549,0.56471,0.6098
11.288,0.38221,0.10269,0.35882,0.56078,0.6
11.296,0.3998,0.11002,0.33922,0.56471,0.61961
11.304,0.4174,0.11491,0.31373,0.56471,0.65098
11.312,0.435,0.12225,0.31961,0.53529,0.62549
11.32,0.45552,0.12714,0.31373,0.55098,0.62549
11.328,0.47605,0.13203,0.33529,0.56471,0.61569
11.336,0.49756,0.13447,0.34902,0.56078,0.6
11.344,0.51711,0.13936,0.3,0.62941,0.66471
11.352,0.53568,0.14181,0.26471,0.7451,0.73529
11.36,0.55132,0.14425,0.3451,0.66471,0.55098
11.368,0.56403,0.1467,0.78627,0.37059,0.084314
11.376,0.57478,0.14914,1.2529,0.062745,-0.34706
11.384,0.5826,0.15159,1.0216,0.058824,-0.060784
11.392,0.58749,0.15403,0.58431,0.46471,0.62549
11.4,0.58749,0.15648,0.38431,0.5,0.78627
11.408,0.58553,0.15892,0.27843,0.47059,0.75098
11.416,0.57967,0.15892,0.31961,0.52549,0.64118
11.424,0.57185,0.16137,0.33529,0.56078,0.6098
11.432,0.56012,0.16381,0.33529,0.57059,0.6098
11.44,0.54741,0.16626,0.33529,0.57451,0.6
11.448,0.53275,0.17115,0.33922,0.57059,0.5902
11.456,0.51711,0.17604,0.35882,0.58431,0.57451
11.464,0.50342,0.18093,0.37059,0.58039,0.56078
11.472,0.49169,0.18582,0.38431,0.57059,0.53922
11.48,0.48094,0.18826,0.41569,0.56471,0.52941
11.488,0.47116,0.19315,0.4098,0.5549,0.5
11.496,0.46334,0.19804,0.4451,0.5451,0.46078
11.504,0.45748,0.20293,0.43922,0.5451,0.46078
11.512,0.45259,0.20538,0.43922,0.53529,0.46078
11.52,0.4477,0.21027,0.4549,0.52941,0.4451
11.528,0.44379,0.21516,0.47451,0.51961,0.42549
11.536,0.43891,0.22005,0.51961,0.51961,0.38431
11.544,0.43402,0.22494,0.55098,0.50588,0.35882
11.552,0.42913,0.22983,0.57059,0.48431,0.32941
11.56,0.42326,0.23227,0.6,0.46471,0.28431
11.568,0.41935,0.23716,0.62549,0.4549,0.2549
11.576,0.41642,0.23961,0.66078,0.4451,0.2098
11.584,0.41447,0.24205,0.67647,0.43529,0.17843
11.592,0.41447,0.2445,0.6902,0.43529,0.16863
11.6,0.41349,0.24939,0.70588,0.46078,0.17451
11.608,0.41447,0.25183,0.6902,0.46471,0.18824
11.616,0.41447,0.25428,0.67059,0.44902,0.23922
11.624,0.41642,0.25428,0.62941,0.47451,0.28431
11.632,0.41838,0.25672,0.56471,0.51569,0.35882
11.64,0.41935,0.25917,0.5,0.53529,0.4451
11.648,0.41935,0.26161,0.42549,0.57059,0.53922
11.656,0.4174,0.26406,0.38431,0.6,0.6
11.664,0.41544,0.26406,0.3549,0.60588,0.61961
11.672,0.41349,0.2665,0.3098,0.6,0.66078
11.68,0.41251,0.2665,0.2902,0.60588,0.68627
11.688,0.41251,0.26895,0.27451,0.62549,0.69608
11.696,0.41251,0.26895,0.26471,0.6098,0.7098
11.704,0.41349,0.26895,0.25882,0.60588,0.7098
11.712,0.41349,0.26895,0.26863,0.6098,0.71569
11.72,0.41251,0.26895,0.26863,0.6,0.71569
11.728,0.41153,0.26895,0.26863,0.59608,0.6902
11.736,0.40958,0.26895,0.27843,0.60588,0.67647
11.744,0.40762,0.26895,0.28431,0.6,0.67059
11.752,0.40567,0.2665,0.2902,0.60588,0.66471
11.76,0.40469,0.2665,0.3,0.5902,0.66078
11.768,0.40469,0.26406,0.28431,0.6,0.66471
11.776,0.40567,0.26406,0.30392,0.64118,0.6451
11.784,0.40665,0.26161,0.31373,0.58431,0.65098
11.792,0.40665,0.26161,0.31373,0.58039,0.66078
11.8,0.40665,0.25917,0.31373,0.57451,0.66471
11.808,0.41544,0.25917,0.31373,0.57451,0.6451
11.816,0.42815,0.25917,0.31961,0.5902,0.65098
11.824,0.43304,0.25672,0.29412,0.58039,0.66078
11.832,0.43597,0.25672,0.30392,0.58039,0.6549
11.84,0.43597,0.25917,0.31373,0.57059,0.64118
11.848,0.43597,0.25917,0.31961,0.57059,0.62941
11.856,0.43402,0.26161,0.3098,0.56471,0.6451
11.864,0.43304,0.26161,0.31961,0.57059,0.63529
11.872,0.43206,0.26406,0.33529,0.57059,0.62549
11.88,0.43304,0.26406,0.3451,0.5902,0.62549
11.888,0.43402,0.2665,0.3549,0.59608,0.62941
11.896,0.43597,0.2665,0.37059,0.60588,0.6
11.904,0.43988,0.26895,0.38039,0.57451,0.58431
11.912,0.44379,0.27139,0.38039,0.56471,0.57451
11.92,0.44966,0.27384,0.38431,0.55098,0.57451
11.928,0.45846,0.27628,0.35882,0.57451,0.6
11.936,0.46921,0.27873,0.35882,0.56078,0.60588
11.944,0.48192,0.28362,0.35882,0.5549,0.6
11.952,0.4956,0.28606,0.3451,0.57059,0.6098
11.96,0.51222,0.28851,0.33922,0.6098,0.60588
11.968,0.52884,0.29095,0.32941,0.5451,0.61961
11.976,0.54643,0.29095,0.31961,0.55098,0.63529
11.984,0.56305,0.2934,0.33922,0.57451,0.61569
11.992,0.57771,0.2934,0.32941,0.58039,0.62941
12,0.59042,0.2934,0.27451,0.70588,0.7451
12.008,0.59922,0.29584,0.2,0.79608,0.8
12.016,0.60802,0.29584,0.41569,0.64118,0.48039
12.024,0.61486,0.29584,0.97059,0.22353,-0.086275
12.032,0.62072,0.29584,1.3373,-0.041176,-0.46863
12.04,0.62366,0.29584,0.89608,0.13333,0.04902
12.048,0.62659,0.29584,0.46078,0.32353,0.65098
12.056,0.62757,0.29584,0.2902,0.36471,0.75098
12.064,0.62757,0.29584,0.26863,0.47451,0.68627
12.072,0.62561,0.2934,0.31961,0.5451,0.62941
12.08,0.6217,0.2934,0.3451,0.6,0.60588
12.088,0.61681,0.2934,0.33529,0.60588,0.61961
12.096,0.60997,0.2934,0.33922,0.6,0.6
12.104,0.60215,0.29095,0.34902,0.59608,0.58431
12.112,0.59433,0.29095,0.3549,0.59608,0.59608
12.12,0.58553,0.29095,0.3902,0.6,0.53922
12.128,0.57478,0.29095,0.40392,0.6098,0.52941
12.136,0.565,0.28851,0.4098,0.62941,0.51961
12.144,0.55621,0.28851,0.42941,0.57451,0.50588
12.152,0.54839,0.28606,0.42549,0.56471,0.50588
12.16,0.54154,0.28606,0.43529,0.55098,0.4902
12.168,0.53568,0.28362,0.44902,0.56471,0.48431
12.176,0.53079,0.28117,0.47059,0.56471,0.47059
12.184,0.52786,0.28117,0.4902,0.55098,0.4451
12.192,0.52493,0.27873,0.51961,0.55098,0.39412
12.2,0.52297,0.27628,0.56078,0.5451,0.33922
12.208,0.52102,0.27628,0.5902,0.51961,0.3
12.216,0.51906,0.27384,0.62941,0.49412,0.24902
12.224,0.51808,0.27139,0.65098,0.49412,0.21961
12.232,0.51613,0.26895,0.68627,0.47451,0.17843
12.24,0.51515,0.26895,0.7,0.47451,0.15882
12.248,0.51417,0.2665,0.70588,0.46078,0.16863
12.256,0.51515,0.26406,0.6902,0.47451,0.17451
12.264,0.51613,0.26161,0.68039,0.44902,0.19412
12.272,0.51711,0.26161,0.67647,0.48039,0.22941
12.28,0.51711,0.25917,0.63529,0.50588,0.2902
12.288,0.51711,0.25917,0.57059,0.52549,0.36471
12.296,0.51613,0.25672,0.50588,0.58431,0.44902
12.304,0.51515,0.25672,0.41569,0.56078,0.5451
12.312,0.51222,0.25428,0.36471,0.57059,0.60588
12.32,0.50831,0.25428,0.32353,0.60588,0.6451
12.328,0.5044,0.25183,0.3,0.60588,0.67059
12.336,0.50147,0.25183,0.2902,0.6098,0.6902
12.344,0.49853,0.24939,0.27451,0.60588,0.7098
12.352,0.49658,0.24939,0.26863,0.62549,0.71569
12.36,0.49462,0.24694,0.27843,0.62941,0.7098
12.368,0.49462,0.24694,0.27451,0.61961,0.7
12.376,0.49365,0.2445,0.26863,0.62549,0.7
12.384,0.49365,0.2445,0.27451,0.60588,0.69608
12.392,0.49365,0.24205,0.2902,0.59608,0.66471
12.4,0.49462,0.23961,0.29412,0.5902,0.67059
12.408,0.49462,0.23716,0.2902,0.6098,0.68039
12.416,0.49462,0.23472,0.31373,0.6,0.66471
12.424,0.49365,0.23227,0.3098,0.60588,0.65098
12.432,0.49071,0.22983,0.3,0.58431,0.66078
12.44,0.48778,0.22494,0.29412,0.5902,0.67059
12.448,0.48485,0.22249,0.32353,0.62549,0.6451
12.456,0.48094,0.22005,0.31961,0.57451,0.65098
12.464,0.47801,0.2176,0.3098,0.57059,0.65098
12.472,0.4741,0.21516,0.31373,0.57059,0.6451
12.48,0.47116,0.21271,0.30392,0.58039,0.6451
12.488,0.46725,0.21027,0.31373,0.56471,0.65098
12.496,0.46432,0.20782,0.32941,0.57059,0.6451
12.504,0.46041,0.20538,0.32353,0.58431,0.6549
12.512,0.45748,0.20538,0.31961,0.57451,0.66471
12.52,0.45455,0.20293,0.31373,0.58039,0.6549
12.528,0.45161,0.20293,0.31961,0.57059,0.63529
12.536,0.44966,0.20293,0.33922,0.6098,0.62549
12.544,0.44966,0.20049,0.34902,0.61569,0.63529
12.552,0.45259,0.20049,0.37059,0.5902,0.6
12.56,0.45846,0.19804,0.3902,0.58431,0.57451
12.568,0.46628,0.1956,0.39412,0.5902,0.56471
12.576,0.47801,0.1956,0.38431,0.57059,0.55098
12.584,0.49169,0.19071,0.4,0.5549,0.53922
12.592,0.50831,0.18826,0.38039,0.56078,0.5549
12.6,0.52297,0.18582,0.36471,0.58039,0.58039
12.608,0.53763,0.18337,0.3549,0.53922,0.59608
12.616,0.55327,0.18093,0.34902,0.5451,0.6
12.624,0.56989,0.17604,0.3549,0.56078,0.61961
12.632,0.58651,0.17359,0.3098,0.57451,0.65098
12.64,0.60215,0.1687,0.30392,0.58431,0.66471
12.648,0.61584,0.16381,0.31961,0.56078,0.63529
12.656,0.62854,0.15892,0.2902,0.65098,0.68627
12.664,0.64027,0.15403,0.22353,0.82157,0.78627
12.672,0.65005,0.14914,0.2902,0.71569,0.63529
12.68,0.65787,0.14425,0.76667,0.37451,0.10392
12.688,0.66276,0.13936,1.3078,-0.027451,-0.46863
12.696,0.66471,0.13203,1.3275,-0.072549,-0.48824
12.704,0.66471,0.12469,0.58431,0.28431,0.51569
12.712,0.66373,0.11736,0.32941,0.33529,0.76078
12.72,0.66178,0.11002,0.27843,0.43529,0.71569
12.728,0.65885,0.10513,0.31961,0.52941,0.63529
12.736,0.65396,0.0978,0.32353,0.5902,0.61569
12.744,0.64712,0.090465,0.31961,0.6098,0.61961
12.752,0.63832,0.085575,0.34902,0.58431,0.58431
12.76,0.62757,0.07824,0.37451,0.5902,0.5549
12.768,0.61681,0.07335,0.38431,0.58039,0.5451
12.776,0.60508,0.06846,0.38431,0.5902,0.5549
12.784,0.59433,0.06357,0.4,0.6098,0.51961
12.792,0.58358,0.05868,0.37059,0.58039,0.53529
12.8,0.5738,0.05379,0.37059,0.57451,0.55098
12.808,0.565,0.051345,0.3902,0.57059,0.53922
12.816,0.55718,0.046455,0.4098,0.58039,0.52941
12.824,0.55034,0.04401,0.42549,0.56471,0.4902
12.832,0.54448,0.03912,0.4451,0.5451,0.46078
12.84,0.53959,0.036675,0.46471,0.53529,0.43922
12.848,0.53568,0.03423,0.51569,0.51961,0.37059
12.856,0.53275,0.03423,0.52941,0.52549,0.34902
12.864,0.52981,0.031785,0.5549,0.53529,0.31961
12.872,0.52786,0.02934,0.5451,0.48431,0.29412
12.88,0.5259,0.02934,0.6098,0.4451,0.22353
12.888,0.52395,0.026895,0.67059,0.43922,0.17843
12.896,0.52297,0.026895,0.70588,0.4902,0.14902
12.904,0.52102,0.02934,0.72157,0.4451,0.11373
12.912,0.51906,0.02934,0.6902,0.39412,0.13333
12.92,0.51906,0.031785,0.66471,0.3902,0.17843
12.928,0.51808,0.03423,0.63529,0.4549,0.23333
12.936,0.51808,0.036675,0.56078,0.48039,0.32353
12.944,0.51711,0.041565,0.55098,0.4902,0.36471
12.952,0.51711,0.0489,0.5,0.50588,0.43529
12.96,0.51613,0.056235,0.4098,0.5549,0.5549
12.968,0.51515,0.06846,0.33922,0.55098,0.62549
12.976,0.5132,0.07824,0.30392,0.58039,0.6549
12.984,0.51026,0.090465,0.26471,0.62941,0.6902
12.992,0.50635,0.10269,0.28431,0.58431,0.69608
13,0.50342,0.11736,0.3098,0.61961,0.66471
13.008,0.50049,0.13203,0.27843,0.64118,0.7
13.016,0.49658,0.14914,0.28431,0.5902,0.6902
13.024,0.49365,0.1687,0.24902,0.59608,0.73137
13.032,0.49169,0.19315,0.2098,0.58431,0.77647
13.04,0.49071,0.2176,0.20392,0.58039,0.76078
13.048,0.49071,0.24694,0.2,0.59608,0.76667
13.056,0.49071,0.27384,0.2549,0.6098,0.73137
13.064,0.49071,0.30562,0.2549,0.61961,0.74118
13.072,0.49071,0.33496,0.23333,0.60588,0.74118
13.08,0.49071,0.3643,0.26863,0.61569,0.72549
13.088,0.48974,0.39364,0.2902,0.6,0.7098
13.096,0.48778,0.42298,0.28431,0.6,0.7
13.104,0.48583,0.44988,0.26471,0.60588,0.67059
13.112,0.48387,0.48166,0.28431,0.57059,0.64118
13.12,0.48094,0.511,0.3,0.6,0.66078
13.128,0.47801,0.54279,0.21961,0.58039,0.72549
13.136,0.47703,0.57457,0.2451,0.5451,0.7098
13.144,0.47703,0.60147,0.26863,0.5451,0.69608
13.152,0.47605,0.62836,0.23333,0.57451,0.7451
13.16,0.47605,0.65281,0.22353,0.5902,0.7549
13.168,0.47605,0.67971,0.3098,0.5549,0.64118
13.176,0.47605,0.70416,0.31373,0.55098,0.6549
13.184,0.47605,0.72861,0.3,0.57451,0.7
13.192,0.47605,0.75306,0.27451,0.5902,0.72157
13.2,0.47605,0.77751,0.3,0.6,0.6902
13.208,0.47605,0.79951,0.32941,0.5902,0.61961
13.216,0.47703,0.82396,0.37059,0.57059,0.59608
13.224,0.47996,0.84352,0.36471,0.56471,0.6
13.232,0.48583,0.86308,0.37059,0.57451,0.59608
13.24,0.49462,0.8802,0.31961,0.5451,0.62941
13.248,0.50635,0.89731,0.29412,0.53529,0.64118
13.256,0.52102,0.90954,0.3098,0.5451,0.62549
13.264,0.53861,0.92176,0.3098,0.56471,0.64118
13.272,0.55816,0.93154,0.31373,0.58431,0.6451
13.28,0.57771,0.94132,0.32353,0.53529,0.6549
13.288,0.59629,0.9511,0.26863,0.52941,0.6902
13.296,0.61095,0.95844,0.31961,0.55098,0.66078
13.304,0.62268,0.96577,0.2549,0.5451,0.7
13.312,0.63441,0.97066,0.22353,0.64118,0.78039
13.32,0.64418,0.97311,0.18824,0.75098,0.83137
13.328,0.65298,0.97555,0.25882,0.64118,0.6451
13.336,0.65787,0.978,0.78627,0.28431,0.052941
13.344,0.6608,0.98044,1.3431,-0.037255,-0.50196
13.352,0.66178,0.98044,1.0922,-0.05098,-0.19608
13.36,0.6608,0.98289,0.56078,0.33922,0.58431
13.368,0.65982,0.98289,0.30392,0.3549,0.8
13.376,0.65787,0.98289,0.2549,0.46471,0.80588
13.384,0.65396,0.98289,0.33529,0.5451,0.63529
13.392,0.64907,0.98289,0.33529,0.5549,0.62549
13.4,0.64223,0.98044,0.2902,0.5902,0.6451
13.408,0.63441,0.98044,0.30392,0.60588,0.63529
13.416,0.62561,0.978,0.33922,0.56078,0.60588
13.424,0.61584,0.97555,0.32941,0.57059,0.58039
13.432,0.60508,0.97311,0.3549,0.56471,0.56471
13.44,0.59531,0.97066,0.36471,0.57451,0.5549
13.448,0.58456,0.96822,0.37451,0.6,0.56471
13.456,0.5738,0.96577,0.4098,0.58431,0.53922
13.464,0.56403,0.96088,0.43529,0.57059,0.5
13.472,0.55621,0.95844,0.41961,0.57451,0.47451
13.48,0.55034,0.95355,0.46078,0.52941,0.42549
13.488,0.54448,0.9511,0.46471,0.5451,0.42549
13.496,0.53861,0.94377,0.50588,0.53529,0.40392
13.504,0.5347,0.93888,0.53922,0.56471,0.35882
13.512,0.52981,0.9291,0.5451,0.53529,0.32353
13.52,0.52688,0.92176,0.56471,0.47451,0.30392
13.528,0.52493,0.90954,0.59608,0.44902,0.2549
13.536,0.52102,0.89731,0.64118,0.44902,0.19412
13.544,0.51808,0.88264,0.62549,0.42549,0.20392
13.552,0.51417,0.86797,0.6902,0.4098,0.1549
13.56,0.51124,0.85086,0.7098,0.40392,0.10392
13.568,0.50733,0.8313,0.71569,0.4,0.094118
13.576,0.50342,0.81174,0.72157,0.41961,0.098039
13.584,0.49951,0.79218,0.68627,0.44902,0.16471
13.592,0.4956,0.76284,0.61569,0.48431,0.2549
13.6,0.49365,0.73594,0.56471,0.51569,0.33922
13.608,0.49071,0.70171,0.53922,0.53529,0.4
13.616,0.48778,0.66993,0.48039,0.56078,0.4902
13.624,0.48583,0.6357,0.40392,0.60588,0.56471
13.632,0.48289,0.60147,0.32353,0.59608,0.66471
13.64,0.47898,0.56479,0.29412,0.65098,0.70588
13.648,0.47605,0.53056,0.28431,0.62549,0.72157
13.656,0.47214,0.489,0.2549,0.6098,0.72549
13.664,0.46921,0.44988,0.3098,0.5902,0.69608
13.672,0.4653,0.40342,0.33529,0.6098,0.66471
13.68,0.46041,0.35697,0.3451,0.61961,0.6549
13.688,0.4565,0.30807,0.31373,0.61569,0.66471
13.696,0.45259,0.25917,0.3,0.6,0.6902
13.704,0.44966,0.21027,0.26863,0.6098,0.7098
13.712,0.44673,0.15892,0.25882,0.61569,0.72157
13.72,0.44379,0.11491,0.27451,0.61961,0.70588
13.728,0.43988,0.070905,0.31961,0.61569,0.67647
13.736,0.43695,0.031785,0.31373,0.62549,0.6549
13.744,0.43206,-0.007335,0.33922,0.60588,0.6451
13.752,0.42717,-0.04401,0.32941,0.58039,0.66078
13.76,0.42229,-0.080685,0.31961,0.5902,0.67059
13.768,0.4174,-0.11491,0.35882,0.58039,0.61961
13.776,0.41251,-0.14914,0.34902,0.5902,0.61569
13.784,0.40665,-0.17848,0.33922,0.61569,0.62941
13.792,0.40274,-0.20538,0.3451,0.61961,0.62941
13.8,0.3998,-0.22983,0.33922,0.57059,0.63529
13.808,0.39687,-0.25183,0.32353,0.58431,0.6451
13.816,0.39492,-0.27139,0.3098,0.57451,0.65098
13.824,0.39296,-0.29095,0.33529,0.57059,0.6451
13.832,0.39101,-0.30807,0.3098,0.5902,0.67647
13.84,0.39003,-0.32518,0.37451,0.58039,0.6
13.848,0.38905,-0.33741,0.37059,0.59608,0.6
13.856,0.38905,-0.34963,0.38039,0.5902,0.60588
13.864,0.39101,-0.35941,0.36471,0.60588,0.62549
13.872,0.39198,-0.36919,0.39412,0.6,0.59608
13.88,0.39492,-0.37653,0.41569,0.59608,0.55098
13.888,0.39883,-0.38386,0.41961,0.55098,0.53922
13.896,0.40469,-0.38875,0.4,0.5549,0.5451
13.904,0.41153,-0.39364,0.3902,0.57451,0.56078
13.912,0.42033,-0.39609,0.3549,0.57059,0.60588
13.92,0.43109,-0.40098,0.34902,0.58039,0.61569
13.928,0.44379,-0.40342,0.38039,0.5549,0.58431
13.936,0.45748,-0.40831,0.37059,0.56471,0.5902
13.944,0.47116,-0.41076,0.33529,0.5451,0.60588
13.952,0.48485,-0.4132,0.37451,0.5549,0.5902
13.96,0.49756,-0.41565,0.38431,0.56471,0.58039
13.968,0.50929,-0.41809,0.32941,0.68039,0.6902
13.976,0.51906,-0.42054,0.23922,0.77647,0.78627
13.984,0.52786,-0.42543,0.33529,0.6451,0.57059
13.992,0.5347,-0.42787,0.90196,0.2451,-0.05098
14,0.53861,-0.43276,1.3824,-0.047059,-0.50196
14.008,0.54154,-0.43521,1.0314,0.098039,-0.096078
14.016,0.54252,-0.4401,0.53529,0.3451,0.64118
14.024,0.54252,-0.44254,0.3549,0.36471,0.73529
14.032,0.54057,-0.44499,0.33529,0.46078,0.66471
14.04,0.53666,-0.44743,0.38039,0.57059,0.58431
14.048,0.53079,-0.44743,0.35882,0.59608,0.57451
14.056,0.52395,-0.44988,0.35882,0.5902,0.58039
14.064,0.51711,-0.44988,0.3549,0.5902,0.58431
14.072,0.50929,-0.44743,0.37451,0.59608,0.56471
14.08,0.50147,-0.44743,0.4,0.61569,0.52941
14.088,0.49365,-0.44499,0.39412,0.56471,0.50588
14.096,0.4868,-0.44499,0.43529,0.57059,0.5
14.104,0.48094,-0.44254,0.38431,0.57059,0.53922
14.112,0.47507,-0.43765,0.41569,0.57451,0.51569
14.12,0.47019,-0.43521,0.41961,0.56471,0.49412
14.128,0.46432,-0.43032,0.43529,0.5549,0.5
14.136,0.45943,-0.42298,0.47451,0.53529,0.43922
14.144,0.45455,-0.41809,0.49412,0.52549,0.40392
14.152,0.45161,-0.41076,0.51569,0.53922,0.38039
14.16,0.44868,-0.40098,0.53922,0.5098,0.32941
14.168,0.44575,-0.3912,0.57451,0.51569,0.2902
14.176,0.44282,-0.38142,0.58039,0.49412,0.26471
14.184,0.43988,-0.36919,0.6,0.44902,0.23333
14.192,0.43695,-0.35697,0.62941,0.42549,0.19412
14.2,0.43597,-0.34474,0.6902,0.41961,0.12941
14.208,0.435,-0.33252,0.7098,0.42941,0.11373
14.216,0.43402,-0.32029,0.72549,0.42549,0.098039
14.224,0.43304,-0.30807,0.73529,0.42549,0.084314
14.232,0.43304,-0.29584,0.72157,0.42549,0.11961
14.24,0.43304,-0.28362,0.67059,0.43529,0.18431
14.248,0.43402,-0.26895,0.61961,0.47059,0.27451
14.256,0.435,-0.25428,0.57059,0.5098,0.3549
14.264,0.435,-0.24205,0.5098,0.5451,0.43529
14.272,0.43597,-0.22738,0.4451,0.56471,0.51569
14.28,0.435,-0.2176,0.37451,0.6,0.59608
14.288,0.435,-0.20538,0.33922,0.61961,0.64118
14.296,0.43402,-0.19315,0.31373,0.62941,0.66471
14.304,0.43304,-0.18093,0.29412,0.63529,0.68627
14.312,0.43206,-0.1687,0.30392,0.6098,0.68039
14.32,0.43206,-0.15648,0.2902,0.61569,0.69608
14.328,0.43206,-0.14425,0.2902,0.62549,0.7098
14.336,0.43109,-0.13203,0.2902,0.62941,0.71569
14.344,0.43011,-0.1198,0.30392,0.61569,0.6902
14.352,0.42913,-0.11002,0.3098,0.59608,0.68627
14.36,0.42815,-0.10024,0.31373,0.61569,0.67059
14.368,0.42717,-0.090465,0.32941,0.61961,0.6549
14.376,0.42522,-0.08313,0.33922,0.62941,0.6451
14.384,0.42229,-0.075795,0.31373,0.6098,0.66471
14.392,0.41935,-0.06846,0.3098,0.6098,0.68039
14.4,0.41642,-0.061125,0.31373,0.6098,0.67059
14.408,0.41447,-0.05379,0.32941,0.5902,0.66471
14.416,0.41153,-0.046455,0.32353,0.5902,0.66078
14.424,0.4086,-0.03912,0.32941,0.6098,0.6451
14.432,0.40665,-0.03423,0.31373,0.59608,0.6549
14.44,0.40274,-0.02934,0.31373,0.60588,0.66078
14.448,0.3998,-0.022005,0.30392,0.58039,0.66471
14.456,0.39687,-0.017115,0.31373,0.57059,0.6451
14.464,0.39492,-0.012225,0.33529,0.58431,0.6451
14.472,0.39394,-0.00489,0.33922,0.59608,0.62941
14.48,0.39296,0,0.33922,0.58431,0.62549
14.488,0.39198,0.007335,0.36471,0.57059,0.60588
14.496,0.39198,0.012225,0.3549,0.58039,0.61961
14.504,0.39296,0.01956,0.34902,0.6,0.62549
14.512,0.39296,0.02445,0.35882,0.6098,0.61569
14.52,0.39296,0.02934,0.38431,0.5902,0.59608
14.528,0.39394,0.036675,0.4,0.60588,0.58431
14.536,0.39589,0.03912,0.4098,0.6098,0.5902
14.544,0.39883,0.04401,0.4,0.59608,0.59608
14.552,0.40469,0.0489,0.38431,0.56078,0.58431
14.56,0.41251,0.05379,0.3902,0.53922,0.56471
14.568,0.42229,0.056235,0.37059,0.5451,0.57451
14.576,0.43304,0.05868,0.3451,0.5451,0.6
14.584,0.44477,0.061125,0.3451,0.56471,0.61569
14.592,0.4565,0.06357,0.3451,0.56078,0.60588
14.6,0.46628,0.06357,0.35882,0.55098,0.5902
14.608,0.47507,0.066015,0.37059,0.5549,0.59608
14.616,0.48289,0.06357,0.34902,0.57059,0.60588
14.624,0.49071,0.061125,0.31373,0.65098,0.67059
14.632,0.49658,0.05868,0.26471,0.77059,0.78039
14.64,0.50147,0.05379,0.23922,0.68039,0.65098
14.648,0.50538,0.046455,0.7451,0.36471,0.12941
14.656,0.50831,0.041565,1.2824,0.0039216,-0.44314
14.664,0.51026,0.031785,1.3275,-0.05098,-0.48824
14.672,0.51026,0.02445,0.62941,0.32941,0.5
14.68,0.50733,0.01467,0.38431,0.3902,0.7451
14.688,0.50244,0.007335,0.32353,0.42549,0.7098
14.696,0.49756,0,0.35882,0.51961,0.62549
14.704,0.49169,-0.00978,0.35882,0.58039,0.6
14.712,0.48485,-0.017115,0.3451,0.59608,0.6
14.72,0.47801,-0.026895,0.3549,0.60588,0.58431
14.728,0.46921,-0.036675,0.36471,0.59608,0.57451
14.736,0.46041,-0.046455,0.38431,0.6,0.5549
14.744,0.45064,-0.056235,0.41569,0.58431,0.52941
14.752,0.44086,-0.06357,0.42549,0.55098,0.51569
14.76,0.43109,-0.07335,0.4098,0.53922,0.50588
14.768,0.42229,-0.080685,0.4098,0.56471,0.50588
14.776,0.41349,-0.085575,0.43529,0.57059,0.48039
14.784,0.40567,-0.09291,0.44902,0.56471,0.47059
14.792,0.39883,-0.0978,0.4549,0.57059,0.46078
14.8,0.39492,-0.10269,0.47451,0.55098,0.43922
14.808,0.39198,-0.10758,0.52549,0.51961,0.3902
14.816,0.38905,-0.11002,0.53529,0.51961,0.36471
14.824,0.38612,-0.11491,0.5549,0.50588,0.33922
14.832,0.38514,-0.11736,0.58039,0.47451,0.30392
14.84,0.38416,-0.1198,0.6098,0.5,0.26471
14.848,0.38221,-0.12225,0.64118,0.47451,0.22353
14.856,0.38123,-0.12225,0.66471,0.46471,0.19412
14.864,0.3783,-0.12225,0.69608,0.43922,0.15882
14.872,0.37732,-0.12225,0.7,0.42941,0.1549
14.88,0.37537,-0.12225,0.70588,0.40392,0.14314
14.888,0.37341,-0.12225,0.6902,0.39412,0.16863
14.896,0.37243,-0.1198,0.66078,0.4451,0.2098
14.904,0.37146,-0.11736,0.64118,0.48039,0.2549
14.912,0.37048,-0.11736,0.5902,0.50588,0.32941
14.92,0.3695,-0.11491,0.5098,0.55098,0.41961
14.928,0.36755,-0.11247,0.44902,0.57451,0.50588
14.936,0.36559,-0.11002,0.42549,0.58431,0.5451
14.944,0.36364,-0.10758,0.37059,0.57059,0.6
14.952,0.3607,-0.10513,0.32353,0.61569,0.65098
14.96,0.35875,-0.10269,0.31373,0.61961,0.66471
14.968,0.35582,-0.0978,0.28431,0.58431,0.7
14.976,0.35386,-0.095355,0.27451,0.62549,0.7098
14.984,0.35191,-0.090465,0.27843,0.62941,0.7098
14.992,0.34995,-0.08802,0.28431,0.6098,0.72157
15,0.34897,-0.085575,0.28431,0.60588,0.69608
15.008,0.34897,-0.08313,0.29412,0.59608,0.67059
15.016,0.348,-0.080685,0.3098,0.5902,0.67647
15.024,0.34702,-0.07824,0.27843,0.60588,0.69608
15.032,0.34506,-0.075795,0.28431,0.6098,0.6902
15.04,0.34409,-0.07335,0.28431,0.61569,0.69608
15.048,0.34115,-0.070905,0.2902,0.61569,0.69608
15.056,0.3392,-0.06846,0.30392,0.61569,0.68039
15.064,0.33724,-0.066015,0.31961,0.5902,0.66471
15.072,0.33627,-0.06357,0.32353,0.58431,0.66078
15.08,0.33431,-0.061125,0.31373,0.58039,0.6451
15.088,0.33138,-0.05868,0.31373,0.60588,0.64118
15.096,0.3304,-0.056235,0.32353,0.57451,0.63529
15.104,0.32942,-0.05379,0.3549,0.56078,0.61961
15.112,0.32845,-0.051345,0.35882,0.57059,0.61569
15.12,0.32551,-0.0489,0.32353,0.58431,0.6451
15.128,0.32356,-0.04401,0.31961,0.5902,0.64118
15.136,0.32063,-0.041565,0.32941,0.57451,0.6451
15.144,0.31867,-0.036675,0.32353,0.57059,0.62549
15.152,0.31574,-0.03423,0.33922,0.58431,0.62549
15.16,0.31476,-0.031785,0.3451,0.5902,0.62549
15.168,0.31378,-0.026895,0.34902,0.60588,0.62549
15.176,0.31378,-0.02445,0.37451,0.59608,0.6
15.184,0.31476,-0.022005,0.38431,0.5902,0.58039
15.192,0.31769,-0.017115,0.38431,0.57059,0.58431
15.2,0.32258,-0.01467,0.38039,0.5549,0.5902
15.208,0.32845,-0.012225,0.37451,0.5451,0.57451
15.216,0.33627,-0.00978,0.36471,0.55098,0.58431
15.224,0.34702,-0.007335,0.34902,0.5451,0.59608
15.232,0.35973,-0.00489,0.35882,0.5451,0.6
15.24,0.37341,-0.002445,0.33922,0.56078,0.62549
15.248,0.3871,0,0.32353,0.56471,0.64118
15.256,0.40274,0,0.33529,0.58431,0.62941
15.264,0.4174,0.002445,0.33922,0.5549,0.6098
15.272,0.43206,0.002445,0.3549,0.5451,0.5902
15.28,0.44575,0.002445,0.29412,0.67647,0.68039
15.288,0.45846,0.002445,0.2451,0.77059,0.7451
15.296,0.46725,0.002445,0.3902,0.61569,0.49412
15.304,0.4741,0.002445,0.93137,0.25882,-0.060784
15.312,0.47996,0,1.3078,0.023529,-0.40784
15.32,0.48387,0,0.90196,0.20392,0.088235
15.328,0.48583,0,0.47451,0.41961,0.69608
15.336,0.48485,0,0.28431,0.4098,0.7902
15.344,0.48387,-0.002445,0.2451,0.49412,0.75098
15.352,0.47996,-0.002445,0.30392,0.55098,0.66078
15.36,0.47605,-0.00489,0.3549,0.5902,0.6
15.368,0.47019,-0.00489,0.35882,0.5902,0.58431
15.376,0.46334,-0.007335,0.36471,0.5902,0.56078
15.384,0.45552,-0.007335,0.37451,0.6,0.55098
15.392,0.44868,-0.00978,0.38431,0.56078,0.5451
15.4,0.44184,-0.00978,0.37451,0.57059,0.55098
15.408,0.435,-0.012225,0.38431,0.58431,0.5451
15.416,0.42717,-0.012225,0.3902,0.57451,0.52941
15.424,0.41838,-0.012225,0.41569,0.58039,0.5098
15.432,0.40958,-0.01467,0.43529,0.57451,0.4902
15.44,0.40176,-0.01467,0.46078,0.57059,0.47451
15.448,0.39589,-0.01467,0.46471,0.57059,0.46471
15.456,0.39003,-0.01467,0.47451,0.56078,0.44902
15.464,0.38612,-0.01467,0.5,0.5451,0.4098
15.472,0.38319,-0.01467,0.51961,0.53529,0.37451
15.48,0.38123,-0.01467,0.5451,0.53529,0.35882
15.488,0.38123,-0.01467,0.58039,0.53922,0.31373
15.496,0.38221,-0.01467,0.60588,0.47451,0.26471
15.504,0.38416,-0.01467,0.6451,0.47059,0.21961
15.512,0.38612,-0.01467,0.67647,0.47451,0.2
15.52,0.38905,-0.01467,0.6902,0.4549,0.18431
15.528,0.39101,-0.01467,0.70588,0.4451,0.1549
15.536,0.39296,-0.01467,0.71569,0.48431,0.16471
15.544,0.39492,-0.01467,0.69608,0.4549,0.17843
15.552,0.39687,-0.01467,0.6902,0.48039,0.20392
15.56,0.39785,-0.01467,0.63529,0.5,0.27843
15.568,0.39883,-0.01467,0.57451,0.53529,0.35882
15.576,0.39883,-0.01467,0.49412,0.55098,0.4451
15.584,0.39883,-0.012225,0.42549,0.5549,0.51961
15.592,0.39785,-0.012225,0.35882,0.57451,0.59608
15.6,0.39785,-0.012225,0.3098,0.5902,0.6549
15.608,0.39687,-0.00978,0.28431,0.6098,0.6902
15.616,0.39589,-0.00978,0.26863,0.62549,0.70588
15.624,0.39492,-0.007335,0.27451,0.61569,0.69608
15.632,0.39394,-0.007335,0.25882,0.6098,0.7
15.64,0.39394,-0.007335,0.2549,0.61569,0.72157
15.648,0.39296,-0.00489,0.2451,0.61961,0.72549
15.656,0.39296,-0.00489,0.23922,0.62549,0.7098
15.664,0.39296,-0.00489,0.2451,0.61961,0.7
15.672,0.39296,-0.002445,0.26471,0.61569,0.6902
15.68,0.39296,-0.002445,0.26863,0.61569,0.68039
15.688,0.39296,0,0.27843,0.61961,0.66471
15.696,0.39296,0,0.29412,0.60588,0.6549
15.704,0.39296,0,0.2902,0.6,0.67059
15.712,0.39296,0.002445,0.27451,0.61569,0.68039
15.72,0.39296,0.002445,0.27451,0.5902,0.67059
15.728,0.39296,0.002445,0.28431,0.58431,0.66471
15.736,0.39296,0.00489,0.29412,0.60588,0.66471
15.744,0.39296,0.00489,0.2902,0.6098,0.67059
15.752,0.39296,0.007335,0.3,0.59608,0.66078
15.76,0.39296,0.007335,0.29412,0.5902,0.65098
15.768,0.39296,0.00978,0.2902,0.60588,0.6549
15.776,0.39296,0.012225,0.3098,0.62549,0.6451
15.784,0.39296,0.01467,0.32353,0.58431,0.64118
15.792,0.39296,0.017115,0.30392,0.57059,0.6549
15.8,0.39296,0.01956,0.32941,0.56471,0.62941
15.808,0.39296,0.022005,0.31373,0.58039,0.6451
15.816,0.39296,0.02445,0.32941,0.58039,0.62941
15.824,0.39394,0.026895,0.3549,0.60588,0.60588
15.832,0.39492,0.02934,0.34902,0.61569,0.6098
15.84,0.39687,0.031785,0.36471,0.59608,0.58431
15.848,0.40078,0.03423,0.37059,0.5902,0.57451
15.856,0.40665,0.03912,0.38039,0.58431,0.57451
15.864,0.41447,0.041565,0.37059,0.58039,0.5902
15.872,0.42424,0.04401,0.35882,0.5902,0.6
15.88,0.43695,0.04401,0.34902,0.56471,0.6
15.888,0.45064,0.046455,0.33922,0.56078,0.59608
15.896,0.46432,0.046455,0.31961,0.5902,0.62941
15.904,0.49462,0.0489,0.31373,0.5549,0.64118
15.912,0.5347,0.046455,0.32941,0.5451,0.61961
15.92,0.56109,0.046455,0.33529,0.5451,0.60588
15.928,0.58162,0.046455,0.34902,0.55098,0.6
15.936,0.59726,0.04401,0.33922,0.57451,0.60588
15.944,0.61095,0.041565,0.27843,0.7098,0.69608
15.952,0.6217,0.03912,0.21961,0.8,0.77647
15.96,0.62952,0.036675,0.31373,0.68627,0.58039
15.968,0.63539,0.03423,0.8451,0.32941,0.023529
15.976,0.6393,0.031785,1.3882,-0.015686,-0.50196
15.984,0.64125,0.02934,1.0922,-0.037255,-0.18235
15.992,0.64027,0.026895,0.52941,0.31373,0.57059
16,0.63832,0.02445,0.28431,0.34902,0.76078
16.008,0.63441,0.022005,0.23922,0.43922,0.73137
16.016,0.62952,0.01956,0.29412,0.53922,0.66078
16.024,0.62366,0.017115,0.33922,0.58431,0.61569
16.032,0.61779,0.01467,0.33922,0.5902,0.6
16.04,0.60997,0.012225,0.33529,0.62549,0.6
16.048,0.60215,0.00978,0.33922,0.61569,0.5902
16.056,0.59531,0.007335,0.33922,0.61569,0.58039
16.064,0.58847,0.00489,0.35882,0.62549,0.57451
16.072,0.58162,0.002445,0.36471,0.6,0.5549
16.08,0.5738,0,0.38039,0.59608,0.5549
16.088,0.56696,-0.00489,0.41569,0.60588,0.5098
16.096,0.56109,-0.007335,0.43529,0.58039,0.48039
16.104,0.55621,-0.012225,0.4451,0.62549,0.46471
16.112,0.55132,-0.01467,0.44902,0.57451,0.46078
16.12,0.54839,-0.017115,0.48039,0.56471,0.4451
16.128,0.54643,-0.01956,0.5,0.56078,0.4098
16.136,0.54545,-0.022005,0.52941,0.5451,0.38039
16.144,0.54545,-0.02445,0.55098,0.51961,0.33922
16.152,0.54448,-0.02934,0.56471,0.51961,0.33529
16.16,0.54448,-0.031785,0.58039,0.52549,0.31961
16.168,0.54448,-0.03423,0.6098,0.50588,0.26471
16.176,0.54545,-0.03912,0.64118,0.48039,0.21961
16.184,0.54643,-0.041565,0.66078,0.4549,0.17843
16.192,0.54643,-0.04401,0.67647,0.4451,0.1549
16.2,0.54741,-0.046455,0.67647,0.44902,0.15882
16.208,0.54741,-0.051345,0.6902,0.47059,0.15882
16.216,0.54741,-0.05379,0.68039,0.47451,0.17843
16.224,0.54741,-0.056235,0.6451,0.49412,0.23922
16.232,0.54741,-0.05868,0.58039,0.51961,0.32941
16.24,0.54741,-0.06357,0.51569,0.58039,0.41961
16.248,0.54741,-0.066015,0.44902,0.5902,0.5098
16.256,0.54741,-0.06846,0.4,0.56471,0.58039
16.264,0.54741,-0.070905,0.33529,0.6098,0.64118
16.272,0.54643,-0.07335,0.3,0.6098,0.68039
16.28,0.54643,-0.075795,0.28431,0.61961,0.7098
16.288,0.54545,-0.07824,0.27451,0.61961,0.70588
16.296,0.54448,-0.08313,0.2549,0.61569,0.70588
16.304,0.5435,-0.085575,0.26471,0.59608,0.6902
16.312,0.54154,-0.08802,0.26863,0.61569,0.68627
16.32,0.53959,-0.09291,0.27843,0.62941,0.7098
16.328,0.53861,-0.0978,0.27451,0.62549,0.70588
16.336,0.53666,-0.10024,0.26863,0.6098,0.7
16.344,0.53372,-0.10513,0.27451,0.60588,0.69608
16.352,0.53177,-0.11002,0.26863,0.61961,0.6902
16.36,0.52884,-0.11247,0.29412,0.62549,0.67647
16.368,0.5259,-0.11736,0.30392,0.61569,0.67059
16.376,0.52395,-0.1198,0.2902,0.59608,0.68039
16.384,0.52199,-0.12469,0.28431,0.62549,0.69608
16.392,0.52004,-0.12714,0.27843,0.6451,0.69608
16.4,0.51808,-0.13203,0.26863,0.6,0.68039
16.408,0.51711,-0.13447,0.30392,0.59608,0.64118
16.416,0.51515,-0.13692,0.31373,0.58039,0.65098
16.424,0.5132,-0.13936,0.29412,0.57059,0.67059
16.432,0.51222,-0.14181,0.3,0.57451,0.65098
16.44,0.51124,-0.14425,0.31373,0.58039,0.62549
16.448,0.51026,-0.14425,0.30392,0.58431,0.6451
16.456,0.50929,-0.1467,0.30392,0.5902,0.6549
16.464,0.50831,-0.14914,0.3098,0.5902,0.6451
16.472,0.50831,-0.15159,0.29412,0.58431,0.6549
16.48,0.50733,-0.15159,0.2902,0.59608,0.67059
16.488,0.50733,-0.15403,0.31961,0.6,0.66078
16.496,0.50733,-0.15403,0.31373,0.61961,0.66471
16.504,0.50929,-0.15403,0.33922,0.62941,0.64118
16.512,0.51222,-0.15403,0.33922,0.59608,0.6098
16.52,0.51711,-0.15648,0.34902,0.58431,0.5902
16.528,0.52493,-0.15648,0.34902,0.58431,0.6
16.536,0.5347,-0.15892,0.35882,0.6098,0.5902
16.544,0.54643,-0.15892,0.36471,0.56078,0.57451
16.552,0.56012,-0.16137,0.3549,0.5451,0.57059
16.56,0.57478,-0.16381,0.33922,0.5451,0.6
16.568,0.59042,-0.1687,0.3451,0.57059,0.59608
16.576,0.60704,-0.17115,0.34902,0.55098,0.5902
16.584,0.62268,-0.17604,0.31373,0.57059,0.63529
16.592,0.63539,-0.18093,0.32941,0.58039,0.61961
16.6,0.64516,-0.18582,0.3451,0.56078,0.6
16.608,0.65494,-0.18826,0.32941,0.57059,0.62941
16.616,0.66276,-0.19315,0.27843,0.66078,0.72549
16.624,0.66862,-0.1956,0.21373,0.79608,0.81569
16.632,0.67253,-0.20049,0.18824,0.73137,0.6902
16.64,0.67449,-0.20538,0.71569,0.39412,0.12941
16.648,0.67449,-0.21027,1.2824,-0.015686,-0.46863
16.656,0.67351,-0.2176,1.3627,-0.086275,-0.50196
16.664,0.67155,-0.22249,0.67059,0.27843,0.41961
16.672,0.66862,-0.22738,0.37059,0.36471,0.73137
16.68,0.66471,-0.22983,0.26471,0.48431,0.75098
16.688,0.65982,-0.23472,0.30392,0.52549,0.6549
16.696,0.65396,-0.23961,0.32353,0.56471,0.60588
16.704,0.64614,-0.24205,0.31961,0.58431,0.6098
16.712,0.63832,-0.24694,0.3549,0.60588,0.58431
16.72,0.62854,-0.24939,0.36471,0.61569,0.56471
16.728,0.61877,-0.25183,0.38039,0.58431,0.55098
16.736,0.60899,-0.25428,0.38431,0.58039,0.5549
16.744,0.6002,-0.25672,0.38039,0.5902,0.55098
16.752,0.59238,-0.25917,0.3902,0.57451,0.52941
16.76,0.58456,-0.26161,0.38039,0.61569,0.52941
16.768,0.57771,-0.26161,0.38431,0.58039,0.52549
16.776,0.57185,-0.26406,0.4,0.57059,0.5098
16.784,0.56696,-0.26406,0.42941,0.58431,0.4902
16.792,0.56305,-0.2665,0.47451,0.5549,0.4451
16.8,0.56012,-0.2665,0.47059,0.53922,0.42941
16.808,0.55816,-0.2665,0.50588,0.52941,0.38431
16.816,0.55621,-0.2665,0.52549,0.50588,0.3549
16.824,0.55523,-0.2665,0.5549,0.4902,0.3
16.832,0.55425,-0.2665,0.59608,0.49412,0.24902
16.84,0.55523,-0.2665,0.5902,0.47451,0.24902
16.848,0.55621,-0.2665,0.62941,0.46078,0.2
16.856,0.55718,-0.2665,0.66078,0.42941,0.15882
16.864,0.55816,-0.2665,0.68627,0.42549,0.13922
16.872,0.55914,-0.2665,0.6902,0.43529,0.13333
16.88,0.56012,-0.26895,0.7,0.41569,0.13333
16.888,0.56012,-0.26895,0.6902,0.42549,0.1549
16.896,0.55914,-0.26895,0.63529,0.47451,0.23333
16.904,0.55816,-0.26895,0.58039,0.50588,0.32941
16.912,0.55621,-0.27139,0.53922,0.52941,0.39412
16.92,0.55327,-0.27139,0.47451,0.58039,0.47059
16.928,0.54936,-0.27139,0.3902,0.5902,0.56471
16.936,0.54545,-0.27139,0.3549,0.59608,0.62941
16.944,0.54154,-0.27139,0.31373,0.59608,0.67647
16.952,0.53666,-0.27139,0.28431,0.61961,0.70588
16.96,0.53372,-0.27139,0.26863,0.61569,0.7098
16.968,0.53079,-0.27139,0.28431,0.6,0.69608
16.976,0.52884,-0.27139,0.28431,0.62941,0.7
16.984,0.52786,-0.27139,0.27451,0.5902,0.70588
16.992,0.52688,-0.27139,0.26863,0.62941,0.72549
17,0.5259,-0.27139,0.27843,0.6,0.70588
17.008,0.52493,-0.27139,0.2902,0.58431,0.68627
17.016,0.52493,-0.27139,0.26863,0.5902,0.68039
17.024,0.52395,-0.27139,0.27451,0.6098,0.7
17.032,0.52199,-0.27384,0.28431,0.61961,0.69608
17.04,0.52102,-0.27384,0.3,0.62941,0.68039
17.048,0.51906,-0.27628,0.3098,0.5902,0.66471
17.056,0.51808,-0.27628,0.29412,0.58431,0.67647
17.064,0.51515,-0.27628,0.27843,0.61569,0.69608
17.072,0.5132,-0.27628,0.26863,0.6098,0.7098
17.08,0.51026,-0.27873,0.29412,0.6,0.68627
17.088,0.50929,-0.27873,0.31373,0.60588,0.66471
17.096,0.50733,-0.27873,0.3098,0.6098,0.66078
17.104,0.50635,-0.27873,0.32353,0.5902,0.6451
17.112,0.50538,-0.27873,0.33529,0.62941,0.64118
17.12,0.5044,-0.27873,0.30392,0.56078,0.6451
17.128,0.50244,-0.27628,0.32353,0.57059,0.62549
17.136,0.50147,-0.27628,0.33922,0.55098,0.61961
17.144,0.50244,-0.27628,0.32353,0.57451,0.62941
17.152,0.50342,-0.27384,0.31373,0.56471,0.65098
17.16,0.5044,-0.27384,0.32941,0.57059,0.6549
17.168,0.50538,-0.27139,0.33922,0.58431,0.62549
17.176,0.50635,-0.26895,0.32941,0.60588,0.63529
17.184,0.50929,-0.26895,0.3549,0.58431,0.62549
17.192,0.5132,-0.2665,0.38431,0.57451,0.58039
17.2,0.51808,-0.26406,0.38431,0.5902,0.58039
17.208,0.5259,-0.26406,0.38039,0.57451,0.58431
17.216,0.53666,-0.26161,0.3549,0.55098,0.59608
17.224,0.54936,-0.26161,0.34902,0.5451,0.6
17.232,0.56305,-0.25917,0.33529,0.58039,0.61569
17.24,0.57869,-0.25917,0.36471,0.5902,0.5902
17.248,0.59433,-0.25917,0.37451,0.57451,0.5902
17.256,0.60899,-0.25917,0.3549,0.58039,0.58431
17.264,0.62268,-0.25917,0.32941,0.53529,0.6098
17.272,0.63539,-0.25917,0.33922,0.5549,0.61961
17.28,0.64614,-0.25917,0.3549,0.56471,0.6
17.288,0.65494,-0.26161,0.35882,0.6,0.5902
17.296,0.66178,-0.26406,0.2549,0.7549,0.78627
17.304,0.66764,-0.26406,0.21961,0.8,0.81569
17.312,0.67253,-0.2665,0.48039,0.52549,0.39412
17.32,0.67546,-0.2665,1.0961,0.1098,-0.26667
17.328,0.67546,-0.26895,1.3216,-0.066667,-0.49216
17.336,0.67449,-0.26895,0.82157,0.18431,0.18431
17.344,0.67155,-0.27139,0.4451,0.32941,0.6902
17.352,0.66667,-0.27384,0.29412,0.4,0.74118
17.36,0.6608,-0.27384,0.3451,0.50588,0.65098
17.368,0.65396,-0.27628,0.34902,0.60588,0.61569
17.376,0.64516,-0.27628,0.33922,0.58431,0.6098
17.384,0.63441,-0.27628,0.3451,0.58039,0.61961
17.392,0.62561,-0.27873,0.31961,0.5902,0.59608
17.4,0.61681,-0.27873,0.3451,0.59608,0.6
17.408,0.60802,-0.27873,0.33529,0.60588,0.57451
17.416,0.59922,-0.27873,0.39412,0.57451,0.52941
17.424,0.5914,-0.27873,0.41569,0.57059,0.51569
17.432,0.58456,-0.27873,0.38431,0.56471,0.51961
17.44,0.57771,-0.27873,0.4,0.56078,0.50588
17.448,0.57185,-0.27873,0.41569,0.58039,0.50588
17.456,0.56696,-0.27873,0.4098,0.56078,0.5
17.464,0.56305,-0.27628,0.42941,0.55098,0.47059
17.472,0.55914,-0.27628,0.4549,0.56078,0.43529
17.48,0.55621,-0.27384,0.52549,0.5549,0.36471
17.488,0.55425,-0.27384,0.55098,0.51961,0.32353
17.496,0.55327,-0.27139,0.5549,0.49412,0.32941
17.504,0.55132,-0.27139,0.58039,0.47059,0.28431
17.512,0.55034,-0.26895,0.6,0.46078,0.2451
17.52,0.55034,-0.2665,0.62549,0.46471,0.22353
17.528,0.54936,-0.26406,0.61569,0.4451,0.18431
17.536,0.54839,-0.26406,0.66471,0.4098,0.14902
17.544,0.54741,-0.26161,0.67059,0.4,0.12353
17.552,0.54741,-0.25917,0.68627,0.42941,0.14314
17.56,0.54741,-0.25672,0.69608,0.4451,0.16471
17.568,0.54741,-0.25672,0.65098,0.46471,0.21961
17.576,0.54741,-0.25428,0.5902,0.52549,0.27451
17.584,0.54741,-0.25183,0.56078,0.53922,0.32941
17.592,0.54643,-0.24939,0.50588,0.58431,0.43529
17.6,0.54643,-0.24694,0.43922,0.56471,0.5451
17.608,0.54448,-0.24205,0.3549,0.60588,0.61961
17.616,0.54252,-0.23961,0.32941,0.5902,0.6451
17.624,0.54057,-0.23472,0.3,0.59608,0.69608
17.632,0.53763,-0.23227,0.23922,0.60588,0.73529
17.64,0.5347,-0.22983,0.2549,0.64118,0.7451
17.648,0.53079,-0.22738,0.28431,0.62549,0.72157
17.656,0.52786,-0.22494,0.3,0.60588,0.6902
17.664,0.52493,-0.22249,0.27843,0.6098,0.68627
17.672,0.52297,-0.22005,0.27843,0.61569,0.71569
17.68,0.52004,-0.2176,0.26863,0.61569,0.72157
17.688,0.51808,-0.2176,0.26863,0.62549,0.71569
17.696,0.51711,-0.21516,0.28431,0.61961,0.70588
17.704,0.51613,-0.21516,0.32353,0.6098,0.67647
17.712,0.51417,-0.21516,0.30392,0.62941,0.67059
17.72,0.51222,-0.21516,0.2902,0.6549,0.7
17.728,0.51026,-0.21516,0.28431,0.5902,0.6902
17.736,0.50831,-0.21516,0.3098,0.61569,0.6549
17.744,0.50635,-0.21516,0.32941,0.6,0.6451
17.752,0.50538,-0.21516,0.29412,0.60588,0.69608
17.76,0.5044,-0.21516,0.32353,0.5902,0.68039
17.768,0.50244,-0.21516,0.33529,0.56078,0.6451
17.776,0.50147,-0.21516,0.30392,0.5549,0.66471
17.784,0.50049,-0.21516,0.29412,0.59608,0.67059
17.792,0.49951,-0.21271,0.32353,0.58431,0.64118
17.8,0.49853,-0.21271,0.31373,0.60588,0.6549
17.808,0.49756,-0.21271,0.33529,0.5902,0.64118
17.816,0.49756,-0.21027,0.33922,0.58039,0.62549
17.824,0.49756,-0.21027,0.33529,0.56471,0.63529
17.832,0.49756,-0.20782,0.32353,0.61569,0.67059
17.84,0.49853,-0.20538,0.32941,0.59608,0.65098
17.848,0.49951,-0.20538,0.3098,0.6098,0.63529
17.856,0.50147,-0.20293,0.37059,0.58039,0.60588
17.864,0.50538,-0.20049,0.36471,0.59608,0.61569
17.872,0.51124,-0.20049,0.38431,0.57451,0.58431
17.88,0.51906,-0.19804,0.38431,0.58039,0.59608
17.888,0.52786,-0.19804,0.38431,0.57451,0.6
17.896,0.53666,-0.1956,0.36471,0.5549,0.6098
17.904,0.54936,-0.1956,0.3451,0.5451,0.60588
17.912,0.56403,-0.1956,0.38039,0.5549,0.58431
17.92,0.57967,-0.1956,0.32941,0.5902,0.6098
17.928,0.59433,-0.1956,0.35882,0.58039,0.60588
17.936,0.60899,-0.1956,0.3549,0.57059,0.63529
17.944,0.6217,-0.1956,0.35882,0.58039,0.6
17.952,0.61388,-0.19804,0.33529,0.57451,0.57451
17.96,0.59531,-0.19804,0.3549,0.58039,0.6098
17.968,0.58944,-0.20049,0.29412,0.66471,0.7
17.976,0.58944,-0.20293,0.2098,0.77059,0.81176
17.984,0.5914,-0.20293,0.2902,0.62941,0.62549
17.992,0.59238,-0.20782,0.82549,0.28431,0.013725
18,0.5914,-0.21027,1.3373,-0.047059,-0.50196
18.008,0.59042,-0.21271,1.0961,-0.072549,-0.21176
18.016,0.58749,-0.21516,0.56471,0.32941,0.5902
18.024,0.58358,-0.21516,0.32941,0.3902,0.81176
18.032,0.57674,-0.2176,0.2902,0.4902,0.7549
18.04,0.56794,-0.22005,0.30392,0.5549,0.67059
18.048,0.55914,-0.22005,0.33529,0.57059,0.61569
18.056,0.54936,-0.22005,0.37059,0.59608,0.57059
18.064,0.53861,-0.22005,0.3549,0.5902,0.57451
18.072,0.52688,-0.22005,0.37059,0.6,0.5549
18.08,0.51515,-0.22005,0.35882,0.58039,0.56471
18.088,0.50538,-0.22005,0.37059,0.5902,0.5549
18.096,0.4956,-0.22005,0.37451,0.57451,0.55098
18.104,0.48583,-0.22005,0.35882,0.56471,0.5549
18.112,0.47703,-0.2176,0.39412,0.5549,0.53529
18.12,0.46921,-0.2176,0.38039,0.58039,0.5549
18.128,0.46334,-0.2176,0.46078,0.55098,0.47059
18.136,0.45846,-0.21516,0.48039,0.53922,0.41961
18.144,0.45552,-0.21271,0.48039,0.57059,0.40392
18.152,0.45357,-0.21271,0.43922,0.53529,0.41569
18.16,0.45259,-0.21027,0.4902,0.50588,0.3902
18.168,0.45161,-0.20782,0.52941,0.48039,0.33922
18.176,0.45161,-0.20538,0.5549,0.47059,0.29412
18.184,0.45161,-0.20293,0.59608,0.51961,0.23333
18.192,0.45161,-0.20049,0.63529,0.48039,0.19412
18.2,0.45161,-0.19804,0.6549,0.41961,0.16863
18.208,0.45161,-0.1956,0.6451,0.41961,0.16863
18.216,0.45161,-0.19315,0.66078,0.43922,0.17451
18.224,0.45161,-0.19315,0.67647,0.43529,0.15882
18.232,0.45161,-0.19071,0.67647,0.4451,0.1549
18.24,0.45161,-0.18826,0.66471,0.44902,0.18824
18.248,0.45161,-0.18826,0.67059,0.4451,0.18431
18.256,0.45161,-0.18582,0.58039,0.5098,0.30392
18.264,0.45064,-0.18337,0.52549,0.48039,0.39412
18.272,0.44966,-0.18093,0.43529,0.52941,0.50588
18.28,0.44868,-0.18093,0.37451,0.56471,0.59608
18.288,0.4477,-0.17848,0.32353,0.57059,0.6549
18.296,0.44575,-0.17604,0.31373,0.58431,0.67059
18.304,0.44379,-0.17359,0.30392,0.61569,0.68627
18.312,0.44184,-0.17115,0.2902,0.62941,0.70588
18.32,0.43988,-0.1687,0.3,0.62941,0.6902
18.328,0.43793,-0.16626,0.31373,0.65098,0.68039
18.336,0.43597,-0.16381,0.3,0.66078,0.7098
18.344,0.435,-0.16381,0.2902,0.61569,0.71569
18.352,0.43304,-0.16137,0.27843,0.61961,0.71569
18.36,0.43109,-0.15892,0.26863,0.6098,0.71569
18.368,0.43011,-0.15892,0.25882,0.60588,0.7098
18.376,0.42815,-0.15648,0.2549,0.6098,0.71569
18.384,0.4262,-0.15648,0.2902,0.6,0.69608
18.392,0.42522,-0.15648,0.3,0.61569,0.69608
18.4,0.42326,-0.15403,0.31373,0.61961,0.68039
18.408,0.42131,-0.15403,0.31373,0.6098,0.67647
18.416,0.41935,-0.15159,0.3098,0.60588,0.67647
18.424,0.4174,-0.15159,0.30392,0.6,0.7
18.432,0.41447,-0.15159,0.2902,0.60588,0.69608
18.44,0.41153,-0.15159,0.28431,0.58431,0.66471
18.448,0.4086,-0.14914,0.31373,0.57059,0.6451
18.456,0.40665,-0.14914,0.30392,0.57451,0.67059
18.464,0.40469,-0.14914,0.29412,0.58431,0.68039
18.472,0.40274,-0.14914,0.30392,0.58431,0.66078
18.48,0.40078,-0.1467,0.33922,0.58039,0.63529
18.488,0.3998,-0.1467,0.32353,0.6,0.6451
18.496,0.39883,-0.14425,0.32353,0.61569,0.6451
18.504,0.39785,-0.14181,0.31373,0.5902,0.67059
18.512,0.39883,-0.13936,0.31373,0.57451,0.66471
18.52,0.3998,-0.13692,0.31961,0.59608,0.6451
18.528,0.40078,-0.13447,0.33922,0.6098,0.64118
18.536,0.40274,-0.13203,0.3451,0.5902,0.65098
18.544,0.40665,-0.12958,0.3549,0.6098,0.61961
18.552,0.41251,-0.12714,0.38431,0.5902,0.58039
18.56,0.42229,-0.12469,0.3902,0.57059,0.57451
18.568,0.43402,-0.12225,0.37451,0.55098,0.58039
18.576,0.4477,-0.1198,0.35882,0.53529,0.58039
18.584,0.46334,-0.11736,0.34902,0.55098,0.6
18.592,0.47703,-0.11491,0.3549,0.5451,0.6098
18.6,0.48974,-0.11247,0.32353,0.57059,0.64118
18.608,0.50244,-0.11002,0.32353,0.58039,0.63529
18.616,0.51515,-0.10758,0.31373,0.58431,0.65098
18.624,0.52688,-0.10513,0.31373,0.55098,0.6451
18.632,0.53666,-0.10269,0.31961,0.56471,0.6451
18.64,0.54448,-0.10024,0.26863,0.66471,0.7098
18.648,0.54936,-0.0978,0.22353,0.76078,0.78039
18.656,0.55132,-0.095355,0.2902,0.6549,0.60588
18.664,0.55132,-0.09291,0.7902,0.31961,0.058824
18.672,0.54839,-0.090465,1.2922,0.0039216,-0.44314
18.68,0.54448,-0.085575,1.0765,-0.015686,-0.16275
18.688,0.53959,-0.08313,0.5902,0.37059,0.57059
18.696,0.53372,-0.080685,0.36471,0.3902,0.7549
18.704,0.5259,-0.07824,0.29412,0.4451,0.76667
18.712,0.51808,-0.07335,0.33922,0.52941,0.64118
18.72,0.50929,-0.06846,0.32941,0.5902,0.62941
18.728,0.50049,-0.066015,0.33922,0.60588,0.59608
18.736,0.49071,-0.061125,0.35882,0.5902,0.56471
18.744,0.48094,-0.056235,0.34902,0.58431,0.57451
18.752,0.47019,-0.05379,0.3549,0.5902,0.58039
18.76,0.46041,-0.0489,0.3451,0.58039,0.58039
18.768,0.44966,-0.046455,0.37059,0.56471,0.57059
18.776,0.43793,-0.041565,0.37451,0.53922,0.5549
18.784,0.42717,-0.036675,0.38431,0.53529,0.52549
18.792,0.4174,-0.031785,0.41961,0.57059,0.49412
18.8,0.4086,-0.026895,0.4451,0.55098,0.47059
18.808,0.3998,-0.01956,0.48039,0.56471,0.42549
18.816,0.39198,-0.01467,0.50588,0.53922,0.4098
18.824,0.38514,-0.00978,0.48431,0.52941,0.4098
18.832,0.37928,-0.002445,0.50588,0.53529,0.3902
18.84,0.37634,0.002445,0.52549,0.5098,0.36471
18.848,0.37439,0.007335,0.57059,0.44902,0.31373
18.856,0.37341,0.012225,0.6,0.47451,0.26471
18.864,0.37243,0.01956,0.61569,0.46471,0.22941
18.872,0.37243,0.02445,0.66078,0.4549,0.18824
18.88,0.37146,0.02934,0.67059,0.43922,0.17451
18.888,0.37146,0.036675,0.68039,0.43529,0.18431
18.896,0.37048,0.041565,0.67647,0.41961,0.16471
18.904,0.3695,0.046455,0.69608,0.4,0.17451
18.912,0.36755,0.05379,0.67059,0.46471,0.21961
18.92,0.36559,0.05868,0.62941,0.48431,0.28431
18.928,0.36266,0.06357,0.58039,0.52549,0.34902
18.936,0.35973,0.070905,0.55098,0.5451,0.4
18.944,0.35582,0.075795,0.46471,0.56078,0.4902
18.952,0.35288,0.08313,0.38039,0.55098,0.58039
18.96,0.34995,0.090465,0.32941,0.6,0.64118
18.968,0.34702,0.0978,0.29412,0.6098,0.68627
18.976,0.34311,0.10758,0.2902,0.61569,0.69608
18.984,0.34115,0.11491,0.27843,0.5902,0.6902
18.992,0.3392,0.12469,0.28431,0.63529,0.69608
19,0.33724,0.13203,0.30392,0.6098,0.67059
19.008,0.33431,0.13936,0.27451,0.58039,0.69608
19.016,0.33138,0.1467,0.26863,0.61569,0.6902
19.024,0.3304,0.15403,0.27451,0.61961,0.7098
19.032,0.32845,0.16137,0.25882,0.6098,0.71569
19.04,0.32747,0.16626,0.26863,0.61569,0.6902
19.048,0.32551,0.17359,0.28431,0.59608,0.67059
19.056,0.32356,0.18093,0.27843,0.5902,0.69608
19.064,0.3216,0.18582,0.27451,0.60588,0.70588
19.072,0.31769,0.19315,0.2902,0.57059,0.66471
19.08,0.31281,0.19804,0.3098,0.58039,0.6451
19.088,0.30987,0.20293,0.32353,0.5549,0.6451
19.096,0.30694,0.20782,0.29412,0.6,0.68627
19.104,0.30596,0.21271,0.2902,0.59608,0.67647
19.112,0.30401,0.22005,0.30392,0.58431,0.65098
19.12,0.30303,0.22738,0.31373,0.58039,0.65098
19.128,0.30303,0.23472,0.30392,0.58431,0.66078
19.136,0.30401,0.24205,0.2902,0.5549,0.65098
19.144,0.30499,0.24939,0.3098,0.56471,0.62941
19.152,0.30596,0.25917,0.3451,0.56078,0.61569
19.16,0.30596,0.2665,0.3549,0.5902,0.61961
19.168,0.30596,0.27384,0.32941,0.59608,0.63529
19.176,0.30596,0.28117,0.36471,0.5902,0.60588
19.184,0.30694,0.28851,0.38431,0.59608,0.58431
19.192,0.30694,0.29584,0.3902,0.6,0.58039
19.2,0.30792,0.30318,0.37059,0.58431,0.5902
19.208,0.30987,0.31051,0.38039,0.56078,0.58039
19.216,0.31378,0.32029,0.38431,0.53922,0.57451
19.224,0.31965,0.32518,0.37451,0.5451,0.58431
19.232,0.32747,0.33252,0.34902,0.55098,0.60588
19.24,0.33724,0.33985,0.33922,0.5549,0.61569
19.248,0.34995,0.34474,0.31961,0.5451,0.63529
19.256,0.36266,0.34963,0.32353,0.5451,0.63529
19.264,0.3783,0.35697,0.33922,0.57451,0.65098
19.272,0.39394,0.36186,0.33922,0.56471,0.61569
19.28,0.4086,0.36919,0.3549,0.55098,0.59608
19.288,0.42033,0.37408,0.30392,0.60588,0.6451
19.296,0.43109,0.37897,0.26863,0.7098,0.69608
19.304,0.44184,0.38142,0.26471,0.66078,0.56078
19.312,0.45161,0.38631,0.7098,0.40392,0.14314
19.32,0.45943,0.38875,1.2471,0.1098,-0.31176
19.328,0.4653,0.3912,1.2627,0.088235,-0.10196
19.336,0.46921,0.39364,0.61569,0.47059,0.58039
19.344,0.46921,0.39609,0.39412,0.5098,0.8
19.352,0.46823,0.39853,0.2549,0.4549,0.81176
19.36,0.46432,0.40098,0.30392,0.51569,0.66078
19.368,0.45846,0.40342,0.33922,0.56078,0.58431
19.376,0.45259,0.40587,0.3451,0.58431,0.57451
19.384,0.44673,0.40587,0.3549,0.59608,0.60588
19.392,0.44184,0.40831,0.34902,0.56078,0.58039
19.4,0.43402,0.41076,0.35882,0.5549,0.5549
19.408,0.42522,0.41076,0.38431,0.57059,0.53529
19.416,0.41642,0.4132,0.39412,0.57059,0.53529
19.424,0.40762,0.41565,0.3902,0.55098,0.53529
19.432,0.3998,0.41809,0.4098,0.55098,0.52549
19.44,0.39296,0.42298,0.4098,0.5451,0.52941
19.448,0.38514,0.42543,0.41569,0.55098,0.5
19.456,0.3783,0.43032,0.44902,0.52549,0.46078
19.464,0.37146,0.43521,0.47059,0.5098,0.43529
19.472,0.36461,0.43765,0.48431,0.50588,0.41569
19.48,0.35973,0.44254,0.51961,0.50588,0.38431
19.488,0.35679,0.44499,0.53922,0.5,0.34902
19.496,0.35484,0.44988,0.57059,0.49412,0.31961
19.504,0.35386,0.45232,0.5902,0.48431,0.3
19.512,0.35484,0.45477,0.63529,0.47451,0.2549
19.52,0.35582,0.45966,0.67647,0.46078,0.2098
19.528,0.35679,0.4621,0.69608,0.43922,0.17843
19.536,0.35875,0.46455,0.6902,0.4451,0.17451
19.544,0.35973,0.46944,0.7,0.42941,0.19412
19.552,0.35875,0.47188,0.6902,0.44902,0.2098
19.56,0.35875,0.47433,0.67059,0.4549,0.22353
19.568,0.35777,0.47677,0.64118,0.48039,0.27451
19.576,0.35777,0.47922,0.59608,0.50588,0.33529
19.584,0.35777,0.48166,0.52549,0.53529,0.42549
19.592,0.35777,0.48411,0.46078,0.5451,0.50588
19.6,0.35777,0.48655,0.40392,0.56471,0.56471
19.608,0.35777,0.489,0.35882,0.58431,0.6098
19.616,0.35777,0.49144,0.3098,0.60588,0.65098
19.624,0.35679,0.49389,0.28431,0.61961,0.67647
19.632,0.35582,0.49633,0.27843,0.62549,0.69608
19.64,0.35582,0.49878,0.26863,0.61569,0.70588
19.648,0.35484,0.49878,0.26863,0.62941,0.69608
19.656,0.35484,0.49878,0.27843,0.61961,0.6902
19.664,0.35484,0.50122,0.26863,0.61569,0.68627
19.672,0.35484,0.49878,0.26471,0.5902,0.68039
19.68,0.35484,0.49878,0.25882,0.5902,0.68627
19.688,0.35484,0.49633,0.27843,0.59608,0.67647
19.696,0.35484,0.49389,0.3,0.5902,0.67059
19.704,0.35484,0.49389,0.2902,0.58431,0.67647
19.712,0.35484,0.49144,0.27843,0.61569,0.68627
19.72,0.35484,0.489,0.28431,0.59608,0.68039
19.728,0.35484,0.48655,0.3,0.58431,0.65098
19.736,0.35484,0.48411,0.31373,0.57451,0.63529
19.744,0.35484,0.48411,0.31961,0.57451,0.62941
19.752,0.35484,0.48166,0.30392,0.58039,0.65098
19.76,0.35484,0.47922,0.31373,0.58431,0.6451
19.768,0.35484,0.47677,0.3098,0.58431,0.64118
19.776,0.35484,0.47433,0.3,0.57451,0.6451
19.784,0.35484,0.47433,0.2902,0.57059,0.6451
19.792,0.35484,0.47188,0.3098,0.56471,0.63529
19.8,0.35484,0.47188,0.31373,0.57059,0.6451
19.808,0.35484,0.46944,0.32941,0.59608,0.62941
19.816,0.35484,0.46944,0.33922,0.62941,0.62549
19.824,0.35484,0.46944,0.34902,0.6098,0.63529
19.832,0.35484,0.46944,0.3451,0.61569,0.62941
19.84,0.35582,0.46944,0.35882,0.59608,0.6098
19.848,0.35973,0.46944,0.38431,0.58431,0.57451
19.856,0.36461,0.46944,0.37451,0.57059,0.58039
19.864,0.36852,0.46944,0.35882,0.57059,0.60588
19.872,0.37634,0.47188,0.35882,0.58039,0.59608
19.88,0.38612,0.47188,0.3549,0.56078,0.58039
19.888,0.39589,0.47188,0.33529,0.5549,0.60588
19.896,0.40665,0.47188,0.3098,0.57451,0.63529
19.904,0.41935,0.47188,0.32941,0.58039,0.6098
19.912,0.43402,0.47188,0.3451,0.5549,0.59608
19.92,0.44868,0.47188,0.35882,0.5902,0.57451
19.928,0.46334,0.47188,0.32941,0.56471,0.6098
19.936,0.47801,0.47188,0.26471,0.66471,0.7098
19.944,0.49169,0.47188,0.17451,0.7902,0.80588
19.952,0.50342,0.47188,0.30392,0.66471,0.58431
19.96,0.51222,0.47188,0.84118,0.31373,0.04902
19.968,0.51906,0.46944,1.3471,-0.0058823,-0.43725
19.976,0.52395,0.46944,1.002,-0.011765,-0.060784
19.984,0.52786,0.46699,0.49412,0.3,0.6
19.992,0.52981,0.46699,0.28431,0.3549,0.7549
20,0.53763,0.46699,0.2549,0.47451,0.70588
20.008,0.55034,0.46455,0.3098,0.56078,0.65098
20.016,0.55523,0.46455,0.33529,0.6,0.61961
20.024,0.55621,0.46455,0.31373,0.59608,0.61569
20.032,0.55425,0.46455,0.32353,0.61569,0.61961
20.04,0.55034,0.4621,0.3549,0.6098,0.57059
20.048,0.54545,0.4621,0.38039,0.6,0.53922
20.056,0.53959,0.4621,0.38431,0.60588,0.52941
20.064,0.53372,0.4621,0.38431,0.5902,0.53922
20.072,0.52688,0.46455,0.38039,0.63529,0.55098
20.08,0.52004,0.46455,0.40392,0.58431,0.53529
20.088,0.51417,0.46699,0.4,0.57451,0.5451
20.096,0.50929,0.46699,0.42549,0.57059,0.5
20.104,0.50538,0.46944,0.46078,0.57059,0.4549
20.112,0.50049,0.47188,0.47451,0.57451,0.4451
20.12,0.49756,0.47433,0.50588,0.58039,0.41961
20.128,0.4956,0.47677,0.51569,0.5549,0.39412
20.136,0.49365,0.47922,0.53529,0.5451,0.35882
20.144,0.49267,0.48166,0.55098,0.53529,0.33529
20.152,0.49267,0.48411,0.6,0.52549,0.27451
20.16,0.49267,0.489,0.61961,0.51569,0.25882
20.168,0.49267,0.49144,0.6451,0.50588,0.22353
20.176,0.49267,0.49389,0.68039,0.49412,0.19412
20.184,0.49365,0.49633,0.6902,0.47059,0.17451
20.192,0.49462,0.49878,0.69608,0.46078,0.17451
20.2,0.49658,0.50122,0.68627,0.46471,0.18824
20.208,0.49853,0.50367,0.6902,0.47451,0.21961
20.216,0.50049,0.50367,0.61569,0.5098,0.30392
20.224,0.50147,0.50611,0.56078,0.53922,0.37451
20.232,0.50244,0.50611,0.48431,0.55098,0.44902
20.24,0.50244,0.50856,0.43529,0.5451,0.5098
20.248,0.50147,0.50611,0.4,0.58431,0.56471
20.256,0.49951,0.50611,0.3549,0.63529,0.6098
20.264,0.49853,0.50611,0.3098,0.59608,0.65098
20.272,0.49756,0.50367,0.2902,0.61569,0.68039
20.28,0.49756,0.50122,0.27451,0.62549,0.69608
20.288,0.49658,0.50122,0.26863,0.61961,0.70588
20.296,0.49658,0.49633,0.27451,0.61569,0.69608
20.304,0.49658,0.49389,0.2902,0.6,0.6902
20.312,0.49658,0.489,0.28431,0.5902,0.69608
20.32,0.49658,0.48411,0.3,0.6098,0.6902
20.328,0.49462,0.47922,0.30392,0.61961,0.67647
20.336,0.49267,0.47433,0.27451,0.62941,0.6902
20.344,0.49169,0.46699,0.26863,0.5902,0.68627
20.352,0.48974,0.4621,0.27843,0.5902,0.6902
20.36,0.48778,0.45721,0.27451,0.6098,0.69608
20.368,0.48583,0.44988,0.3,0.61569,0.67647
20.376,0.48387,0.44254,0.31373,0.59608,0.66078
20.384,0.48289,0.43765,0.30392,0.6,0.67059
20.392,0.48094,0.42787,0.31373,0.59608,0.6549
20.4,0.47996,0.42054,0.3451,0.6,0.62549
20.408,0.47801,0.4132,0.33922,0.57059,0.62941
20.416,0.47507,0.40587,0.31961,0.63529,0.65098
20.424,0.47312,0.39853,0.3,0.57059,0.66471
20.432,0.47116,0.38875,0.31373,0.57451,0.62941
20.44,0.46921,0.38142,0.33529,0.57059,0.6
20.448,0.46823,0.37408,0.33922,0.57059,0.61569
20.456,0.46725,0.36675,0.33529,0.58039,0.61961
20.464,0.46725,0.35941,0.31373,0.5902,0.63529
20.472,0.46628,0.35208,0.33529,0.5902,0.64118
20.48,0.46725,0.34474,0.35882,0.6,0.6098
20.488,0.46823,0.33741,0.38039,0.60588,0.5902
20.496,0.46921,0.33007,0.3902,0.57451,0.57059
20.504,0.47214,0.32274,0.37059,0.57059,0.60588
20.512,0.47605,0.3154,0.33922,0.56078,0.61569
20.52,0.48289,0.30807,0.32941,0.56471,0.60588
20.528,0.49169,0.30073,0.3451,0.57059,0.58431
20.536,0.50147,0.2934,0.35882,0.56471,0.57451
20.544,0.51417,0.28606,0.3451,0.57059,0.60588
20.552,0.52688,0.27628,0.32941,0.55098,0.62549
20.56,0.53959,0.26895,0.32353,0.5451,0.62941
20.568,0.5523,0.25917,0.33922,0.5451,0.6098
20.576,0.56403,0.24939,0.3,0.62941,0.66078
20.584,0.57283,0.23961,0.2451,0.80588,0.77647
20.592,0.57967,0.22983,0.20392,0.74118,0.8
20.6,0.58651,0.22005,0.52549,0.47059,0.3451
20.608,0.59238,0.21027,1.1373,0.084314,-0.30196
20.616,0.59726,0.20049,1.3471,-0.031373,-0.50196
20.624,0.6002,0.19071,0.76667,0.21961,0.24902
20.632,0.60215,0.18093,0.42941,0.33529,0.6902
20.64,0.60313,0.17115,0.29412,0.40392,0.73137
20.648,0.60215,0.16137,0.28431,0.5098,0.66078
20.656,0.6002,0.15159,0.33922,0.57451,0.62549
20.664,0.59726,0.14181,0.32941,0.61569,0.62941
20.672,0.59335,0.13447,0.3451,0.59608,0.6
20.68,0.58944,0.12714,0.33922,0.5902,0.59608
20.688,0.58456,0.1198,0.33922,0.58431,0.58039
20.696,0.57869,0.11247,0.35882,0.58431,0.5549
20.704,0.57185,0.10513,0.38039,0.61569,0.55098
20.712,0.56598,0.095355,0.3902,0.58431,0.53529
20.72,0.55816,0.08802,0.42549,0.58431,0.5
20.728,0.55132,0.08313,0.42941,0.58039,0.5098
20.736,0.54448,0.075795,0.41569,0.62549,0.49412
20.744,0.53763,0.06846,0.43529,0.56471,0.48039
20.752,0.53177,0.06357,0.4451,0.5451,0.46078
20.76,0.5259,0.05868,0.4902,0.52549,0.41569
20.768,0.52102,0.05379,0.51569,0.5451,0.38431
20.776,0.51711,0.0489,0.52549,0.52941,0.37059
20.784,0.5132,0.04401,0.5549,0.49412,0.31373
20.792,0.51124,0.03912,0.5902,0.48039,0.26863
20.8,0.50929,0.03423,0.61569,0.47059,0.2451
20.808,0.50831,0.031785,0.6451,0.47451,0.2
20.816,0.50733,0.026895,0.66471,0.44902,0.16863
20.824,0.50538,0.02445,0.66471,0.44902,0.17451
20.832,0.5044,0.01956,0.68039,0.44902,0.15882
20.84,0.50342,0.017115,0.68627,0.4451,0.17843
20.848,0.50342,0.01467,0.67059,0.46471,0.19412
20.856,0.50244,0.012225,0.66471,0.4902,0.21961
20.864,0.50244,0.00978,0.60588,0.52549,0.28431
20.872,0.50049,0.007335,0.53922,0.51569,0.37451
20.88,0.50049,0.00489,0.49412,0.55098,0.46078
20.888,0.49951,0.002445,0.41961,0.58431,0.53922
20.896,0.49853,0,0.3549,0.62549,0.6098
20.904,0.49853,0,0.32941,0.58431,0.65098
20.912,0.49853,-0.002445,0.30392,0.59608,0.68039
20.92,0.49853,-0.00489,0.27843,0.6098,0.70588
20.928,0.49756,-0.007335,0.28431,0.61569,0.7
20.936,0.49658,-0.00978,0.3,0.6,0.6902
20.944,0.49462,-0.012225,0.28431,0.61569,0.70588
20.952,0.49267,-0.01467,0.27451,0.6098,0.71569
20.96,0.49071,-0.017115,0.27843,0.60588,0.69608
20.968,0.48876,-0.022005,0.28431,0.6,0.6902
20.976,0.48583,-0.02445,0.27843,0.61961,0.69608
20.984,0.48387,-0.026895,0.31373,0.62941,0.67059
20.992,0.48289,-0.031785,0.3098,0.61961,0.67059
21,0.48094,-0.03423,0.29412,0.62549,0.6902
21.008,0.47996,-0.036675,0.2902,0.6,0.7
21.016,0.47801,-0.03912,0.2902,0.61569,0.69608
21.024,0.47507,-0.04401,0.29412,0.5902,0.67059
21.032,0.47312,-0.046455,0.3098,0.57059,0.65098
21.04,0.47116,-0.0489,0.31373,0.58039,0.6451
21.048,0.46921,-0.051345,0.2902,0.57451,0.66078
21.056,0.46725,-0.05379,0.28431,0.5902,0.67059
21.064,0.46628,-0.056235,0.30392,0.61961,0.66078
21.072,0.4653,-0.05868,0.32353,0.5902,0.66471
21.08,0.46432,-0.05868,0.31961,0.58431,0.64118
21.088,0.46334,-0.061125,0.31373,0.5902,0.6549
21.096,0.46237,-0.061125,0.33529,0.57059,0.62941
