Time [s], ABP, RESP, PLETH, V, II, AVR, CVP
0,77.054,0.14565,0.64321,0.46477,0.62524,0.4002,16.494
0.008,79.009,0.15249,0.64614,0.46477,0.63503,0.3953,16.104
0.016,80.378,0.15934,0.64809,0.46967,0.63503,0.3953,15.714
0.024,81.356,0.16716,0.64712,0.46967,0.63014,0.3953,15.325
0.032,81.747,0.17498,0.64516,0.46967,0.62524,0.4002,14.935
0.04,81.943,0.18377,0.64125,0.46967,0.62524,0.4002,14.545
0.048,81.552,0.19355,0.63441,0.47456,0.62524,0.40509,14.286
0.056,80.965,0.20137,0.62659,0.47456,0.63503,0.4002,14.156
0.064,80.183,0.21017,0.61779,0.46477,0.63503,0.4002,13.896
0.072,79.009,0.21896,0.60899,0.45499,0.63503,0.4002,13.896
0.08,77.836,0.22776,0.59824,0.44521,0.63503,0.4002,14.156
0.088,76.662,0.23851,0.58651,0.44031,0.63992,0.38454,14.416
0.096,75.293,0.24829,0.57478,0.40998,0.67025,0.33464,15.195
0.104,74.12,0.26002,0.56403,0.35519,0.77495,0.27006,15.974
0.112,72.751,0.27273,0.55425,0.30528,0.9501,0.22994,17.013
0.12,71.578,0.28348,0.54545,0.27984,1.001,0.24951,18.052
0.128,70.404,0.29521,0.53959,0.30528,1.001,0.34442,18.831
0.136,69.231,0.30694,0.5347,0.38454,0.7456,0.50489,19.221
0.144,68.253,0.31769,0.53177,0.46477,0.45499,0.63503,19.221
0.152,67.08,0.33138,0.52981,0.5,0.32975,0.67025,18.961
0.16,66.102,0.34506,0.52786,0.5,0.37476,0.5998,18.442
0.168,65.319,0.3607,0.52688,0.49511,0.48532,0.50489,17.922
0.176,64.537,0.37634,0.5259,0.49511,0.55969,0.44031,17.662
0.184,63.95,0.39492,0.52395,0.49511,0.59491,0.4002,17.403
0.192,63.168,0.41349,0.52297,0.49022,0.5998,0.3953,17.662
0.2,62.777,0.43304,0.52199,0.49022,0.6047,0.38943,17.922
0.208,62.386,0.45259,0.52004,0.49511,0.61057,0.38943,18.571
0.216,61.995,0.47019,0.51711,0.49022,0.6047,0.38943,19.091
0.224,61.604,0.48876,0.51417,0.48532,0.5998,0.3953,19.61
0.232,61.408,0.50635,0.51124,0.48532,0.6047,0.3953,20.13
0.24,61.408,0.52297,0.50733,0.48043,0.61057,0.3953,20.519
0.248,61.213,0.54057,0.50342,0.48043,0.6047,0.3953,20.779
0.256,61.213,0.55914,0.49951,0.47456,0.61057,0.3953,20.909
0.264,61.408,0.57674,0.49658,0.46967,0.61546,0.38454,21.169
0.272,61.408,0.59531,0.49267,0.46477,0.62035,0.37965,21.558
0.28,61.604,0.61193,0.48876,0.46477,0.62524,0.37965,22.208
0.288,61.799,0.62854,0.48387,0.46477,0.63503,0.37476,22.987
0.296,61.995,0.64321,0.47898,0.46477,0.63992,0.36497,23.896
0.304,61.995,0.65787,0.47507,0.46477,0.64481,0.36008,24.805
0.312,62.19,0.67253,0.47019,0.45988,0.65558,0.35029,25.714
0.32,62.386,0.68817,0.4653,0.45499,0.67025,0.33464,26.494
0.328,62.386,0.70283,0.46041,0.45499,0.68493,0.31996,27.273
0.336,62.582,0.71848,0.4565,0.45499,0.68982,0.31018,27.532
0.344,62.582,0.73314,0.45357,0.45499,0.68982,0.31018,27.403
0.352,62.582,0.74878,0.44868,0.4501,0.68982,0.31507,27.013
0.36,62.582,0.76246,0.44379,0.4501,0.68982,0.31996,26.234
0.368,62.386,0.77713,0.43891,0.45499,0.68493,0.32975,25.325
0.376,62.386,0.78983,0.435,0.45499,0.67025,0.34442,24.416
0.384,62.19,0.80254,0.42913,0.4501,0.65558,0.35519,23.896
0.392,61.995,0.81427,0.42424,0.4501,0.63503,0.36986,23.636
0.4,62.19,0.826,0.41935,0.45988,0.62035,0.38943,23.636
0.408,62.582,0.83773,0.41642,0.46477,0.6047,0.4002,23.896
0.416,63.559,0.85044,0.41349,0.47456,0.59491,0.41487,24.156
0.424,65.515,0.86315,0.41056,0.48043,0.59002,0.41977,24.416
0.432,68.449,0.87586,0.40665,0.48532,0.59002,0.42466,24.545
0.44,72.36,0.88759,0.40274,0.49511,0.59002,0.42466,24.416
0.448,77.249,0.89932,0.39883,0.49511,0.59002,0.42466,24.286
0.456,82.725,0.90909,0.39492,0.49511,0.59002,0.42466,24.156
0.464,88.788,0.91984,0.39198,0.49511,0.59002,0.42466,24.026
0.472,95.046,0.92962,0.38905,0.5,0.59491,0.41977,23.896
0.48,100.91,0.94037,0.3871,0.5,0.5998,0.41977,24.026
0.488,105.8,0.95112,0.38514,0.5,0.5998,0.41977,24.026
0.496,109.32,0.9609,0.38416,0.50489,0.61057,0.41977,24.156
0.504,111.28,0.97165,0.38221,0.50978,0.61057,0.41977,24.416
0.512,111.86,0.9824,0.38025,0.50978,0.61546,0.41487,24.545
0.52,110.69,0.9912,0.3783,0.50978,0.62035,0.41487,24.675
0.528,108.54,1,0.37634,0.5,0.62035,0.41487,24.805
0.536,105.41,1,0.37537,0.49022,0.62035,0.41977,24.935
0.544,101.5,1,0.37341,0.48043,0.62035,0.41977,25.195
0.552,97.588,1,0.37146,0.48043,0.62035,0.42466,25.325
0.56,93.481,1,0.3695,0.47456,0.62524,0.42466,25.455
0.568,89.374,1,0.36755,0.47456,0.62524,0.40998,25.455
0.576,85.463,1,0.36657,0.4501,0.64971,0.36986,25.325
0.584,81.356,1,0.36559,0.40509,0.7407,0.30528,25.065
0.592,77.64,1,0.36461,0.35029,0.91585,0.2593,24.805
0.6,73.924,1,0.36559,0.30528,1.001,0.24462,24.416
0.608,70.404,1,0.36852,0.29941,1.001,0.29941,24.026
0.616,67.471,1,0.37439,0.37965,0.82485,0.44031,23.636
0.624,64.928,1,0.38416,0.46967,0.52544,0.58513,23.117
0.632,62.973,1,0.39687,0.50978,0.37476,0.63503,22.468
0.64,61.604,1,0.41251,0.52544,0.36986,0.59002,21.818
0.648,61.017,1,0.43109,0.53033,0.5,0.51468,21.169
0.656,61.017,1,0.45161,0.54012,0.58023,0.45499,20.519
0.664,61.408,1,0.46921,0.54012,0.61546,0.41977,19.74
0.672,62.582,1,0.48583,0.54012,0.63014,0.40509,19.221
0.68,64.146,1,0.50342,0.53033,0.63992,0.4002,18.701
0.688,65.906,1,0.52102,0.52544,0.63992,0.4002,18.312
0.696,68.253,1,0.53568,0.50978,0.64481,0.3953,18.052
0.704,70.6,1,0.54839,0.50489,0.64481,0.38943,17.922
0.712,73.142,1,0.55816,0.5,0.64971,0.38943,17.922
0.72,75.293,1,0.565,0.5,0.64971,0.38943,17.922
0.728,77.445,1,0.56891,0.5,0.64971,0.38943,17.922
0.736,79.009,1,0.56989,0.5,0.65558,0.38454,17.922
0.744,80.183,1,0.56989,0.50489,0.66047,0.37965,17.922
0.752,80.965,1,0.56794,0.5,0.66047,0.37965,17.792
0.76,81.16,1,0.56403,0.5,0.66536,0.37965,17.662
0.768,81.16,1,0.55914,0.5,0.67515,0.37476,17.532
0.776,80.574,1,0.5523,0.5,0.68493,0.36008,17.403
0.784,79.791,1,0.54448,0.5,0.69472,0.35029,17.273
0.792,78.814,1,0.5347,0.5,0.71037,0.33464,17.403
0.8,77.836,1,0.52395,0.49511,0.72505,0.31996,18.052
0.808,76.662,1,0.51222,0.49511,0.73483,0.31507,19.481
0.816,75.293,1,0.50147,0.49511,0.7407,0.31018,21.558
0.824,74.12,1,0.49169,0.49511,0.7456,0.31018,23.896
0.832,72.947,1,0.48289,0.49511,0.7456,0.31507,25.844
0.84,71.773,1,0.47605,0.48532,0.73483,0.31996,27.273
0.848,70.6,1,0.47116,0.48043,0.72016,0.33464,28.052
0.856,69.622,1,0.46823,0.48043,0.70059,0.35029,27.792
0.864,68.84,1,0.46628,0.48043,0.68004,0.36497,26.883
0.872,68.253,1,0.4653,0.48043,0.66536,0.37965,25.584
0.88,67.666,1,0.46432,0.47456,0.65558,0.3953,24.156
0.888,67.275,1,0.46432,0.48043,0.63992,0.40509,23.377
0.896,67.275,1,0.46334,0.48532,0.63503,0.40998,23.117
0.904,67.471,1,0.46237,0.48532,0.63014,0.41487,23.377
0.912,68.253,1,0.46041,0.49022,0.62524,0.41977,23.766
0.92,69.622,1,0.45943,0.49511,0.62524,0.41977,24.156
0.928,71.773,1,0.45748,0.49511,0.62524,0.41977,24.416
0.936,74.707,0.99804,0.4565,0.49511,0.62524,0.41977,24.416
0.944,78.227,0.99609,0.45455,0.5,0.62035,0.41487,24.026
0.952,82.138,0.98338,0.45259,0.50489,0.62035,0.41487,23.377
0.96,86.441,0.9697,0.45064,0.50978,0.62524,0.41487,22.597
0.968,90.743,0.95601,0.44868,0.50978,0.62035,0.41487,22.208
0.976,94.85,0.94135,0.44673,0.51468,0.62035,0.41487,21.818
0.984,98.175,0.92571,0.44477,0.51468,0.62035,0.41487,21.818
0.992,100.91,0.90909,0.44282,0.51468,0.61546,0.41487,22.078
1,102.48,0.89247,0.43891,0.50978,0.61546,0.41487,22.468
1.008,102.87,0.87586,0.43597,0.50489,0.61057,0.41487,22.857
1.016,102.09,0.86022,0.43206,0.5,0.61057,0.41977,23.506
1.024,100.33,0.84457,0.42815,0.49511,0.61057,0.41977,23.896
1.032,97.588,0.82991,0.42522,0.49511,0.6047,0.42466,24.026
1.04,94.068,0.81525,0.42229,0.49511,0.5998,0.42466,23.896
1.048,90.157,0.80059,0.41935,0.49511,0.5998,0.42466,23.766
1.056,85.854,0.78592,0.41642,0.5,0.6047,0.41977,23.506
1.064,81.552,0.77028,0.41447,0.5,0.61057,0.41487,22.987
1.072,77.249,0.75562,0.41349,0.5,0.61057,0.41487,22.468
1.08,73.338,0.74194,0.41153,0.5,0.61057,0.41487,21.948
1.088,69.622,0.72825,0.41153,0.5,0.61057,0.41487,21.688
1.096,66.688,0.71652,0.41251,0.5,0.61546,0.41487,21.299
1.104,64.342,0.70381,0.41447,0.5,0.62035,0.41487,21.039
1.112,62.582,0.69208,0.41838,0.49511,0.62035,0.40998,20.779
1.12,61.213,0.68035,0.42522,0.49511,0.62524,0.40509,20.519
1.128,60.626,0.66862,0.43304,0.49511,0.62524,0.40509,20.13
1.136,60.626,0.65689,0.44379,0.49511,0.63014,0.40509,19.74
1.144,61.017,0.64614,0.45552,0.49511,0.63014,0.40509,19.351
1.152,61.995,0.63539,0.46921,0.49022,0.63014,0.3953,18.961
1.16,63.168,0.62561,0.48192,0.45988,0.66047,0.35519,18.571
1.168,64.733,0.61584,0.49267,0.40509,0.75049,0.29452,18.312
1.176,66.493,0.60606,0.50147,0.33953,0.92564,0.24951,18.052
1.184,68.253,0.59726,0.51124,0.28963,1.001,0.23973,17.922
1.192,70.013,0.58944,0.52004,0.27984,1.001,0.29941,17.792
1.2,71.578,0.58065,0.52688,0.35029,0.81996,0.42955,17.662
1.208,72.751,0.5738,0.53275,0.42955,0.51468,0.57045,17.662
1.216,73.924,0.56598,0.53568,0.46967,0.35029,0.62524,17.662
1.224,74.707,0.55914,0.53763,0.48532,0.33953,0.58513,17.662
1.232,75.098,0.55132,0.53666,0.49511,0.48043,0.50978,17.532
1.24,75.098,0.54545,0.53372,0.5,0.57045,0.44521,17.403
1.248,75.098,0.53959,0.52786,0.50489,0.61057,0.40998,17.403
1.256,74.707,0.53372,0.52102,0.50489,0.63014,0.3953,17.403
1.264,74.12,0.52786,0.5132,0.50489,0.63992,0.38454,17.403
1.272,73.533,0.52199,0.50538,0.5,0.64481,0.37965,17.532
1.28,72.947,0.51613,0.49658,0.5,0.65558,0.37476,17.662
1.288,72.164,0.51026,0.48778,0.50489,0.65558,0.37476,17.922
1.296,71.382,0.50342,0.47801,0.50489,0.66047,0.37476,18.182
1.304,70.6,0.49853,0.47019,0.50978,0.66047,0.37476,18.571
1.312,69.818,0.49267,0.46432,0.50978,0.65558,0.37476,19.091
1.32,69.035,0.48778,0.45943,0.51468,0.65558,0.37476,19.481
1.328,68.057,0.48289,0.4565,0.5,0.65558,0.37476,20
1.336,67.275,0.47801,0.45357,0.49511,0.65558,0.37965,20.519
1.344,66.493,0.4741,0.45161,0.49022,0.64971,0.37965,21.039
1.352,65.711,0.46921,0.45064,0.48532,0.64971,0.37476,21.818
1.36,64.928,0.4653,0.45161,0.48043,0.65558,0.36497,22.597
1.368,64.342,0.46237,0.45259,0.48043,0.67025,0.35519,23.636
1.376,63.559,0.45943,0.45259,0.48043,0.68004,0.33953,24.545
1.384,62.973,0.4565,0.45259,0.48043,0.69472,0.32485,25.455
1.392,62.582,0.45357,0.45259,0.47456,0.71037,0.31507,25.974
1.4,61.995,0.45161,0.45259,0.46477,0.72505,0.30528,26.494
1.408,61.604,0.44868,0.45259,0.45988,0.73483,0.29941,26.753
1.416,61.408,0.44575,0.45161,0.45988,0.7407,0.29452,27.013
1.424,61.213,0.44282,0.45064,0.45988,0.73483,0.29941,27.143
1.432,61.017,0.43988,0.44966,0.45988,0.73483,0.31018,27.143
1.44,61.213,0.43695,0.44868,0.45499,0.72505,0.31996,26.883
1.448,61.604,0.43304,0.44673,0.45988,0.70548,0.32975,26.104
1.456,62.386,0.42913,0.44575,0.46477,0.68982,0.35029,25.195
1.464,63.755,0.42522,0.44477,0.47456,0.67515,0.36497,24.026
1.472,66.102,0.42131,0.44282,0.48043,0.66047,0.37476,23.117
1.48,69.818,0.41642,0.44184,0.48532,0.64971,0.38454,22.338
1.488,74.707,0.41251,0.43891,0.48043,0.63992,0.38943,21.948
1.496,80.769,0.40762,0.43695,0.48043,0.63503,0.3953,21.818
1.504,87.81,0.40274,0.43402,0.48043,0.63503,0.4002,22.078
1.512,95.241,0.39785,0.43109,0.48043,0.63503,0.40509,22.468
1.52,102.87,0.39296,0.42815,0.48043,0.63503,0.4002,22.987
1.528,110.1,0.3871,0.42522,0.48532,0.63503,0.4002,23.377
1.536,116.17,0.38123,0.42326,0.48043,0.63503,0.4002,23.636
1.544,120.47,0.37439,0.42033,0.48043,0.63503,0.40509,23.636
1.552,122.62,0.36755,0.41838,0.47456,0.63503,0.40998,23.506
1.56,123.01,0.3607,0.41642,0.47456,0.63503,0.40509,23.247
1.568,121.64,0.35288,0.41544,0.48043,0.63503,0.40509,22.857
1.576,118.9,0.34604,0.41447,0.48532,0.63503,0.4002,22.468
1.584,115.38,0.3392,0.41251,0.49022,0.63503,0.4002,22.338
1.592,111.08,0.3304,0.41056,0.49511,0.63503,0.4002,22.338
1.6,106.78,0.32258,0.4086,0.49511,0.63503,0.4002,22.468
1.608,102.48,0.31476,0.40665,0.49511,0.63503,0.4002,22.857
1.616,98.37,0.30596,0.40469,0.49511,0.63503,0.4002,23.377
1.624,94.459,0.29717,0.40371,0.5,0.63503,0.4002,23.896
1.632,90.352,0.28935,0.40371,0.49511,0.63992,0.4002,24.286
1.64,86.441,0.28055,0.40371,0.49022,0.63503,0.4002,24.545
1.648,82.725,0.27175,0.40567,0.48043,0.63503,0.4002,24.416
1.656,79.009,0.26393,0.41056,0.48043,0.63992,0.4002,24.026
1.664,75.489,0.25611,0.41544,0.48043,0.63503,0.40509,23.377
1.672,72.36,0.24927,0.42326,0.48043,0.63503,0.40509,22.727
1.68,69.818,0.24242,0.435,0.48532,0.63503,0.40509,22.208
1.688,67.862,0.23558,0.45064,0.49511,0.63503,0.40509,21.558
1.696,66.493,0.22972,0.46921,0.49511,0.63503,0.40509,21.039
1.704,65.906,0.22385,0.49071,0.49022,0.63992,0.40509,20.649
1.712,65.711,0.21896,0.5132,0.48532,0.63992,0.4002,20.26
1.72,66.102,0.21408,0.53568,0.46967,0.64971,0.37476,20
1.728,67.275,0.21017,0.55718,0.42955,0.71037,0.31996,19.74
1.736,69.035,0.20723,0.57576,0.36986,0.85029,0.2544,19.351
1.744,70.991,0.2043,0.59238,0.31018,1.001,0.22016,19.091
1.752,73.338,0.20235,0.60704,0.27006,1.001,0.23483,18.831
1.76,75.685,0.20039,0.61877,0.31018,0.99511,0.33953,18.571
1.768,77.836,0.19941,0.62561,0.4002,0.67515,0.50489,18.442
1.776,79.987,0.19844,0.6305,0.47456,0.41977,0.61057,18.312
1.784,81.747,0.19648,0.63441,0.5,0.36008,0.62035,18.182
1.792,83.116,0.1955,0.63636,0.50978,0.43542,0.54501,18.052
1.8,83.898,0.19453,0.63734,0.50489,0.54012,0.46967,17.922
1.808,84.289,0.19355,0.63636,0.50489,0.5998,0.42955,17.792
1.816,84.094,0.19257,0.63343,0.5,0.62035,0.41487,17.662
1.824,83.507,0.19159,0.62952,0.49511,0.63503,0.4002,17.662
1.832,82.725,0.19062,0.62366,0.49511,0.63992,0.3953,17.403
1.84,81.747,0.19062,0.61486,0.49511,0.64481,0.38454,17.143
1.848,80.574,0.19062,0.60606,0.49511,0.65558,0.37965,16.883
1.856,79.4,0.18964,0.59629,0.49511,0.65558,0.37965,16.753
1.864,78.227,0.18866,0.58651,0.49511,0.65558,0.37965,16.753
1.872,76.858,0.18866,0.57771,0.49022,0.65558,0.37965,16.753
1.88,75.685,0.18768,0.56794,0.48532,0.65558,0.37965,17.013
1.888,74.511,0.18768,0.55914,0.48532,0.65558,0.37476,17.273
1.896,73.533,0.18768,0.55034,0.49022,0.66047,0.36497,17.792
1.904,72.36,0.18768,0.54448,0.49511,0.66047,0.36497,18.701
1.912,71.186,0.18768,0.53959,0.49511,0.66536,0.36008,19.74
1.92,70.209,0.18768,0.53666,0.49511,0.67515,0.35029,21.169
1.928,69.231,0.18866,0.5347,0.49511,0.68493,0.33953,22.727
1.936,68.449,0.18866,0.53372,0.49022,0.69472,0.32975,24.416
1.944,67.666,0.18964,0.53275,0.48532,0.70548,0.31996,25.844
1.952,66.884,0.18964,0.53275,0.48043,0.71037,0.31507,26.753
1.96,66.297,0.19062,0.53177,0.46967,0.71526,0.31018,27.013
1.968,65.711,0.19159,0.52981,0.45988,0.72505,0.31018,26.883
1.976,65.319,0.19159,0.52786,0.45988,0.72505,0.31018,26.364
1.984,64.928,0.19257,0.5259,0.45988,0.72016,0.31996,25.974
1.992,64.733,0.19355,0.52297,0.45499,0.71037,0.32975,25.714
2,64.537,0.19453,0.52004,0.45499,0.70059,0.33953,25.844
2.008,64.733,0.19453,0.51613,0.45499,0.68982,0.35519,26.104
2.016,64.928,0.1955,0.5132,0.45988,0.67515,0.36497,26.234
2.024,65.711,0.19648,0.50929,0.45988,0.66536,0.37965,26.104
2.032,66.688,0.19648,0.50538,0.45988,0.65558,0.38943,25.584
2.04,68.253,0.19648,0.50147,0.46477,0.63992,0.4002,24.805
2.048,70.795,0.19746,0.49756,0.46967,0.63503,0.40509,23.896
2.056,74.12,0.19648,0.49267,0.46967,0.62524,0.40998,23.117
2.064,78.618,0.19648,0.48974,0.46967,0.62524,0.40998,22.468
2.072,84.094,0.1955,0.4868,0.46967,0.62524,0.41487,22.208
2.08,89.961,0.19453,0.48289,0.47456,0.62524,0.40998,22.208
2.088,96.024,0.19257,0.47898,0.48043,0.62524,0.40509,22.468
2.096,102.09,0.19062,0.47507,0.49022,0.62524,0.40509,22.857
2.104,107.76,0.18768,0.47116,0.49511,0.62035,0.40509,23.117
2.112,112.26,0.18475,0.46823,0.49022,0.62035,0.40509,23.377
2.12,115.38,0.17986,0.46432,0.48532,0.61546,0.40509,23.377
2.128,116.75,0.17595,0.45943,0.48043,0.61546,0.40509,23.247
2.136,116.75,0.17204,0.45552,0.48043,0.62035,0.40998,22.987
2.144,115.19,0.16813,0.45161,0.48043,0.62035,0.41487,22.857
2.152,112.65,0.16422,0.4477,0.48043,0.61546,0.41487,22.597
2.16,109.32,0.16031,0.44477,0.48043,0.61546,0.41977,22.727
2.168,105.41,0.15543,0.44184,0.48043,0.61057,0.41487,22.857
2.176,101.11,0.15054,0.43988,0.48043,0.61057,0.41487,23.117
2.184,97.001,0.14565,0.43695,0.48043,0.61546,0.41487,23.506
2.192,92.699,0.14076,0.435,0.48532,0.61546,0.41487,23.896
2.2,88.396,0.13587,0.43304,0.48532,0.62035,0.40998,24.156
2.208,84.289,0.13196,0.43109,0.48532,0.62035,0.40998,24.156
2.216,80.183,0.12903,0.43011,0.48532,0.62035,0.40998,23.896
2.224,76.271,0.12512,0.43011,0.48532,0.62035,0.40998,23.377
2.232,72.947,0.12219,0.43109,0.48532,0.62524,0.40998,22.597
2.24,69.818,0.11828,0.43597,0.48532,0.62524,0.40998,21.948
2.248,67.471,0.11437,0.44184,0.49022,0.62524,0.40998,21.299
2.256,65.711,0.11144,0.45161,0.49022,0.62524,0.40998,20.779
2.264,64.537,0.1085,0.46237,0.48532,0.62524,0.40509,20.26
2.272,63.95,0.10655,0.4741,0.48043,0.62035,0.40509,19.74
2.28,63.95,0.10557,0.48974,0.46967,0.62035,0.40998,19.351
2.288,64.537,0.10459,0.50733,0.46477,0.62035,0.40998,18.961
2.296,65.711,0.10362,0.52493,0.46477,0.62035,0.40998,18.571
2.304,67.275,0.10362,0.54154,0.46477,0.62035,0.40998,18.312
2.312,69.035,0.10362,0.55621,0.46967,0.63014,0.40509,17.922
2.32,71.186,0.10459,0.56989,0.46967,0.63503,0.4002,17.662
2.328,73.338,0.10557,0.58162,0.46967,0.63503,0.4002,17.403
2.336,75.098,0.10655,0.59042,0.46477,0.63992,0.4002,17.143
2.344,76.858,0.1085,0.59726,0.46477,0.63014,0.40509,16.883
2.352,78.422,0.11046,0.60117,0.46477,0.62524,0.40509,16.753
2.36,79.4,0.11241,0.60313,0.46477,0.63014,0.40509,16.623
2.368,80.183,0.11437,0.60313,0.46967,0.63503,0.40509,16.494
2.376,80.378,0.11632,0.60117,0.47456,0.63503,0.4002,16.234
2.384,80.378,0.11926,0.59824,0.47456,0.63503,0.4002,16.104
2.392,79.791,0.12121,0.59335,0.47456,0.63992,0.3953,15.974
2.4,79.205,0.12414,0.58651,0.46477,0.64971,0.36986,15.844
2.408,78.227,0.12708,0.57674,0.42466,0.70548,0.31018,15.714
2.416,77.249,0.13001,0.56598,0.36986,0.82485,0.2544,15.714
2.424,76.271,0.13392,0.55425,0.31507,1,0.22994,15.714
2.432,75.098,0.13783,0.5435,0.28963,1.001,0.26517,15.844
2.44,73.924,0.14174,0.53177,0.31507,0.95499,0.37965,15.974
2.448,72.751,0.14565,0.52199,0.3953,0.66047,0.53523,16.494
2.456,71.578,0.14956,0.51417,0.45988,0.4002,0.65558,17.143
2.464,70.6,0.15445,0.50929,0.48043,0.32485,0.67025,17.922
2.472,69.426,0.15836,0.5044,0.48043,0.4002,0.57534,18.701
2.48,68.449,0.16227,0.50147,0.48043,0.51468,0.48532,19.221
2.488,67.471,0.16813,0.49951,0.48043,0.58023,0.42466,19.481
2.496,66.688,0.174,0.49756,0.47456,0.61057,0.3953,19.481
2.504,65.906,0.18182,0.49658,0.47456,0.62035,0.38454,19.221
2.512,65.124,0.18866,0.4956,0.47456,0.62524,0.37965,18.831
2.52,64.537,0.1955,0.49462,0.47456,0.62035,0.38454,18.312
2.528,63.755,0.20235,0.49365,0.48043,0.61546,0.38943,17.922
2.536,63.168,0.20919,0.49169,0.48043,0.62035,0.38454,17.792
2.544,62.777,0.21603,0.48876,0.48043,0.62035,0.38454,18.052
2.552,62.386,0.22385,0.4868,0.48532,0.62035,0.38454,18.312
2.56,61.995,0.23167,0.48485,0.48532,0.62524,0.37965,18.831
2.568,61.604,0.24047,0.48289,0.48532,0.62524,0.37965,19.351
2.576,61.408,0.24927,0.47996,0.48532,0.63014,0.37965,20.26
2.584,61.408,0.25904,0.47605,0.48043,0.63503,0.37476,21.039
2.592,61.213,0.26882,0.47214,0.47456,0.63992,0.36497,22.078
2.6,61.213,0.27859,0.46823,0.45988,0.64971,0.36008,23.117
2.608,61.017,0.28837,0.46334,0.4501,0.65558,0.35519,24.156
2.616,61.213,0.29717,0.45846,0.44031,0.66536,0.35029,25.195
2.624,61.213,0.30596,0.45455,0.43542,0.67515,0.33464,26.104
2.632,61.408,0.31476,0.45064,0.42955,0.68493,0.31996,26.753
2.64,61.408,0.32258,0.44673,0.42955,0.68982,0.31507,27.273
2.648,61.604,0.33138,0.44282,0.42955,0.70059,0.31507,27.403
2.656,61.799,0.34018,0.43988,0.42955,0.71037,0.31018,27.403
2.664,61.995,0.34995,0.43695,0.42955,0.71037,0.31018,27.273
2.672,62.19,0.35875,0.43304,0.42955,0.70059,0.31996,26.494
2.68,62.386,0.36755,0.43011,0.43542,0.68982,0.32975,25.455
2.688,62.582,0.37634,0.42522,0.44031,0.68004,0.33953,24.026
2.696,62.973,0.38416,0.42131,0.44521,0.67025,0.35029,22.727
2.704,63.755,0.39198,0.4174,0.45499,0.65558,0.36497,21.688
2.712,65.124,0.40078,0.41349,0.46477,0.63503,0.37965,21.299
2.72,67.471,0.4086,0.41056,0.46967,0.62524,0.38943,21.299
2.728,70.795,0.41838,0.40665,0.47456,0.61546,0.4002,21.818
2.736,75.489,0.42815,0.40371,0.47456,0.61057,0.40509,22.597
2.744,81.356,0.43793,0.3998,0.47456,0.6047,0.41487,23.377
2.752,88.201,0.4477,0.39687,0.47456,0.59491,0.41487,24.026
2.76,95.437,0.45748,0.39492,0.46477,0.59002,0.41977,24.286
2.768,102.67,0.46823,0.39296,0.45988,0.59002,0.41977,24.286
2.776,109.13,0.47801,0.39003,0.45988,0.59491,0.41487,24.026
2.784,114.6,0.4868,0.38612,0.45499,0.5998,0.40998,23.636
2.792,118.51,0.49658,0.38319,0.44521,0.5998,0.40509,23.117
2.8,120.47,0.50538,0.38123,0.44031,0.61057,0.40509,22.857
2.808,120.47,0.51515,0.37928,0.44031,0.61546,0.40509,22.597
2.816,118.51,0.5259,0.37732,0.43542,0.62035,0.40509,22.597
2.824,115.58,0.53666,0.37634,0.43542,0.62524,0.40509,22.727
2.832,111.67,0.54741,0.37537,0.44031,0.63014,0.40509,22.857
2.84,107.37,0.55718,0.37439,0.44521,0.63503,0.40509,23.247
2.848,102.87,0.56794,0.37243,0.4501,0.63503,0.4002,23.636
2.856,98.566,0.57674,0.37146,0.4501,0.64481,0.3953,24.026
2.864,94.459,0.58651,0.37146,0.45499,0.64481,0.3953,24.286
2.872,90.352,0.59726,0.37048,0.45988,0.64481,0.3953,24.286
2.88,86.441,0.60899,0.37048,0.46477,0.64481,0.3953,24.026
2.888,82.725,0.62072,0.3695,0.47456,0.64481,0.3953,23.377
2.896,78.814,0.63343,0.37048,0.47456,0.63992,0.3953,22.468
2.904,75.098,0.64516,0.37341,0.46477,0.63503,0.3953,21.558
2.912,71.773,0.65787,0.37928,0.46477,0.63014,0.4002,20.649
2.92,68.84,0.67058,0.39003,0.46477,0.62524,0.40509,19.87
2.928,66.493,0.68426,0.40371,0.46477,0.62524,0.40509,19.221
2.936,64.537,0.69599,0.42131,0.45988,0.62524,0.40509,18.701
2.944,63.364,0.70772,0.44184,0.45988,0.62524,0.40509,18.312
2.952,62.777,0.71945,0.46432,0.45988,0.62524,0.40509,17.922
2.96,62.777,0.73118,0.48485,0.45988,0.62524,0.40509,17.662
2.968,63.168,0.74389,0.50244,0.45988,0.62524,0.40509,17.532
2.976,64.342,0.75758,0.52199,0.45499,0.62524,0.40509,17.143
2.984,65.906,0.77126,0.54057,0.45499,0.62524,0.40509,16.883
2.992,68.057,0.78495,0.55718,0.44521,0.63014,0.38454,16.494
3,70.404,0.79765,0.57185,0.41977,0.67515,0.33464,15.974
3.008,72.751,0.81134,0.5826,0.36497,0.7955,0.27006,15.584
3.016,75.098,0.82307,0.5914,0.31996,0.98043,0.23483,15.195
3.024,77.445,0.83578,0.59726,0.29941,1.001,0.2544,14.805
3.032,79.4,0.84946,0.6002,0.33464,0.98043,0.35029,14.545
3.04,80.965,0.86315,0.60215,0.42955,0.68004,0.51468,14.416
3.048,82.138,0.87781,0.60117,0.50978,0.4002,0.63992,14.286
3.056,82.725,0.89247,0.59824,0.53523,0.31018,0.66536,14.286
3.064,82.921,0.90811,0.59433,0.52544,0.38943,0.59002,14.416
3.072,82.725,0.92473,0.58944,0.50978,0.51468,0.5,14.545
3.08,82.334,0.94135,0.5826,0.50978,0.59002,0.44031,14.675
3.088,81.552,0.95797,0.5738,0.50978,0.62524,0.41487,14.935
3.096,80.378,0.97263,0.56207,0.50978,0.63992,0.4002,15.455
3.104,79.205,0.98827,0.55034,0.50978,0.64481,0.3953,16.104
3.112,77.836,0.99413,0.53763,0.51468,0.64971,0.38454,17.143
3.12,76.467,1,0.5259,0.51468,0.65558,0.38454,18.182
3.128,75.098,1,0.51515,0.51468,0.65558,0.38454,19.221
3.136,73.924,1,0.50538,0.50978,0.65558,0.38454,20
3.144,72.751,1,0.49756,0.50489,0.66047,0.38454,20.519
3.152,71.578,1,0.49169,0.50489,0.66047,0.37965,20.649
3.16,70.6,1,0.48778,0.50489,0.66047,0.37965,20.519
3.168,69.622,1,0.48485,0.50978,0.66047,0.37476,20.26
3.176,68.644,1,0.48289,0.50489,0.66536,0.37476,20
3.184,67.862,1,0.48192,0.50489,0.67515,0.36497,20
3.192,67.275,1,0.48192,0.50489,0.68004,0.36008,20.519
3.2,66.688,1,0.48094,0.5,0.68493,0.35519,21.429
3.208,66.102,1,0.47898,0.49511,0.69472,0.35029,22.727
3.216,65.711,1,0.47801,0.48532,0.70548,0.33953,24.416
3.224,65.319,1,0.47605,0.48043,0.72016,0.32975,26.234
3.232,64.928,1,0.4741,0.46477,0.73483,0.31996,28.182
3.24,64.733,1,0.47116,0.46477,0.7456,0.31507,29.74
3.248,64.537,1,0.46823,0.45988,0.7456,0.31507,30.909
3.256,64.342,1,0.46432,0.45988,0.75049,0.31507,31.299
3.264,64.342,1,0.46041,0.45988,0.7407,0.32485,30.909
3.272,64.342,1,0.4565,0.46477,0.72994,0.33464,29.74
3.28,64.537,1,0.45357,0.47456,0.72016,0.35029,28.312
3.288,64.928,1,0.44966,0.48043,0.70059,0.36986,26.883
3.296,65.319,1,0.44575,0.48043,0.68004,0.37965,25.714
3.304,66.102,1,0.44086,0.48532,0.67025,0.3953,25.195
3.312,67.08,1,0.43597,0.49511,0.65558,0.4002,24.935
3.32,68.449,1,0.43011,0.50489,0.64481,0.40509,24.805
3.328,70.404,1,0.42424,0.50978,0.63992,0.40998,24.675
3.336,73.338,1,0.41838,0.51468,0.63503,0.40509,24.286
3.344,77.054,1,0.41349,0.51468,0.63503,0.40509,23.766
3.352,81.552,1,0.40958,0.51468,0.63014,0.40998,22.987
3.36,86.832,1,0.40567,0.51468,0.63014,0.40998,22.338
3.368,92.112,1,0.40371,0.50978,0.63503,0.41487,21.558
3.376,97.393,1,0.40078,0.5,0.62524,0.41487,20.909
3.384,102.48,1,0.39492,0.49022,0.62035,0.41487,20.779
3.392,106.78,1,0.3871,0.48532,0.62035,0.41487,20.779
3.4,109.91,1,0.38123,0.48532,0.61546,0.41487,20.909
3.408,111.67,1,0.37634,0.49022,0.61546,0.41487,21.299
3.416,112.06,0.99511,0.37146,0.49511,0.61546,0.41487,21.818
3.424,110.89,0.98925,0.36755,0.49022,0.61546,0.41487,22.468
3.432,108.74,0.97165,0.36364,0.48532,0.61546,0.41487,22.987
3.44,105.61,0.95406,0.35973,0.48532,0.61546,0.41977,23.506
3.448,101.89,0.93548,0.35582,0.48043,0.61057,0.42466,23.896
3.456,97.784,0.91691,0.35288,0.48532,0.61057,0.42466,24.026
3.464,93.286,0.89736,0.35191,0.48532,0.6047,0.42955,23.896
3.472,88.983,0.87781,0.35093,0.49022,0.6047,0.42466,23.766
3.48,84.485,0.86022,0.34995,0.49511,0.61057,0.42466,23.766
3.488,80.378,0.8436,0.34995,0.5,0.61057,0.41977,23.506
3.496,76.271,0.82796,0.34995,0.50489,0.61057,0.41977,23.377
3.504,72.555,0.81329,0.35093,0.50489,0.61546,0.41977,23.117
3.512,69.231,0.79765,0.35386,0.50978,0.61546,0.41977,22.857
3.52,66.493,0.78299,0.35973,0.51468,0.62035,0.41977,22.727
3.528,64.342,0.76931,0.36657,0.50978,0.61546,0.41977,22.468
3.536,62.777,0.75464,0.37732,0.50489,0.61057,0.41977,22.208
3.544,61.799,0.74096,0.39003,0.5,0.61057,0.41977,21.818
3.552,61.408,0.72727,0.40469,0.49511,0.61546,0.40998,21.299
3.56,61.604,0.71457,0.41935,0.46967,0.63992,0.36986,20.779
3.568,62.386,0.70186,0.43402,0.41977,0.72505,0.31018,20.13
3.576,63.755,0.6911,0.45064,0.36008,0.9002,0.2593,19.61
3.584,65.319,0.68035,0.46725,0.29941,1.001,0.23973,19.221
3.592,67.275,0.6696,0.48387,0.27984,1.001,0.27984,18.831
3.6,69.231,0.65982,0.49853,0.33464,0.87573,0.40509,18.571
3.608,71.382,0.65005,0.51222,0.41977,0.56458,0.5499,18.442
3.616,73.338,0.6393,0.52297,0.46967,0.37965,0.61546,18.442
3.624,75.098,0.62952,0.53177,0.49022,0.35519,0.58513,18.312
3.632,76.662,0.61975,0.53763,0.5,0.47456,0.50978,18.182
3.64,77.836,0.61095,0.54057,0.50978,0.56458,0.44521,18.182
3.648,78.618,0.60313,0.54154,0.51468,0.61057,0.40998,18.182
3.656,79.009,0.59531,0.53959,0.50978,0.63014,0.3953,18.052
3.664,79.009,0.58749,0.53568,0.50978,0.63992,0.38454,17.922
3.672,78.618,0.57967,0.53079,0.50978,0.64481,0.37965,17.792
3.68,78.227,0.57185,0.52297,0.50978,0.65558,0.37965,17.662
3.688,77.445,0.56305,0.5132,0.50978,0.65558,0.37965,17.532
3.696,76.467,0.55523,0.50147,0.50978,0.65558,0.37965,17.532
3.704,75.489,0.54741,0.48974,0.50489,0.64971,0.38454,17.532
3.712,74.511,0.53959,0.47898,0.50489,0.64481,0.38454,17.662
3.72,73.533,0.53177,0.46823,0.50489,0.64481,0.38454,17.792
3.728,72.555,0.52493,0.45943,0.5,0.64481,0.38454,18.182
3.736,71.578,0.51808,0.45357,0.5,0.64971,0.37965,18.701
3.744,70.404,0.51222,0.44966,0.49511,0.64971,0.37476,19.481
3.752,69.426,0.50635,0.44673,0.49511,0.65558,0.36497,20.779
3.76,68.449,0.50147,0.44575,0.49022,0.66047,0.36008,22.208
3.768,67.666,0.4956,0.44575,0.48532,0.67515,0.35029,23.766
3.776,66.688,0.49071,0.44575,0.48532,0.68493,0.33464,25.195
3.784,65.906,0.48485,0.44575,0.48043,0.70548,0.31507,26.104
3.792,65.319,0.47996,0.44673,0.48043,0.72505,0.30528,26.623
3.8,64.733,0.47605,0.44673,0.47456,0.73483,0.29452,26.494
3.808,64.146,0.47116,0.44673,0.47456,0.7456,0.28963,26.104
3.816,63.559,0.46823,0.44673,0.47456,0.7456,0.28963,25.584
3.824,63.168,0.46432,0.44673,0.47456,0.7456,0.29452,25.325
3.832,62.973,0.46041,0.44673,0.47456,0.73483,0.30528,25.325
3.84,62.777,0.4565,0.44575,0.47456,0.72016,0.31996,25.584
3.848,62.777,0.45259,0.44477,0.47456,0.70548,0.33464,25.844
3.856,62.973,0.44868,0.44379,0.47456,0.68493,0.35519,25.844
3.864,63.559,0.44379,0.44282,0.46477,0.67515,0.36986,25.455
3.872,64.733,0.43988,0.44086,0.46477,0.66047,0.38454,24.805
3.88,66.884,0.435,0.43793,0.46477,0.64481,0.3953,24.156
3.888,69.818,0.43011,0.43597,0.45988,0.63992,0.4002,23.377
3.896,74.12,0.42522,0.43304,0.45988,0.63992,0.4002,22.857
3.904,79.4,0.42131,0.43109,0.45988,0.63503,0.40509,22.468
3.912,85.463,0.41544,0.42913,0.46477,0.63014,0.40509,22.468
3.92,91.917,0.41056,0.4262,0.46477,0.62524,0.40509,22.597
3.928,98.761,0.40469,0.42424,0.46477,0.62524,0.40998,22.857
3.936,105.22,0.39883,0.42131,0.46967,0.62035,0.40509,22.987
3.944,110.69,0.39198,0.41935,0.47456,0.62035,0.4002,22.987
3.952,114.99,0.38514,0.41642,0.48043,0.62524,0.4002,22.857
3.96,117.54,0.37732,0.41349,0.48532,0.63503,0.3953,22.727
3.968,118.32,0.37048,0.41153,0.49511,0.63992,0.38943,22.468
3.976,117.54,0.36266,0.40958,0.49511,0.63992,0.38943,22.208
3.984,115.38,0.35582,0.40665,0.49511,0.64481,0.3953,21.948
3.992,112.06,0.34702,0.40469,0.5,0.64481,0.38943,21.948
4,108.34,0.3392,0.40176,0.5,0.63992,0.38943,22.208
4.008,104.24,0.33138,0.3998,0.5,0.63503,0.3953,22.597
4.016,99.935,0.32258,0.39687,0.49511,0.63014,0.4002,23.117
4.024,95.632,0.31378,0.39492,0.49511,0.62524,0.4002,23.636
4.032,91.525,0.30401,0.39296,0.49511,0.62524,0.40509,24.026
4.04,87.419,0.29423,0.39198,0.49511,0.62524,0.40509,24.286
4.048,83.116,0.28446,0.39101,0.49511,0.62524,0.40509,24.156
4.056,79.205,0.27664,0.39198,0.49022,0.63014,0.40509,23.896
4.064,75.489,0.26784,0.39394,0.48532,0.63014,0.40998,23.117
4.072,72.164,0.261,0.39785,0.48043,0.63014,0.41487,22.468
4.08,69.426,0.25415,0.40469,0.48043,0.62524,0.41487,21.818
4.088,67.08,0.24829,0.41447,0.47456,0.62524,0.41487,21.169
4.096,65.515,0.24145,0.42815,0.47456,0.62524,0.41487,20.779
4.104,64.537,0.2346,0.44477,0.47456,0.62524,0.40998,20.26
4.112,64.146,0.22874,0.46334,0.47456,0.63014,0.40509,19.87
4.12,64.342,0.22287,0.48289,0.47456,0.63503,0.40509,19.481
4.128,64.928,0.21799,0.50342,0.47456,0.63992,0.40509,19.221
4.136,66.297,0.21408,0.52297,0.48043,0.64481,0.4002,18.961
4.144,68.057,0.20919,0.54154,0.48043,0.64481,0.4002,18.701
4.152,70.209,0.20626,0.55816,0.48043,0.64481,0.4002,18.442
4.16,72.36,0.20332,0.57087,0.48043,0.64481,0.4002,18.312
4.168,74.707,0.20137,0.58065,0.48043,0.64481,0.4002,18.182
4.176,76.662,0.19941,0.58847,0.47456,0.64971,0.3953,17.922
4.184,78.618,0.19746,0.59531,0.47456,0.64971,0.3953,17.792
4.192,80.183,0.1955,0.6002,0.48043,0.64971,0.3953,17.662
4.2,81.16,0.19355,0.60215,0.48532,0.65558,0.3953,17.662
4.208,81.943,0.19159,0.60215,0.48532,0.65558,0.3953,17.532
4.216,82.138,0.19062,0.60117,0.48532,0.66047,0.38943,17.403
4.224,82.138,0.18964,0.59726,0.49022,0.66047,0.38454,17.273
4.232,81.552,0.18866,0.5914,0.48532,0.66047,0.38454,17.143
4.24,80.965,0.18866,0.58358,0.47456,0.66047,0.36986,17.013
4.248,79.987,0.18768,0.5738,0.44521,0.70059,0.32485,17.013
4.256,79.009,0.18671,0.56403,0.38943,0.80528,0.27006,17.143
4.264,77.836,0.18573,0.55523,0.33464,0.98043,0.22505,17.143
4.272,76.662,0.18573,0.54448,0.29452,1.001,0.22994,17.403
4.28,75.489,0.18475,0.53372,0.28963,1.001,0.30528,17.662
4.288,74.316,0.18475,0.52395,0.37965,0.77495,0.4501,18.182
4.296,73.142,0.18475,0.51515,0.46477,0.48532,0.59002,18.701
4.304,72.164,0.18475,0.50929,0.49511,0.36497,0.62524,19.221
4.312,70.991,0.18475,0.5044,0.5,0.40998,0.57045,19.481
4.32,70.013,0.18475,0.50147,0.5,0.51468,0.49511,19.87
4.328,69.035,0.18475,0.49951,0.5,0.59491,0.43542,20.26
4.336,68.057,0.18573,0.49951,0.49511,0.62035,0.40509,20.39
4.344,67.275,0.18573,0.49951,0.48532,0.63503,0.3953,20.519
4.352,66.493,0.18671,0.49951,0.48532,0.63503,0.38943,20.39
4.36,65.711,0.18768,0.49853,0.48532,0.63992,0.38454,20.39
4.368,65.124,0.18768,0.49658,0.49511,0.63992,0.38454,20.26
4.376,64.537,0.18866,0.49462,0.5,0.63992,0.38454,20.13
4.384,64.342,0.18964,0.49267,0.50489,0.63992,0.38454,20
4.392,63.95,0.19062,0.48974,0.50489,0.63992,0.38454,20.13
4.4,63.755,0.19062,0.48778,0.50489,0.63992,0.38454,20.26
4.408,63.559,0.19159,0.48485,0.50489,0.63992,0.37965,20.649
4.416,63.559,0.19257,0.48192,0.50489,0.63992,0.37965,20.909
4.424,63.364,0.19355,0.47996,0.50489,0.64481,0.37476,21.429
4.432,63.364,0.19355,0.47703,0.50489,0.64971,0.36986,22.338
4.44,63.559,0.19453,0.47312,0.5,0.66047,0.36497,23.377
4.448,63.559,0.19453,0.47019,0.5,0.67025,0.35519,24.545
4.456,63.559,0.19453,0.46725,0.5,0.68004,0.34442,25.714
4.464,63.755,0.19453,0.46432,0.49511,0.69472,0.32975,26.753
4.472,63.95,0.19355,0.46139,0.48043,0.71037,0.31996,27.403
4.48,64.146,0.19257,0.45846,0.46967,0.72016,0.31507,28.052
4.488,64.146,0.19062,0.45552,0.45499,0.72505,0.30528,28.442
4.496,64.342,0.18866,0.45259,0.44521,0.72994,0.29941,28.701
4.504,64.537,0.18671,0.44868,0.44031,0.73483,0.29941,28.701
4.512,64.733,0.18475,0.44477,0.43542,0.7407,0.30528,28.442
4.52,64.928,0.1828,0.44184,0.43542,0.73483,0.31507,27.922
4.528,65.319,0.17986,0.43793,0.43542,0.72016,0.32975,27.273
4.536,65.711,0.17791,0.43402,0.44031,0.70548,0.33953,26.753
4.544,66.688,0.17595,0.43011,0.44521,0.68982,0.35519,25.974
4.552,68.057,0.174,0.4262,0.45499,0.67515,0.36986,25.325
4.56,70.404,0.17204,0.42326,0.45988,0.66047,0.38454,24.286
4.568,73.924,0.16911,0.42033,0.46477,0.64481,0.3953,23.377
4.576,78.814,0.16716,0.41642,0.46967,0.63992,0.4002,22.468
4.584,84.681,0.16325,0.41349,0.47456,0.63503,0.40509,21.688
4.592,91.33,0.16031,0.41056,0.48043,0.63014,0.40509,21.169
4.6,98.37,0.15738,0.40762,0.48043,0.62524,0.40509,20.909
4.608,105.41,0.15347,0.40567,0.49022,0.62524,0.40509,20.909
4.616,111.67,0.15054,0.40274,0.49511,0.62035,0.40509,21.299
4.624,116.75,0.14761,0.40078,0.49022,0.62035,0.40509,21.818
4.632,120.47,0.1437,0.39785,0.48532,0.62035,0.40509,22.597
4.64,122.03,0.14076,0.39589,0.47456,0.62524,0.40509,23.247
4.648,121.84,0.13587,0.39394,0.46477,0.62035,0.40998,23.896
4.656,120.08,0.13196,0.39296,0.45988,0.62035,0.40998,24.156
4.664,117.34,0.12708,0.39296,0.45988,0.62035,0.40998,24.286
4.672,113.62,0.12317,0.39198,0.46477,0.62035,0.41487,24.286
4.68,109.52,0.1173,0.39101,0.46477,0.62035,0.41977,24.026
4.688,105.41,0.11241,0.39003,0.45988,0.62035,0.41487,23.896
4.696,101.3,0.10753,0.38905,0.45499,0.62035,0.41487,23.766
4.704,97.588,0.10362,0.38807,0.45499,0.62524,0.40998,23.636
4.712,93.677,0.099707,0.3871,0.45499,0.62524,0.41487,23.636
4.72,89.961,0.095797,0.38612,0.45988,0.63014,0.40509,23.766
4.728,86.245,0.092864,0.38612,0.45988,0.63503,0.4002,23.766
4.736,82.529,0.088954,0.38807,0.45988,0.63503,0.4002,23.766
4.744,79.009,0.086022,0.39198,0.46477,0.63503,0.4002,23.377
4.752,75.685,0.083089,0.3998,0.46477,0.63503,0.4002,22.857
4.76,72.555,0.081134,0.4086,0.46967,0.63503,0.4002,22.338
4.768,70.013,0.079179,0.42033,0.46967,0.63503,0.3953,21.818
4.776,68.057,0.077224,0.43597,0.46477,0.63992,0.3953,21.169
4.784,66.688,0.076246,0.45455,0.45988,0.63992,0.3953,20.649
4.792,65.906,0.075269,0.47703,0.45499,0.63992,0.3953,20
4.8,65.906,0.075269,0.50049,0.45499,0.63992,0.3953,19.481
4.808,66.297,0.075269,0.52395,0.45499,0.63992,0.3953,19.091
4.816,67.471,0.075269,0.54643,0.4501,0.63503,0.4002,18.571
4.824,69.035,0.077224,0.56696,0.4501,0.63503,0.40509,18.182
4.832,70.795,0.078201,0.58553,0.4501,0.63503,0.40509,17.922
4.84,72.947,0.080156,0.6002,0.4501,0.63992,0.4002,17.662
4.848,75.098,0.083089,0.6129,0.45499,0.63503,0.4002,17.403
4.856,77.249,0.085044,0.6217,0.4501,0.63014,0.40509,17.143
4.864,79.205,0.087977,0.62659,0.4501,0.63014,0.40509,16.883
4.872,80.769,0.091887,0.6305,0.4501,0.63014,0.4002,16.623
4.88,81.943,0.094819,0.63343,0.4501,0.63503,0.38454,16.234
4.888,82.529,0.098729,0.63441,0.42955,0.66536,0.33953,15.974
4.896,82.921,0.10264,0.63343,0.37476,0.76027,0.27495,15.584
4.904,82.725,0.10753,0.63148,0.32485,0.93542,0.23483,15.325
4.912,82.334,0.11241,0.62757,0.28474,1.001,0.22994,14.935
4.92,81.356,0.11632,0.62072,0.30528,1.001,0.32485,14.675
4.928,80.574,0.12121,0.61193,0.37965,0.76027,0.47456,14.416
4.936,79.4,0.1261,0.60117,0.46477,0.46477,0.62035,14.416
4.944,78.227,0.13099,0.58847,0.5,0.31996,0.66536,14.286
4.952,77.054,0.13685,0.57674,0.50489,0.36497,0.6047,14.416
4.96,75.88,0.14272,0.565,0.49511,0.47456,0.51468,14.545
4.968,74.707,0.14956,0.55425,0.48532,0.55969,0.44521,15.065
4.976,73.533,0.1564,0.5435,0.48043,0.6047,0.40509,15.844
4.984,72.164,0.1652,0.5347,0.47456,0.62035,0.38943,16.753
4.992,70.991,0.174,0.52688,0.47456,0.62524,0.38454,17.662
5,70.013,0.18377,0.52102,0.47456,0.62524,0.38454,18.571
5.008,68.84,0.19453,0.51711,0.46967,0.62035,0.38454,19.091
5.016,67.862,0.20332,0.51417,0.46477,0.62035,0.38454,19.221
5.024,66.884,0.2131,0.51222,0.46967,0.62035,0.38454,19.091
5.032,66.102,0.22287,0.51124,0.46477,0.62524,0.38943,18.701
5.04,65.319,0.23167,0.50929,0.46477,0.62524,0.3953,18.312
5.048,64.733,0.24438,0.50831,0.46477,0.62524,0.38943,17.922
5.056,64.146,0.25611,0.50733,0.46967,0.62524,0.38454,17.922
5.064,63.755,0.27077,0.5044,0.46967,0.63014,0.37965,18.312
5.072,63.168,0.28446,0.50147,0.46477,0.63503,0.37476,19.221
5.08,62.973,0.29814,0.49853,0.46477,0.64481,0.36008,20.519
5.088,62.777,0.31183,0.49462,0.46967,0.65558,0.35519,22.078
5.096,62.386,0.32551,0.48974,0.46967,0.66047,0.34442,23.636
5.104,62.386,0.34018,0.48583,0.46967,0.67515,0.33464,25.065
5.112,62.19,0.35484,0.48094,0.46477,0.68493,0.32485,26.234
5.12,62.19,0.37048,0.47605,0.45499,0.69472,0.31996,27.143
5.128,62.386,0.3871,0.47116,0.44521,0.69472,0.31507,27.662
5.136,62.386,0.40469,0.46628,0.43542,0.70548,0.31018,27.922
5.144,62.777,0.42131,0.46139,0.42955,0.70548,0.31018,27.922
5.152,62.973,0.43793,0.4565,0.42955,0.69472,0.31996,27.662
5.16,63.168,0.45455,0.45259,0.43542,0.68004,0.32975,27.143
5.168,63.364,0.47116,0.44868,0.44031,0.67025,0.33953,26.104
5.176,63.755,0.4868,0.44477,0.44521,0.65558,0.35519,24.935
5.184,64.146,0.50147,0.44086,0.44521,0.63503,0.37476,23.636
5.192,64.537,0.51515,0.43695,0.45499,0.62035,0.38943,22.597
5.2,65.319,0.52981,0.43206,0.45988,0.61057,0.4002,21.948
5.208,66.493,0.5435,0.42815,0.46477,0.5998,0.40509,21.948
5.216,68.644,0.55718,0.42326,0.46967,0.59491,0.40998,22.338
5.224,71.382,0.57087,0.41935,0.47456,0.59491,0.41487,22.857
5.232,75.098,0.58456,0.41447,0.48043,0.59491,0.40998,23.506
5.24,79.596,0.59629,0.41056,0.48532,0.59491,0.40998,24.026
5.248,84.876,0.60802,0.40567,0.49022,0.59002,0.41487,24.286
5.256,90.352,0.61779,0.40176,0.49022,0.59002,0.41487,24.156
5.264,96.024,0.62757,0.39785,0.49511,0.59002,0.41977,23.896
5.272,101.11,0.63832,0.39394,0.49022,0.59491,0.41977,23.506
5.28,105.61,0.64809,0.39003,0.48532,0.59491,0.41977,22.987
5.288,108.93,0.65885,0.38612,0.48043,0.59491,0.41977,22.727
5.296,111.08,0.6696,0.38319,0.47456,0.59491,0.41977,22.597
5.304,111.47,0.68035,0.38025,0.46477,0.5998,0.41977,22.727
5.312,110.3,0.69208,0.37732,0.45988,0.5998,0.41977,22.857
5.32,108.15,0.70381,0.37537,0.45988,0.6047,0.41977,23.117
5.328,105.22,0.71554,0.37341,0.45988,0.61057,0.41977,23.506
5.336,101.5,0.72532,0.37146,0.45988,0.61546,0.41977,23.896
5.344,97.393,0.73509,0.3695,0.45988,0.62035,0.41977,24.026
5.352,93.286,0.74389,0.36852,0.45988,0.62035,0.41487,24.026
5.36,88.983,0.75269,0.36657,0.45988,0.62035,0.40998,23.766
5.368,84.681,0.76344,0.36559,0.46477,0.61546,0.40509,23.247
5.376,80.574,0.77419,0.36461,0.46967,0.62035,0.40509,22.597
5.384,76.467,0.78495,0.36364,0.47456,0.62035,0.40509,21.688
5.392,72.555,0.79668,0.36266,0.48043,0.62524,0.40509,20.909
5.4,68.84,0.80645,0.36364,0.48532,0.62524,0.40509,20
5.408,65.711,0.8172,0.36755,0.48532,0.62524,0.40509,19.221
5.416,63.168,0.82698,0.37439,0.49022,0.62524,0.40509,18.701
5.424,61.213,0.83675,0.38416,0.49022,0.62524,0.40509,18.312
5.432,59.844,0.84751,0.3998,0.48532,0.62524,0.40998,17.922
5.44,59.257,0.85826,0.41935,0.48043,0.62524,0.41487,17.662
5.448,59.061,0.87097,0.43891,0.47456,0.62524,0.41487,17.532
5.456,59.452,0.8827,0.45552,0.47456,0.63503,0.40998,17.403
5.464,60.626,0.89638,0.47019,0.47456,0.63503,0.40509,17.273
5.472,62.19,0.91007,0.4868,0.47456,0.63014,0.40509,17.143
5.48,64.146,0.92473,0.50342,0.47456,0.63014,0.40998,16.883
5.488,66.297,0.93842,0.51906,0.47456,0.63503,0.40509,16.623
5.496,68.644,0.9521,0.53177,0.46477,0.63992,0.38454,16.364
5.504,70.795,0.96579,0.54252,0.42466,0.70059,0.32485,15.974
5.512,73.142,0.97752,0.55132,0.36986,0.83072,0.27006,15.844
5.52,75.293,0.99022,0.55718,0.32485,1.001,0.23483,15.584
5.528,77.054,0.99511,0.56109,0.30528,1.001,0.2544,15.584
5.536,78.618,1,0.56207,0.33953,0.95499,0.36008,15.714
5.544,79.791,1,0.56109,0.42466,0.65558,0.51957,15.844
5.552,80.378,1,0.55718,0.5,0.4002,0.63503,16.104
5.56,80.574,1,0.55327,0.51957,0.33464,0.64481,16.494
5.568,80.378,1,0.54545,0.52544,0.42955,0.55969,16.753
5.576,79.791,1,0.53666,0.52544,0.54012,0.48043,17.273
5.584,79.009,1,0.5259,0.53033,0.6047,0.43542,17.662
5.592,78.031,1,0.51417,0.53033,0.62524,0.41487,18.182
5.6,76.858,1,0.50147,0.52544,0.63503,0.40509,18.701
5.608,75.685,1,0.48974,0.51957,0.64481,0.4002,19.221
5.616,74.511,1,0.47801,0.51468,0.64481,0.4002,19.74
5.624,73.338,1,0.46823,0.50978,0.64971,0.3953,20.13
5.632,72.164,1,0.46041,0.50978,0.64971,0.3953,20.519
5.64,70.991,1,0.45552,0.50489,0.64971,0.3953,20.649
5.648,69.818,1,0.45259,0.50489,0.64971,0.3953,20.779
5.656,68.84,1,0.45064,0.50489,0.64971,0.3953,20.909
5.664,67.862,1,0.45064,0.50489,0.64971,0.3953,20.909
5.672,67.08,1,0.44966,0.5,0.64971,0.38943,21.039
5.68,66.102,1,0.44966,0.5,0.65558,0.38454,21.299
5.688,65.515,1,0.44966,0.50489,0.66047,0.37965,21.818
5.696,64.928,1,0.45064,0.5,0.67025,0.36497,22.727
5.704,64.342,1,0.45064,0.5,0.68004,0.36008,24.026
5.712,63.755,1,0.45064,0.5,0.68982,0.35029,25.584
5.72,63.364,1,0.45064,0.49511,0.70548,0.33464,27.013
5.728,62.973,1,0.45161,0.49022,0.72016,0.31996,28.182
5.736,62.777,1,0.45161,0.48532,0.72994,0.31018,28.961
5.744,62.386,1,0.45161,0.48043,0.73483,0.31018,29.091
5.752,62.19,1,0.45161,0.48043,0.7456,0.31018,28.961
5.76,62.19,1,0.45064,0.48043,0.7456,0.31018,28.312
5.768,62.386,1,0.44966,0.47456,0.73483,0.31996,27.403
5.776,62.582,1,0.44868,0.47456,0.72505,0.32975,26.623
5.784,62.973,1,0.44673,0.47456,0.71037,0.33953,26.104
5.792,63.364,1,0.44379,0.48043,0.68982,0.35519,25.844
5.8,64.146,1,0.43988,0.48532,0.67515,0.36986,25.714
5.808,64.928,1,0.43597,0.49022,0.65558,0.38454,25.714
5.816,66.493,1,0.43109,0.49511,0.63992,0.4002,25.714
5.824,68.644,1,0.4262,0.5,0.63503,0.40509,25.195
5.832,71.969,1,0.42131,0.5,0.62524,0.40998,24.545
5.84,76.076,1,0.4174,0.50489,0.62035,0.41487,23.636
5.848,81.16,1,0.41349,0.50489,0.62035,0.41487,22.727
5.856,86.832,1,0.41056,0.50489,0.62035,0.41487,21.818
5.864,92.894,0.98925,0.40762,0.50489,0.62035,0.41487,21.169
5.872,99.153,0.97849,0.40469,0.50489,0.62524,0.41487,20.779
5.88,105.02,0.96188,0.40176,0.50489,0.62524,0.40998,20.779
5.888,110.1,0.94526,0.39883,0.50489,0.63014,0.40998,20.909
5.896,113.82,0.92864,0.39492,0.50489,0.63014,0.40998,21.429
5.904,115.97,0.91202,0.39198,0.50489,0.62524,0.40998,22.078
5.912,116.36,0.89541,0.38807,0.5,0.62035,0.41487,22.597
5.92,115.38,0.87879,0.38514,0.5,0.62035,0.41487,23.247
5.928,113.04,0.86119,0.38221,0.5,0.61546,0.41487,23.506
5.936,109.91,0.84457,0.37928,0.5,0.61057,0.41977,23.766
5.944,106,0.82796,0.37732,0.50489,0.6047,0.42466,24.026
5.952,101.89,0.81134,0.37537,0.50489,0.6047,0.42955,24.026
5.96,97.588,0.79472,0.37439,0.5,0.5998,0.42955,24.026
5.968,93.286,0.7781,0.37341,0.49511,0.5998,0.42955,23.896
5.976,89.179,0.76442,0.37243,0.49511,0.5998,0.42466,23.766
5.984,84.876,0.75073,0.37243,0.49511,0.5998,0.42955,23.766
5.992,80.769,0.73803,0.37146,0.5,0.59491,0.42466,23.636
6,76.858,0.72532,0.37341,0.50489,0.5998,0.42466,23.377
6.008,73.142,0.71359,0.37634,0.50489,0.5998,0.42466,23.117
6.016,70.013,0.70088,0.38123,0.50489,0.6047,0.41977,22.857
6.024,67.275,0.68817,0.39003,0.50489,0.61057,0.41487,22.727
6.032,65.124,0.67644,0.40078,0.50978,0.61057,0.40998,22.468
6.04,63.755,0.66569,0.41642,0.50978,0.61546,0.40998,22.208
6.048,62.777,0.65494,0.43402,0.50489,0.62035,0.40998,21.688
6.056,62.582,0.64516,0.45064,0.50489,0.62524,0.40509,21.299
6.064,62.973,0.63539,0.46628,0.50489,0.62524,0.40998,20.779
6.072,63.95,0.62561,0.48485,0.5,0.62524,0.40998,20.26
6.08,65.319,0.61584,0.50342,0.5,0.62524,0.40998,19.74
6.088,67.08,0.60704,0.52199,0.5,0.62524,0.40998,19.351
6.096,69.231,0.59824,0.53959,0.49511,0.63014,0.40509,18.961
6.104,71.578,0.58944,0.55523,0.49511,0.63014,0.40509,18.701
6.112,73.729,0.58065,0.56794,0.49511,0.63503,0.40509,18.442
6.12,76.076,0.57185,0.57869,0.49022,0.63503,0.4002,18.182
6.128,77.836,0.56403,0.58553,0.48532,0.63503,0.40509,18.052
6.136,79.4,0.55621,0.59042,0.48043,0.63503,0.40509,17.922
6.144,80.574,0.54936,0.59335,0.48043,0.63503,0.40509,17.922
6.152,81.16,0.54252,0.59335,0.48043,0.62524,0.40509,17.922
6.16,81.356,0.53666,0.5914,0.48532,0.62524,0.40998,17.792
6.168,81.16,0.52981,0.58749,0.48532,0.62524,0.40509,17.662
6.176,80.769,0.52297,0.58162,0.48532,0.63014,0.40509,17.532
6.184,79.987,0.51613,0.5738,0.49022,0.63503,0.4002,17.403
6.192,79.009,0.50929,0.565,0.49511,0.63992,0.4002,17.273
6.2,77.836,0.50244,0.55327,0.49511,0.63992,0.3953,17.273
6.208,76.662,0.49658,0.54154,0.49511,0.64481,0.3953,17.143
6.216,75.685,0.48974,0.53079,0.49511,0.64481,0.4002,17.273
6.224,74.511,0.48387,0.52004,0.49511,0.64481,0.3953,17.403
6.232,73.533,0.47801,0.51026,0.49022,0.64481,0.3953,17.662
6.24,72.36,0.47116,0.50244,0.46967,0.66047,0.36497,18.052
6.248,71.186,0.4653,0.49658,0.42466,0.72505,0.30528,18.571
6.256,70.209,0.46041,0.49365,0.36008,0.86008,0.2544,19.221
6.264,69.231,0.45455,0.49169,0.30528,1.001,0.22505,19.74
6.272,68.253,0.44966,0.49169,0.27495,1.001,0.24951,20.26
6.28,67.471,0.44477,0.49169,0.31018,0.95499,0.35519,20.519
6.288,66.493,0.44086,0.49169,0.3953,0.64481,0.51957,20.649
6.296,65.906,0.43597,0.49169,0.45988,0.40509,0.62035,20.649
6.304,65.124,0.43206,0.49169,0.48043,0.36008,0.63014,20.519
6.312,64.537,0.42815,0.49169,0.48532,0.4501,0.54012,20.13
6.32,63.95,0.42424,0.49169,0.49511,0.5499,0.45988,19.87
6.328,63.559,0.42131,0.49071,0.49511,0.6047,0.41487,19.481
6.336,63.168,0.41838,0.48974,0.49511,0.62524,0.38943,19.351
6.344,62.973,0.41544,0.48876,0.5,0.63503,0.37965,19.221
6.352,62.582,0.41349,0.4868,0.5,0.63992,0.37965,19.351
6.36,62.582,0.41056,0.48485,0.50489,0.64481,0.37965,19.61
6.368,62.386,0.4086,0.48289,0.50978,0.64481,0.37965,20
6.376,62.386,0.40567,0.47996,0.51468,0.64971,0.37965,20.519
6.384,62.386,0.40371,0.47703,0.50978,0.64481,0.38454,20.909
6.392,62.582,0.3998,0.4741,0.50978,0.64481,0.38454,21.299
6.4,62.777,0.39687,0.47116,0.50489,0.63992,0.38454,21.558
6.408,62.777,0.39394,0.46725,0.50489,0.63992,0.38454,21.818
6.416,62.973,0.39003,0.46432,0.5,0.64481,0.37965,21.948
6.424,62.973,0.38612,0.46041,0.49022,0.64971,0.37476,22.208
6.432,63.168,0.38221,0.4565,0.48532,0.65558,0.36497,22.468
6.44,63.364,0.37732,0.45357,0.48532,0.66536,0.36008,23.117
6.448,63.559,0.37341,0.45064,0.48043,0.68004,0.35519,23.896
6.456,63.755,0.3695,0.4477,0.46967,0.68493,0.33953,24.675
6.464,63.755,0.36559,0.44575,0.46477,0.70059,0.32975,25.455
6.472,63.755,0.36168,0.44282,0.45988,0.72016,0.31018,26.104
6.48,63.755,0.35777,0.43988,0.45499,0.72994,0.29452,26.883
6.488,63.755,0.35386,0.43597,0.44521,0.7456,0.28963,27.403
6.496,63.559,0.34897,0.43206,0.44521,0.75538,0.28474,27.792
6.504,63.364,0.34409,0.42913,0.44521,0.75538,0.28474,27.922
6.512,63.364,0.3392,0.4262,0.44521,0.75538,0.28963,27.922
6.52,63.364,0.33333,0.42326,0.44521,0.7456,0.29941,27.662
6.528,63.364,0.32845,0.42033,0.44521,0.73483,0.31018,27.273
6.536,63.755,0.32356,0.4174,0.4501,0.72016,0.32975,26.753
6.544,64.537,0.31769,0.41642,0.45499,0.70548,0.34442,25.844
6.552,66.102,0.31183,0.41544,0.45988,0.68982,0.35519,24.935
6.56,68.84,0.30694,0.41447,0.45988,0.68004,0.37476,23.766
6.568,72.555,0.3001,0.41251,0.46967,0.66047,0.38943,22.727
6.576,77.836,0.29423,0.41056,0.48043,0.64481,0.4002,21.818
6.584,84.094,0.28739,0.40958,0.48532,0.63992,0.40509,21.299
6.592,91.134,0.28152,0.40762,0.48532,0.63503,0.40509,20.909
6.6,98.566,0.27468,0.40665,0.49022,0.63503,0.40998,21.039
6.608,105.61,0.26784,0.40469,0.48532,0.63503,0.40998,21.429
6.616,112.06,0.26197,0.40371,0.48043,0.63503,0.40509,22.078
6.624,117.34,0.25611,0.40274,0.48043,0.63503,0.40509,22.727
6.632,120.67,0.25024,0.40274,0.48043,0.63503,0.4002,23.377
6.64,122.03,0.24438,0.40274,0.48043,0.63503,0.4002,24.026
6.648,121.45,0.23851,0.40274,0.48043,0.63992,0.3953,24.416
6.656,119.49,0.23167,0.40274,0.47456,0.63992,0.3953,24.545
6.664,116.36,0.22483,0.40274,0.47456,0.63992,0.3953,24.545
6.672,112.65,0.21799,0.40274,0.48043,0.63992,0.3953,24.286
6.68,108.54,0.21212,0.40274,0.48043,0.63992,0.3953,24.156
6.688,104.43,0.20626,0.40274,0.48532,0.63992,0.3953,24.026
6.696,100.33,0.20039,0.40176,0.48043,0.63992,0.4002,24.026
6.704,96.61,0.19453,0.40176,0.47456,0.63503,0.40509,24.026
6.712,93.09,0.18866,0.40078,0.46967,0.63992,0.40509,24.156
6.72,89.57,0.1828,0.40078,0.46967,0.63992,0.40509,24.416
6.728,85.854,0.17693,0.40176,0.46967,0.63992,0.40509,24.675
6.736,82.334,0.17009,0.40371,0.47456,0.63992,0.40509,24.805
6.744,78.814,0.16422,0.40762,0.48532,0.63992,0.4002,24.545
6.752,75.489,0.15836,0.41447,0.48532,0.63992,0.4002,24.156
6.76,72.555,0.15249,0.42229,0.49022,0.63992,0.3953,23.636
6.768,70.013,0.14663,0.435,0.49022,0.63992,0.3953,23.117
6.776,68.253,0.14174,0.45259,0.49022,0.63992,0.3953,22.727
6.784,66.884,0.13685,0.47312,0.49511,0.63992,0.3953,22.338
6.792,66.297,0.13392,0.49658,0.49511,0.63992,0.3953,21.818
6.8,66.297,0.13001,0.52102,0.49511,0.64481,0.38943,21.299
6.808,66.884,0.12805,0.54643,0.49511,0.64971,0.38454,20.909
6.816,68.253,0.12512,0.56891,0.48532,0.65558,0.38454,20.26
6.824,70.013,0.12317,0.58944,0.48043,0.64971,0.37476,19.74
6.832,72.164,0.12121,0.60704,0.4501,0.68982,0.32485,19.221
6.84,74.511,0.11926,0.62072,0.3953,0.7955,0.27495,18.831
6.848,77.054,0.11828,0.63148,0.32975,0.98043,0.23483,18.571
6.856,79.205,0.11828,0.6393,0.27984,1.001,0.22994,18.182
6.864,81.16,0.11828,0.64321,0.27006,1.001,0.31507,18.052
6.872,82.921,0.11828,0.64712,0.36008,0.77495,0.46477,17.922
6.88,84.094,0.11828,0.64907,0.43542,0.48043,0.5998,17.922
6.888,84.681,0.11926,0.65005,0.47456,0.35519,0.63503,17.792
6.896,84.876,0.12023,0.64907,0.49022,0.4002,0.57534,17.662
6.904,84.681,0.12121,0.64614,0.5,0.50978,0.49511,17.662
6.912,83.898,0.12219,0.64321,0.50489,0.58513,0.44031,17.532
6.92,82.921,0.12317,0.63734,0.50489,0.61546,0.40998,17.403
6.928,81.747,0.12414,0.6305,0.50489,0.62524,0.3953,17.143
6.936,80.574,0.12512,0.62072,0.5,0.63503,0.38943,16.883
6.944,79.205,0.1261,0.60997,0.49511,0.63992,0.38454,16.753
6.952,78.031,0.1261,0.59824,0.49511,0.63992,0.37965,16.753
6.96,76.662,0.12708,0.58749,0.49511,0.64481,0.37476,16.623
6.968,75.489,0.12805,0.57674,0.5,0.64481,0.36986,16.753
6.976,74.316,0.12903,0.56598,0.5,0.64481,0.36497,17.013
6.984,73.142,0.13001,0.55816,0.50489,0.64971,0.36497,17.403
6.992,72.164,0.13099,0.55132,0.5,0.65558,0.36497,17.922
7,71.186,0.13196,0.54643,0.5,0.65558,0.36497,18.701
7.008,70.209,0.13294,0.54252,0.49511,0.65558,0.36497,19.481
7.016,69.231,0.1349,0.54057,0.48532,0.66047,0.36497,20.519
7.024,68.449,0.13587,0.53959,0.47456,0.66536,0.36497,21.688
7.032,67.666,0.13783,0.53959,0.47456,0.67025,0.36008,22.857
7.04,67.08,0.13881,0.53861,0.46477,0.68004,0.35519,24.026
7.048,66.493,0.14076,0.53763,0.46477,0.69472,0.33953,25.195
7.056,65.906,0.14272,0.53568,0.45988,0.71526,0.32975,25.844
7.064,65.515,0.14467,0.53372,0.45499,0.72505,0.31507,26.234
7.072,65.124,0.14663,0.53177,0.4501,0.73483,0.31018,26.364
7.08,64.733,0.14858,0.52981,0.4501,0.7456,0.30528,26.364
7.088,64.733,0.15152,0.52688,0.4501,0.7407,0.31018,26.494
7.096,64.733,0.15347,0.52395,0.4501,0.72994,0.31018,26.623
7.104,64.733,0.15543,0.52102,0.45499,0.72016,0.32485,27.013
7.112,65.124,0.15738,0.51808,0.45988,0.70548,0.33464,27.273
7.12,65.319,0.15934,0.51417,0.46477,0.68982,0.35029,27.273
7.128,65.906,0.16031,0.50929,0.46967,0.67025,0.36008,26.883
7.136,66.493,0.16227,0.5044,0.48043,0.65558,0.37476,25.974
7.144,67.471,0.16227,0.49853,0.48532,0.63503,0.38943,25.065
7.152,69.035,0.16325,0.49462,0.48532,0.62035,0.4002,24.026
7.16,71.186,0.16325,0.49169,0.48532,0.61546,0.40509,23.117
7.168,74.12,0.16422,0.48778,0.48532,0.6047,0.41487,22.597
7.176,78.031,0.16422,0.48387,0.48043,0.5998,0.41977,22.468
7.184,82.725,0.16422,0.47996,0.47456,0.5998,0.42466,22.468
7.192,88.005,0.16227,0.47605,0.46967,0.5998,0.42466,22.727
7.2,93.677,0.16129,0.47214,0.46477,0.5998,0.41977,22.987
7.208,99.153,0.15836,0.46823,0.46477,0.6047,0.41977,23.247
7.216,104.24,0.1564,0.46334,0.45988,0.61057,0.41487,23.377
7.224,108.54,0.15347,0.45943,0.45988,0.61546,0.41487,23.247
7.232,111.67,0.15054,0.45552,0.45988,0.61546,0.41487,22.857
7.24,113.23,0.14663,0.45161,0.45988,0.61546,0.41487,22.468
7.248,113.43,0.1437,0.4477,0.45988,0.61546,0.41487,22.078
7.256,112.45,0.14076,0.44477,0.45988,0.61546,0.41487,21.818
7.264,110.3,0.13783,0.44282,0.45988,0.62035,0.40509,21.818
7.272,107.17,0.13587,0.43891,0.46477,0.62035,0.40509,21.948
7.28,103.26,0.13294,0.43597,0.46477,0.62035,0.40509,22.208
7.288,99.153,0.13001,0.43206,0.46967,0.62035,0.40509,22.597
7.296,95.046,0.12805,0.42913,0.47456,0.62035,0.40509,22.987
7.304,90.743,0.12414,0.4262,0.47456,0.62035,0.40509,23.377
7.312,86.245,0.12121,0.42326,0.46967,0.62035,0.40509,23.506
7.32,81.943,0.11926,0.42131,0.46967,0.62035,0.40509,23.377
7.328,77.836,0.1173,0.42033,0.46477,0.61546,0.4002,22.857
7.336,73.924,0.11632,0.41935,0.44521,0.63014,0.36986,22.208
7.344,70.404,0.11535,0.42131,0.4002,0.68982,0.31507,21.169
7.352,67.275,0.11437,0.42424,0.33953,0.84051,0.27006,20.39
7.36,64.733,0.11339,0.42913,0.29452,1.001,0.2593,19.481
7.368,62.973,0.11339,0.43793,0.28474,1.001,0.31507,18.961
7.376,61.604,0.11339,0.44966,0.33953,0.8454,0.44521,18.442
7.384,61.017,0.11339,0.46334,0.42466,0.55479,0.59002,18.052
7.392,61.017,0.11437,0.47996,0.46967,0.36008,0.66047,17.792
7.4,61.408,0.11535,0.49658,0.48043,0.33464,0.63014,17.662
7.408,62.582,0.1173,0.51417,0.48532,0.44521,0.54012,17.532
7.416,64.146,0.12023,0.53177,0.48532,0.54012,0.46477,17.403
7.424,65.906,0.12317,0.54741,0.48532,0.59002,0.41977,17.143
7.432,68.057,0.1261,0.56109,0.48532,0.61057,0.40509,16.883
7.44,70.013,0.13001,0.57283,0.48532,0.61546,0.4002,16.623
7.448,72.164,0.1349,0.58162,0.48532,0.62035,0.3953,16.234
7.456,73.924,0.13978,0.58749,0.48532,0.62524,0.38454,15.844
7.464,75.685,0.14467,0.59238,0.48043,0.63014,0.37965,15.455
7.472,77.054,0.15054,0.59629,0.48043,0.63014,0.37965,15.195
7.48,78.031,0.1564,0.59531,0.48532,0.63014,0.37965,14.805
7.488,78.618,0.16129,0.59042,0.48043,0.62524,0.37965,14.545
7.496,78.814,0.16716,0.58553,0.47456,0.62524,0.38454,14.416
7.504,78.618,0.17302,0.57869,0.47456,0.63014,0.38454,14.416
7.512,78.227,0.18084,0.56989,0.47456,0.63992,0.37965,14.675
7.52,77.836,0.18768,0.55914,0.48043,0.64481,0.37476,15.195
7.528,76.858,0.19648,0.54643,0.48043,0.64481,0.36497,16.364
7.536,76.076,0.2043,0.53372,0.47456,0.65558,0.35519,18.312
7.544,74.902,0.21408,0.52004,0.46967,0.66047,0.35029,20.779
7.552,73.729,0.22483,0.50831,0.45988,0.67515,0.33953,23.377
7.56,72.555,0.23558,0.49951,0.4501,0.68493,0.32485,25.325
7.568,71.382,0.24633,0.48974,0.44521,0.70548,0.31018,26.364
7.576,70.209,0.25709,0.48192,0.43542,0.71037,0.31018,26.494
7.584,69.035,0.26784,0.47605,0.42955,0.71037,0.30528,25.844
7.592,68.057,0.27859,0.47116,0.42955,0.72016,0.30528,24.935
7.6,67.08,0.28935,0.46823,0.42955,0.71037,0.31018,24.026
7.608,66.297,0.30205,0.4653,0.42955,0.69472,0.32485,23.636
7.616,65.515,0.31574,0.46432,0.43542,0.68004,0.33953,23.896
7.624,64.928,0.3304,0.46432,0.44031,0.66536,0.35519,24.545
7.632,64.342,0.34604,0.46334,0.44521,0.64481,0.36986,25.325
7.64,63.95,0.35973,0.46139,0.45499,0.62524,0.38943,25.844
7.648,63.755,0.37439,0.46041,0.45499,0.61057,0.40509,25.844
7.656,63.755,0.38905,0.45846,0.45499,0.6047,0.40998,25.455
7.664,64.342,0.40274,0.4565,0.45988,0.5998,0.41487,24.545
7.672,65.711,0.4174,0.45455,0.46477,0.59491,0.41977,23.766
7.68,67.862,0.43206,0.45259,0.47456,0.59002,0.41977,22.987
7.688,70.991,0.44673,0.44966,0.48043,0.58513,0.41977,22.468
7.696,75.098,0.46237,0.44575,0.48532,0.59002,0.42466,22.338
7.704,79.791,0.47703,0.44282,0.48532,0.59002,0.42466,22.208
7.712,85.072,0.49267,0.43988,0.48532,0.59002,0.42466,22.468
7.72,90.352,0.50831,0.43597,0.48532,0.59002,0.42466,22.727
7.728,95.828,0.52395,0.43304,0.48043,0.59491,0.41977,23.117
7.736,100.52,0.53666,0.42913,0.47456,0.5998,0.41977,23.377
7.744,104.43,0.55034,0.42522,0.47456,0.6047,0.41487,23.377
7.752,106.98,0.56109,0.42229,0.47456,0.61057,0.41487,23.247
7.76,107.76,0.57283,0.42033,0.47456,0.61546,0.40509,22.987
7.768,107.37,0.58358,0.41642,0.46967,0.62524,0.4002,22.857
7.776,105.61,0.59433,0.41349,0.46477,0.63014,0.3953,22.727
7.784,102.67,0.60606,0.40958,0.45988,0.63014,0.4002,22.727
7.792,99.153,0.61681,0.40567,0.45499,0.63014,0.4002,22.727
7.8,95.046,0.62659,0.40274,0.45499,0.62524,0.4002,22.727
7.808,90.352,0.63734,0.39883,0.45499,0.62524,0.4002,22.468
7.816,85.854,0.64614,0.39589,0.45988,0.62524,0.4002,22.078
7.824,81.16,0.65591,0.39198,0.45988,0.62524,0.40509,21.429
7.832,76.662,0.66667,0.38905,0.46477,0.62035,0.40509,20.649
7.84,72.36,0.67644,0.38612,0.46477,0.62035,0.40509,19.61
7.848,68.644,0.68817,0.38514,0.46967,0.62035,0.40509,18.831
7.856,65.515,0.69892,0.38514,0.46967,0.61546,0.40509,18.052
7.864,62.973,0.71163,0.38612,0.46967,0.62035,0.40509,17.532
7.872,60.821,0.72336,0.38905,0.47456,0.62035,0.40509,17.013
7.88,59.452,0.73705,0.39492,0.47456,0.62035,0.40509,16.753
7.888,58.67,0.74976,0.40371,0.47456,0.62035,0.40509,16.494
7.896,58.475,0.76246,0.41544,0.48043,0.62035,0.40509,16.364
7.904,58.866,0.77419,0.42913,0.48043,0.62035,0.40509,16.234
7.912,59.844,0.78592,0.44379,0.48043,0.62035,0.40509,16.104
7.92,61.213,0.79765,0.45943,0.48043,0.61546,0.40509,15.844
7.928,62.777,0.81134,0.4741,0.48043,0.61546,0.40509,15.584
7.936,64.733,0.82502,0.48778,0.48043,0.61546,0.40998,15.065
7.944,66.688,0.83969,0.50049,0.48043,0.61546,0.41487,14.675
7.952,68.84,0.85533,0.51026,0.48043,0.61546,0.41977,14.286
7.96,70.6,0.86901,0.51711,0.47456,0.61546,0.41487,14.026
7.968,72.555,0.8827,0.52199,0.47456,0.61546,0.41487,13.766
7.976,74.12,0.89541,0.5259,0.47456,0.62035,0.41487,13.766
7.984,75.489,0.90909,0.52786,0.47456,0.62524,0.41487,14.026
7.992,76.271,0.92375,0.52688,0.48043,0.62524,0.40998,14.416
8,76.858,0.93842,0.52297,0.48043,0.63014,0.40509,14.935
8.008,77.054,0.95601,0.51808,0.46477,0.64971,0.37965,15.974
8.016,76.662,0.97263,0.51026,0.43542,0.71037,0.31507,17.143
8.024,76.271,0.98631,0.50049,0.37965,0.84051,0.2544,18.442
8.032,75.685,1,0.48876,0.32975,1.001,0.22505,19.61
8.04,74.902,1,0.47703,0.31018,1.001,0.24951,20.39
8.048,73.924,1,0.4653,0.34442,0.97065,0.35519,20.649
8.056,72.947,1,0.45552,0.42955,0.66536,0.51468,20.519
8.064,71.969,1,0.44575,0.5,0.4002,0.63503,20.13
8.072,70.991,1,0.43793,0.51957,0.33464,0.64971,19.351
8.08,70.013,1,0.43109,0.52544,0.41977,0.56458,18.831
8.088,69.231,1,0.42522,0.51957,0.53523,0.48532,18.312
8.096,68.449,1,0.42229,0.51957,0.5998,0.43542,18.182
8.104,67.666,1,0.42033,0.51468,0.62035,0.41487,18.442
8.112,66.884,1,0.41935,0.50489,0.63014,0.40509,18.961
8.12,66.102,1,0.41935,0.5,0.63503,0.40509,19.61
8.128,65.515,1,0.41935,0.49511,0.63992,0.40509,20.519
8.136,64.733,1,0.41935,0.49511,0.63992,0.40509,21.299
8.144,64.342,1,0.41935,0.49511,0.64481,0.40509,22.078
8.152,63.755,1,0.41838,0.5,0.63992,0.40509,22.727
8.16,63.364,1,0.41838,0.50489,0.63992,0.4002,23.247
8.168,62.973,1,0.4174,0.50489,0.63992,0.4002,23.506
8.176,62.582,1,0.41642,0.50978,0.63992,0.4002,23.766
8.184,62.386,1,0.41447,0.50978,0.64481,0.4002,24.026
8.192,62.19,1,0.41349,0.50489,0.64971,0.3953,24.286
8.2,62.19,1,0.41251,0.50489,0.65558,0.38454,24.675
8.208,62.19,1,0.41056,0.50489,0.66047,0.37965,25.195
8.216,62.19,1,0.40762,0.50489,0.66536,0.36986,25.714
8.224,62.19,1,0.40567,0.50489,0.68004,0.35519,26.234
8.232,62.386,1,0.40371,0.50489,0.69472,0.33953,26.753
8.24,62.582,1,0.40078,0.5,0.71037,0.33464,27.143
8.248,62.777,1,0.3998,0.5,0.72016,0.32975,27.532
8.256,62.777,1,0.39785,0.49511,0.72994,0.31996,27.792
8.264,62.973,1,0.39492,0.49022,0.73483,0.31996,28.312
8.272,62.973,1,0.39198,0.48532,0.73483,0.31996,28.701
8.28,63.168,1,0.38905,0.47456,0.72994,0.32485,28.961
8.288,63.364,1,0.38612,0.46477,0.71526,0.33464,28.961
8.296,63.755,1,0.38221,0.45988,0.70059,0.35519,28.442
8.304,64.342,1,0.37928,0.45988,0.68493,0.36497,27.403
8.312,65.515,1,0.37537,0.45988,0.67515,0.37965,25.974
8.32,67.275,1,0.37243,0.45988,0.66047,0.38454,24.286
8.328,70.404,1,0.37048,0.46477,0.64971,0.3953,22.727
8.336,74.511,1,0.36755,0.46967,0.64481,0.4002,21.558
8.344,80.183,1,0.36559,0.47456,0.63992,0.40998,20.649
8.352,86.832,1,0.36461,0.47456,0.63503,0.41487,20.13
8.36,94.263,0.99511,0.36364,0.48043,0.63503,0.41487,20
8.368,101.89,0.99022,0.36266,0.48532,0.63503,0.41487,20.39
8.376,109.13,0.97165,0.3607,0.49511,0.63503,0.41487,20.909
8.384,115.58,0.95406,0.35875,0.49511,0.63014,0.41487,21.429
8.392,120.27,0.93646,0.35777,0.5,0.62524,0.41487,22.078
8.4,123.21,0.91887,0.35679,0.50489,0.62524,0.41487,22.727
8.408,123.99,0.90029,0.35484,0.50978,0.62035,0.41487,23.247
8.416,122.82,0.8827,0.35386,0.50978,0.62035,0.41977,23.636
8.424,120.27,0.86413,0.35288,0.51468,0.61546,0.41977,23.766
8.432,116.75,0.84555,0.35191,0.51468,0.61546,0.42466,23.896
8.44,112.45,0.82991,0.34995,0.50978,0.61546,0.42466,23.896
8.448,107.95,0.81329,0.34995,0.50489,0.61546,0.42466,23.896
8.456,103.65,0.79863,0.34897,0.5,0.61057,0.42955,24.026
8.464,99.348,0.78397,0.34897,0.5,0.6047,0.42955,24.286
8.472,95.437,0.76833,0.348,0.5,0.5998,0.43542,24.545
8.48,91.525,0.75269,0.34702,0.5,0.59491,0.42955,24.805
8.488,87.81,0.73705,0.34506,0.49511,0.59491,0.42955,25.065
8.496,84.094,0.72141,0.34506,0.49511,0.5998,0.42466,25.325
8.504,80.378,0.70479,0.34702,0.49511,0.5998,0.42466,25.325
8.512,76.858,0.68915,0.35191,0.48532,0.5998,0.40998,25.195
8.52,73.729,0.67351,0.3607,0.45988,0.63014,0.36986,24.935
8.528,71.186,0.65787,0.37439,0.41487,0.72994,0.31018,24.675
8.536,69.035,0.64516,0.39101,0.35519,0.92074,0.26517,24.416
8.544,67.471,0.63148,0.41251,0.30528,1.001,0.23973,24.026
8.552,66.297,0.61975,0.43206,0.28963,1.001,0.29452,23.636
8.56,66.102,0.60802,0.45161,0.37476,0.81018,0.44031,22.987
8.568,66.297,0.59629,0.47507,0.4501,0.51957,0.57534,22.208
8.576,67.275,0.58553,0.49951,0.49022,0.38454,0.62035,21.169
8.584,68.644,0.5738,0.52199,0.50489,0.41487,0.57534,20.26
8.592,70.6,0.56305,0.5435,0.51957,0.5,0.50489,19.351
8.6,72.947,0.55425,0.56305,0.52544,0.56458,0.45499,18.571
8.608,75.293,0.54448,0.57869,0.51957,0.5998,0.41977,17.922
8.616,77.64,0.53666,0.59238,0.51468,0.61546,0.40998,17.532
8.624,79.791,0.52884,0.60215,0.51468,0.62035,0.4002,17.273
8.632,81.747,0.52004,0.60997,0.51468,0.62524,0.3953,17.273
8.64,83.116,0.51222,0.61486,0.51468,0.63014,0.3953,17.403
8.648,84.289,0.50342,0.61779,0.50978,0.63503,0.3953,17.403
8.656,84.681,0.49462,0.61779,0.50978,0.63503,0.38943,17.532
8.664,84.681,0.4868,0.61681,0.50978,0.63992,0.38454,17.662
8.672,84.289,0.47898,0.61388,0.50489,0.64481,0.38454,17.662
8.68,83.312,0.47116,0.60899,0.50489,0.64481,0.37965,17.532
8.688,82.334,0.46432,0.60215,0.5,0.65558,0.37476,17.403
8.696,81.16,0.4565,0.59335,0.5,0.66047,0.36497,17.143
8.704,79.791,0.44966,0.58358,0.49511,0.66536,0.36008,17.013
8.712,78.618,0.44379,0.57185,0.49511,0.67025,0.35519,17.013
8.72,77.249,0.43695,0.56012,0.49511,0.68004,0.34442,17.143
8.728,76.076,0.43011,0.54839,0.5,0.68982,0.33464,17.662
8.736,75.098,0.42326,0.53763,0.49511,0.70548,0.31996,18.312
8.744,73.924,0.41642,0.52884,0.49022,0.71037,0.31507,19.481
8.752,72.751,0.40958,0.52199,0.48043,0.72016,0.31018,21.169
8.76,71.773,0.40469,0.51711,0.47456,0.72505,0.30528,22.987
8.768,70.795,0.39883,0.51417,0.46967,0.72505,0.31018,24.675
8.776,69.818,0.39492,0.51222,0.46477,0.72505,0.31507,25.974
8.784,69.035,0.39003,0.51124,0.46477,0.72016,0.32485,26.753
8.792,68.253,0.38612,0.51026,0.46477,0.71037,0.33464,26.753
8.8,67.666,0.38123,0.51026,0.46967,0.69472,0.35029,26.104
8.808,67.275,0.37732,0.50929,0.47456,0.68004,0.36008,25.195
8.816,66.884,0.37243,0.50929,0.48043,0.66536,0.37476,24.286
8.824,66.884,0.36852,0.50831,0.48043,0.65558,0.38454,23.766
8.832,67.08,0.36461,0.50733,0.48532,0.64481,0.3953,23.506
8.84,67.666,0.3607,0.50635,0.48532,0.63503,0.40509,23.636
8.848,69.035,0.35679,0.50538,0.48532,0.63014,0.40998,23.766
8.856,71.186,0.35386,0.5044,0.49022,0.63503,0.40998,24.026
8.864,73.924,0.35093,0.50147,0.49022,0.63014,0.40509,24.026
8.872,77.64,0.348,0.49756,0.48532,0.63014,0.40509,23.766
8.88,82.138,0.34604,0.49365,0.48532,0.63014,0.40509,23.377
8.888,87.027,0.34115,0.48974,0.48532,0.63014,0.40509,22.857
8.896,92.112,0.33724,0.48485,0.48532,0.62524,0.40509,22.468
8.904,97.197,0.33236,0.47996,0.48532,0.62524,0.40509,22.208
8.912,101.89,0.32649,0.47507,0.48043,0.62524,0.40998,22.208
8.92,105.61,0.3216,0.47019,0.48043,0.62524,0.40998,22.468
8.928,108.34,0.31574,0.4653,0.48043,0.62035,0.40998,22.727
8.936,109.71,0.31085,0.46041,0.48043,0.62035,0.41487,22.987
8.944,109.71,0.30499,0.4565,0.48043,0.62035,0.41487,23.377
8.952,108.54,0.29814,0.45259,0.48532,0.61546,0.41487,23.636
8.96,106.19,0.2913,0.44868,0.49511,0.61546,0.41487,23.896
8.968,102.87,0.2825,0.44575,0.49511,0.62035,0.41487,23.896
8.976,98.957,0.27468,0.44282,0.49511,0.62035,0.41487,23.766
8.984,94.85,0.26588,0.43988,0.49511,0.62524,0.40998,23.506
8.992,90.352,0.25806,0.43695,0.5,0.62524,0.40509,23.377
9,85.658,0.24927,0.43402,0.5,0.63503,0.4002,23.117
9.008,81.16,0.24145,0.43011,0.49511,0.63503,0.3953,22.727
9.016,76.858,0.2346,0.42717,0.49511,0.63992,0.3953,22.338
9.024,72.947,0.22776,0.42424,0.49511,0.63992,0.3953,21.818
9.032,69.622,0.2219,0.42326,0.5,0.63992,0.3953,21.429
9.04,66.688,0.21701,0.42424,0.50489,0.63992,0.4002,21.169
9.048,64.537,0.21114,0.42717,0.50489,0.63992,0.4002,20.779
9.056,62.973,0.20626,0.43109,0.5,0.63992,0.4002,20.39
9.064,62.19,0.20235,0.43793,0.49511,0.63503,0.4002,20
9.072,61.995,0.19746,0.4477,0.48532,0.63503,0.4002,19.61
9.08,62.386,0.19355,0.45846,0.47456,0.63503,0.40509,19.221
9.088,63.168,0.18964,0.47214,0.47456,0.63992,0.4002,18.961
9.096,64.537,0.18671,0.4868,0.47456,0.63992,0.4002,18.571
9.104,66.102,0.1828,0.50049,0.47456,0.63992,0.4002,18.312
9.112,68.057,0.18084,0.5132,0.46967,0.64481,0.3953,18.052
9.12,70.013,0.17889,0.5259,0.46477,0.64481,0.3953,17.792
9.128,71.969,0.17693,0.53763,0.46477,0.64481,0.3953,17.662
9.136,73.729,0.17595,0.54643,0.46477,0.64481,0.3953,17.662
9.144,75.293,0.17498,0.55327,0.46477,0.64481,0.3953,17.532
9.152,76.662,0.174,0.55621,0.46477,0.64481,0.3953,17.532
9.16,77.64,0.17204,0.55914,0.46477,0.64481,0.38943,17.403
9.168,78.227,0.17107,0.56012,0.46477,0.64481,0.38943,17.403
9.176,78.422,0.17107,0.55816,0.46967,0.64481,0.38454,17.273
9.184,78.422,0.17009,0.55523,0.47456,0.64971,0.38454,17.273
9.192,78.031,0.17009,0.54936,0.48043,0.65558,0.38454,17.143
9.2,77.445,0.17009,0.54057,0.48043,0.65558,0.38454,17.143
9.208,76.858,0.17009,0.53079,0.48043,0.66047,0.38454,17.143
9.216,76.076,0.16911,0.52004,0.48043,0.66536,0.38454,17.273
9.224,75.293,0.16911,0.50831,0.47456,0.66047,0.38454,17.403
9.232,74.316,0.16813,0.49658,0.46967,0.66047,0.38454,17.662
9.24,73.338,0.16813,0.48583,0.45988,0.66047,0.38454,17.922
9.248,72.36,0.16813,0.47801,0.45988,0.65558,0.38943,18.312
9.256,71.382,0.16813,0.47214,0.44031,0.67515,0.35519,18.961
9.264,70.404,0.16911,0.46725,0.4002,0.75049,0.29452,19.481
9.272,69.426,0.16911,0.46432,0.33953,0.90509,0.24462,20.13
9.28,68.449,0.16911,0.46237,0.29452,1.001,0.22505,20.649
9.288,67.471,0.16813,0.46139,0.27984,1.001,0.26517,20.909
9.296,66.688,0.16813,0.46139,0.32485,0.91585,0.38454,21.039
9.304,65.906,0.16813,0.46139,0.40998,0.6047,0.54012,21.039
9.312,65.319,0.16813,0.46139,0.45988,0.4002,0.62035,20.779
9.32,64.537,0.16911,0.46139,0.48043,0.36986,0.59491,20.519
9.328,64.146,0.16911,0.46139,0.49022,0.47456,0.52544,20.26
9.336,63.559,0.17009,0.46041,0.5,0.56458,0.4501,20
9.344,63.168,0.17009,0.45943,0.50978,0.61546,0.40998,19.87
9.352,62.973,0.17107,0.45846,0.50978,0.63014,0.3953,19.87
9.36,62.582,0.17204,0.4565,0.50978,0.63992,0.38454,20.13
9.368,62.386,0.17302,0.45455,0.51468,0.63992,0.37965,20.39
9.376,62.19,0.17302,0.45259,0.51468,0.63992,0.37965,20.779
9.384,62.19,0.174,0.44966,0.50978,0.63992,0.37965,21.169
9.392,61.995,0.17498,0.4477,0.5,0.64481,0.37965,21.688
9.4,61.995,0.17498,0.44477,0.49511,0.63992,0.37965,21.948
9.408,61.995,0.17595,0.44184,0.49022,0.63992,0.38454,22.078
9.416,61.995,0.17595,0.43891,0.49022,0.63992,0.38454,22.078
9.424,62.19,0.17595,0.43597,0.48532,0.63992,0.37965,22.078
9.432,62.386,0.17498,0.43304,0.48532,0.64481,0.37965,22.208
9.44,62.582,0.174,0.43109,0.48043,0.64971,0.37476,22.468
9.448,62.777,0.17302,0.42815,0.48043,0.65558,0.36497,23.117
9.456,62.973,0.17204,0.4262,0.47456,0.66536,0.36008,24.026
9.464,62.973,0.17009,0.42326,0.47456,0.68004,0.35029,24.935
9.472,63.168,0.16813,0.41935,0.46967,0.68982,0.33953,25.844
9.48,63.168,0.16618,0.41642,0.46477,0.70059,0.32975,26.753
9.488,63.168,0.16325,0.41349,0.45988,0.72016,0.31507,27.403
9.496,63.168,0.16129,0.41153,0.45499,0.72994,0.29941,28.052
9.504,63.168,0.15934,0.4086,0.45499,0.7407,0.29452,28.442
9.512,63.168,0.1564,0.40665,0.45499,0.7456,0.29452,28.571
9.52,62.973,0.15347,0.40469,0.45499,0.7456,0.29941,28.442
9.528,62.973,0.15152,0.40665,0.45499,0.73483,0.31018,28.052
9.536,63.168,0.14858,0.41056,0.45499,0.72505,0.32485,27.532
9.544,63.559,0.14565,0.41153,0.45499,0.71037,0.33953,26.623
9.552,64.537,0.1437,0.41251,0.45499,0.70059,0.35029,25.584
9.56,66.297,0.14076,0.41153,0.45499,0.68004,0.36497,24.156
9.568,69.426,0.13881,0.41056,0.45499,0.66536,0.37476,22.857
9.576,74.12,0.13685,0.4086,0.45988,0.65558,0.38454,21.818
9.584,80.183,0.13587,0.40665,0.46477,0.64971,0.38943,21.039
9.592,87.614,0.13392,0.40371,0.46477,0.64481,0.3953,20.779
9.6,95.632,0.13196,0.40274,0.46477,0.63992,0.3953,20.779
9.608,104.04,0.12903,0.40078,0.46477,0.63503,0.4002,21.169
9.616,111.86,0.12708,0.39883,0.46477,0.63503,0.4002,21.948
9.624,118.71,0.12414,0.39687,0.46967,0.63503,0.40509,22.727
9.632,123.79,0.12121,0.39589,0.46967,0.63992,0.4002,23.506
9.64,126.73,0.11828,0.39492,0.47456,0.63992,0.3953,24.156
9.648,127.12,0.11535,0.39492,0.46967,0.63992,0.3953,24.545
9.656,125.75,0.11241,0.39492,0.46967,0.63992,0.3953,24.675
9.664,122.82,0.10948,0.39589,0.46967,0.63503,0.3953,24.416
9.672,118.9,0.10655,0.39589,0.46967,0.63992,0.3953,24.026
9.68,114.6,0.10362,0.39589,0.46967,0.63992,0.3953,23.377
9.688,110.1,0.099707,0.39492,0.46477,0.63503,0.4002,22.857
9.696,105.61,0.095797,0.39394,0.46477,0.63503,0.4002,22.597
9.704,101.5,0.091887,0.39296,0.45988,0.63503,0.40509,22.727
9.712,97.588,0.087977,0.39198,0.4501,0.63503,0.40509,23.117
9.72,93.872,0.084066,0.39101,0.44521,0.63503,0.40509,23.636
9.728,90.352,0.081134,0.39101,0.4501,0.63992,0.40509,24.156
9.736,86.636,0.079179,0.39101,0.45499,0.63992,0.40509,24.675
9.744,82.921,0.076246,0.39296,0.4501,0.63992,0.4002,24.805
9.752,79.205,0.073314,0.39687,0.45499,0.63992,0.4002,24.416
9.76,75.685,0.071359,0.40469,0.45499,0.63992,0.4002,23.636
9.768,72.555,0.068426,0.41544,0.45988,0.63992,0.4002,22.727
9.776,69.818,0.065494,0.43109,0.45499,0.63992,0.3953,21.818
9.784,67.666,0.063539,0.45161,0.45499,0.64481,0.3953,20.909
9.792,66.297,0.062561,0.47605,0.45988,0.64481,0.38943,20.26
9.8,65.515,0.061584,0.50342,0.45988,0.64481,0.3953,19.74
9.808,65.515,0.061584,0.53079,0.45988,0.64481,0.3953,19.221
9.816,66.297,0.062561,0.55816,0.45988,0.64481,0.3953,18.961
9.824,67.471,0.063539,0.58358,0.45988,0.64481,0.3953,18.701
9.832,69.426,0.065494,0.60508,0.45988,0.63992,0.3953,18.442
9.84,71.773,0.067449,0.62463,0.46477,0.63992,0.3953,18.182
9.848,74.316,0.071359,0.63832,0.45988,0.63992,0.3953,17.922
9.856,76.662,0.074291,0.64907,0.45988,0.63503,0.3953,17.662
9.864,79.009,0.079179,0.65787,0.45499,0.63503,0.3953,17.273
9.872,81.16,0.085044,0.66471,0.45499,0.63503,0.4002,16.883
9.88,82.725,0.089932,0.67058,0.45988,0.63503,0.4002,16.364
9.888,84.094,0.094819,0.67351,0.45499,0.63503,0.37965,15.974
9.896,84.681,0.099707,0.67546,0.41977,0.67515,0.33464,15.584
9.904,84.681,0.10459,0.67546,0.36986,0.77984,0.27006,15.195
9.912,84.289,0.11046,0.67351,0.31507,0.96086,0.23483,14.805
9.92,83.507,0.1173,0.66862,0.28474,1.001,0.2544,14.545
9.928,82.529,0.12414,0.66276,0.31018,0.98532,0.35519,14.286
9.936,81.16,0.13196,0.65396,0.38454,0.71037,0.50978,14.156
9.944,79.987,0.13978,0.64516,0.46967,0.43542,0.63503,13.896
9.952,78.618,0.14761,0.63441,0.5,0.31996,0.67025,13.896
9.96,77.249,0.1564,0.6217,0.50489,0.38454,0.59002,14.026
9.968,75.88,0.1652,0.60704,0.49511,0.50978,0.49511,14.286
9.976,74.707,0.17302,0.59238,0.49511,0.59002,0.42466,14.805
9.984,73.533,0.18182,0.57869,0.48532,0.62524,0.38943,15.584
9.992,72.36,0.19062,0.56696,0.48043,0.63992,0.37476,16.364
10,71.186,0.19941,0.55718,0.47456,0.64481,0.36986,17.273
10.008,70.013,0.20919,0.54936,0.46967,0.64481,0.37476,17.922
10.016,69.035,0.21994,0.5435,0.46477,0.63992,0.37476,18.442
10.024,68.057,0.23069,0.54057,0.46477,0.63992,0.37965,18.571
10.032,67.275,0.24242,0.53861,0.45988,0.63503,0.37965,18.442
10.04,66.297,0.25415,0.53763,0.45988,0.63503,0.37965,18.182
10.048,65.515,0.26588,0.53666,0.46477,0.63014,0.37476,17.922
10.056,64.928,0.27664,0.53568,0.46477,0.62524,0.37476,17.792
10.064,64.342,0.28837,0.53372,0.46477,0.63014,0.36497,17.922
10.072,63.95,0.30205,0.53275,0.46477,0.63503,0.36497,18.571
10.08,63.559,0.31574,0.53079,0.46477,0.63992,0.36497,19.481
10.088,63.168,0.3304,0.52884,0.46477,0.64481,0.36008,20.779
10.096,62.973,0.34604,0.52493,0.46477,0.65558,0.35519,22.338
10.104,62.973,0.36364,0.52102,0.45988,0.65558,0.35029,23.766
10.112,62.777,0.38025,0.51515,0.45499,0.67515,0.32975,25.195
10.12,62.777,0.39785,0.50929,0.45499,0.68982,0.31507,26.234
10.128,62.973,0.41544,0.5044,0.45499,0.70059,0.31018,27.273
10.136,62.973,0.43206,0.49853,0.45499,0.70548,0.31018,27.922
10.144,63.168,0.4477,0.49462,0.44521,0.71037,0.31018,28.442
10.152,63.364,0.46334,0.49071,0.44031,0.71526,0.31018,28.571
10.16,63.559,0.47801,0.48583,0.43542,0.68982,0.32485,28.312
10.168,63.95,0.49365,0.48192,0.42955,0.68004,0.34442,27.532
10.176,64.342,0.50929,0.47703,0.43542,0.66536,0.36008,26.364
10.184,64.537,0.52493,0.47116,0.43542,0.65558,0.36986,24.935
10.192,64.928,0.54154,0.46628,0.44031,0.64481,0.37965,23.636
10.2,65.319,0.55621,0.46139,0.44521,0.63503,0.38454,22.468
10.208,65.906,0.57087,0.4565,0.4501,0.62524,0.3953,21.948
10.216,67.08,0.58456,0.45259,0.45499,0.61546,0.4002,21.948
10.224,68.84,0.59824,0.44868,0.45988,0.5998,0.40509,22.338
10.232,71.382,0.61095,0.44379,0.46477,0.59491,0.41487,22.987
10.24,74.902,0.62366,0.43891,0.46477,0.59491,0.41977,23.636
10.248,79.205,0.63636,0.43402,0.47456,0.59002,0.41487,24.156
10.256,84.094,0.64907,0.43011,0.48043,0.59002,0.41487,24.286
10.264,89.179,0.6608,0.42522,0.48043,0.59002,0.40998,24.156
10.272,94.655,0.67351,0.42033,0.48532,0.59491,0.40509,23.896
10.28,99.544,0.68524,0.41544,0.49511,0.5998,0.40509,23.506
10.288,103.85,0.69697,0.41056,0.49511,0.5998,0.40509,22.987
10.296,107.17,0.70772,0.40665,0.49511,0.6047,0.40509,22.597
10.304,108.93,0.7175,0.40371,0.49511,0.61057,0.40998,22.468
10.312,109.52,0.7263,0.40078,0.49022,0.61057,0.41487,22.468
10.32,108.74,0.73509,0.39785,0.48043,0.61546,0.41487,22.727
10.328,106.78,0.74487,0.39589,0.46477,0.61546,0.41487,23.247
10.336,103.85,0.75367,0.39296,0.45499,0.61546,0.41487,23.636
10.344,100.33,0.76344,0.39198,0.44521,0.62035,0.41487,24.026
10.352,96.415,0.77322,0.39003,0.44521,0.62524,0.41487,24.286
10.36,92.308,0.78201,0.38807,0.44521,0.62524,0.41487,24.156
10.368,88.005,0.79081,0.38514,0.44521,0.62524,0.41487,23.896
10.376,83.703,0.79961,0.38319,0.44521,0.62524,0.41487,23.247
10.384,79.4,0.80841,0.38123,0.4501,0.62524,0.41487,22.468
10.392,75.293,0.81818,0.37928,0.4501,0.62524,0.40998,21.688
10.4,71.382,0.82893,0.3783,0.45988,0.62524,0.40509,20.779
10.408,67.862,0.84066,0.37928,0.46477,0.62524,0.40509,19.87
10.416,64.928,0.85142,0.38123,0.46967,0.62524,0.40998,19.221
10.424,62.386,0.86413,0.3871,0.47456,0.62524,0.40998,18.571
10.432,60.626,0.87683,0.39492,0.48043,0.62524,0.41487,18.312
10.44,59.648,0.88954,0.40665,0.48532,0.62524,0.41487,18.052
10.448,58.866,0.90323,0.41935,0.49511,0.62524,0.40998,17.922
10.456,58.866,0.91398,0.43304,0.5,0.63503,0.40998,17.792
10.464,59.452,0.92571,0.44966,0.5,0.63503,0.40509,17.662
10.472,60.626,0.93646,0.46725,0.50489,0.63992,0.40509,17.662
10.48,62.19,0.94721,0.48583,0.50489,0.63992,0.40509,17.403
10.488,64.146,0.95992,0.50342,0.5,0.63992,0.40509,17.273
10.496,66.297,0.97165,0.52004,0.49511,0.63992,0.40509,17.013
10.504,68.644,0.98534,0.5347,0.48532,0.63992,0.40509,16.753
10.512,70.991,0.99804,0.54643,0.48532,0.64481,0.40509,16.494
10.52,73.338,0.99902,0.55621,0.48532,0.64481,0.40998,16.364
10.528,75.489,1,0.56305,0.48532,0.64481,0.40998,16.364
10.536,77.249,1,0.56696,0.48043,0.64971,0.40509,16.364
10.544,78.618,1,0.56794,0.47456,0.65558,0.4002,16.364
10.552,79.791,1,0.56696,0.46967,0.66047,0.4002,16.494
10.56,80.378,1,0.56403,0.46967,0.66047,0.4002,16.753
10.568,80.378,1,0.55816,0.47456,0.66536,0.4002,16.883
10.576,80.183,1,0.54936,0.48043,0.66536,0.3953,17.143
10.584,79.596,1,0.53861,0.48043,0.66536,0.3953,17.532
10.592,78.814,1,0.52688,0.48532,0.66536,0.3953,17.792
10.6,77.836,1,0.51417,0.49022,0.66047,0.4002,18.182
10.608,76.662,1,0.50244,0.49511,0.66047,0.4002,18.701
10.616,75.489,1,0.49071,0.5,0.66536,0.4002,19.091
10.624,74.316,1,0.47996,0.50489,0.66536,0.3953,19.481
10.632,73.142,1,0.47019,0.49022,0.67025,0.37476,20
10.64,71.773,1,0.46334,0.4501,0.72505,0.31996,20.519
10.648,70.6,1,0.45943,0.38454,0.85029,0.26517,20.909
10.656,69.426,1,0.45748,0.33464,1.001,0.23973,21.039
10.664,68.449,1,0.45552,0.30528,1.001,0.2544,21.169
10.672,67.471,1,0.45357,0.32975,0.99511,0.35029,21.039
10.68,66.493,1,0.45357,0.41487,0.69472,0.50489,20.909
10.688,65.711,1,0.45455,0.48043,0.42955,0.62035,20.909
10.696,64.928,1,0.45455,0.5,0.36008,0.63503,20.779
10.704,64.342,1,0.45552,0.50489,0.43542,0.55969,20.909
10.712,63.755,1,0.45552,0.50978,0.54012,0.47456,21.169
10.72,63.364,1,0.45552,0.51957,0.5998,0.42466,21.688
10.728,62.973,1,0.45455,0.51957,0.62035,0.40509,22.208
10.736,62.582,1,0.45357,0.51957,0.63503,0.4002,22.727
10.744,62.19,1,0.45259,0.51957,0.63992,0.3953,23.247
10.752,61.995,1,0.45161,0.51957,0.64481,0.38943,23.377
10.76,61.995,1,0.45064,0.51957,0.64481,0.38943,23.377
10.768,61.995,1,0.44966,0.51957,0.64481,0.38454,22.987
10.776,61.995,1,0.44868,0.52544,0.64481,0.38454,22.468
10.784,61.995,1,0.44673,0.53033,0.64481,0.38454,21.948
10.792,62.19,1,0.44575,0.53033,0.64481,0.38454,21.558
10.8,62.386,1,0.44282,0.52544,0.64481,0.38454,21.169
10.808,62.582,1,0.43988,0.52544,0.64481,0.38454,21.039
10.816,62.777,1,0.43597,0.51957,0.64481,0.38454,21.169
10.824,62.973,1,0.43206,0.50978,0.64971,0.37965,21.688
10.832,63.168,1,0.42815,0.50489,0.65558,0.36986,22.468
10.84,63.364,0.98925,0.42424,0.5,0.66536,0.36008,23.506
10.848,63.364,0.97849,0.42033,0.5,0.67515,0.35029,24.675
10.856,63.364,0.96285,0.4174,0.49511,0.68493,0.33953,25.714
10.864,63.364,0.94819,0.41349,0.49022,0.69472,0.32975,26.494
10.872,63.364,0.93353,0.40958,0.48532,0.70548,0.31996,27.143
10.88,63.168,0.91789,0.40567,0.48043,0.72016,0.31507,27.532
10.888,63.168,0.90323,0.40274,0.48043,0.72505,0.31507,27.792
10.896,62.973,0.88759,0.39883,0.47456,0.72994,0.31018,27.792
10.904,62.973,0.87292,0.39589,0.47456,0.72994,0.31507,27.532
10.912,62.973,0.85826,0.39296,0.47456,0.72505,0.31507,27.273
10.92,62.973,0.8436,0.39003,0.47456,0.71037,0.32975,26.753
10.928,63.364,0.82991,0.3871,0.48043,0.70059,0.34442,26.104
10.936,64.342,0.8172,0.38514,0.48532,0.68004,0.36008,25.325
10.944,65.906,0.8045,0.38319,0.48532,0.66536,0.36497,24.416
10.952,68.644,0.79374,0.38221,0.49022,0.65558,0.37965,23.636
10.96,72.751,0.78299,0.38123,0.48532,0.64481,0.38454,22.727
10.968,77.836,0.77126,0.38025,0.48043,0.63992,0.3953,21.948
10.976,84.289,0.75953,0.37928,0.48043,0.63992,0.4002,21.429
10.984,91.33,0.7478,0.3783,0.48532,0.63503,0.40509,21.169
10.992,98.761,0.73607,0.37634,0.48532,0.63503,0.40509,21.169
11,106,0.72532,0.37537,0.49022,0.63503,0.40509,21.299
11.008,112.26,0.71554,0.37439,0.49022,0.62524,0.40509,21.818
11.016,117.34,0.70577,0.37341,0.49022,0.62524,0.40509,22.338
11.024,120.67,0.69599,0.37341,0.49022,0.62524,0.40509,22.987
11.032,122.03,0.68426,0.37439,0.48532,0.62524,0.40998,23.636
11.04,121.64,0.67351,0.37439,0.49022,0.62524,0.40998,24.026
11.048,119.69,0.66178,0.37537,0.49511,0.62524,0.40998,24.156
11.056,116.56,0.65005,0.37634,0.5,0.62524,0.40509,24.156
11.064,112.84,0.63734,0.37537,0.5,0.62524,0.40509,24.026
11.072,108.74,0.62463,0.37537,0.5,0.62524,0.40509,23.896
11.08,104.82,0.61095,0.37634,0.5,0.62035,0.40509,23.896
11.088,100.91,0.59824,0.37634,0.5,0.62035,0.40509,23.896
11.096,97.197,0.58553,0.37732,0.5,0.62035,0.40998,24.026
11.104,93.481,0.5738,0.3783,0.49511,0.62035,0.41487,24.156
11.112,90.157,0.56207,0.37928,0.49022,0.62035,0.40998,24.286
11.12,86.636,0.55132,0.38123,0.48532,0.61546,0.40509,24.545
11.128,83.116,0.53959,0.38416,0.48043,0.61546,0.4002,24.675
11.136,79.596,0.52786,0.38807,0.45988,0.63014,0.36986,24.545
11.144,76.467,0.51613,0.39492,0.41977,0.71526,0.31507,24.156
11.152,73.533,0.5044,0.40371,0.36008,0.88552,0.27006,23.766
11.16,71.186,0.49462,0.41642,0.31018,1.001,0.24951,23.377
11.168,69.231,0.48387,0.43304,0.28963,1.001,0.28963,22.857
11.176,67.862,0.47507,0.45357,0.34442,0.85519,0.41977,22.338
11.184,67.08,0.4653,0.47703,0.42955,0.55969,0.56458,21.818
11.192,66.884,0.45748,0.50147,0.47456,0.38943,0.62035,21.169
11.2,67.471,0.44966,0.52688,0.49511,0.37965,0.58513,20.649
11.208,68.449,0.44184,0.55132,0.50978,0.49022,0.50978,20.13
11.216,70.209,0.43402,0.5738,0.51957,0.56458,0.4501,19.481
11.224,72.164,0.42717,0.59433,0.52544,0.6047,0.41487,19.091
11.232,74.316,0.42033,0.61095,0.53033,0.62035,0.4002,18.571
11.24,76.662,0.41349,0.62366,0.52544,0.62524,0.3953,18.182
11.248,78.814,0.40762,0.63245,0.51957,0.63503,0.38454,17.922
11.256,80.965,0.40176,0.6393,0.51957,0.63503,0.38454,17.662
11.264,82.529,0.39589,0.64516,0.50978,0.63992,0.38454,17.532
11.272,83.703,0.39101,0.64809,0.50489,0.63992,0.37965,17.403
11.28,84.485,0.38612,0.65005,0.49511,0.64481,0.37965,17.403
11.288,84.681,0.38123,0.65005,0.48532,0.64481,0.37965,17.403
11.296,84.485,0.37537,0.64907,0.48532,0.64481,0.37476,17.273
11.304,83.898,0.37048,0.64614,0.48043,0.64971,0.36986,17.143
11.312,82.921,0.36559,0.64223,0.48043,0.65558,0.36497,17.013
11.32,81.943,0.3607,0.63636,0.48043,0.66047,0.36008,16.883
11.328,80.769,0.35679,0.62757,0.48043,0.66536,0.35519,16.753
11.336,79.4,0.35288,0.61681,0.48043,0.67515,0.35029,16.753
11.344,78.227,0.34897,0.60606,0.48043,0.68493,0.33953,17.013
11.352,76.858,0.34506,0.59531,0.48043,0.69472,0.32975,17.532
11.36,75.685,0.34115,0.58358,0.48043,0.71037,0.31996,18.701
11.368,74.511,0.33822,0.57283,0.48043,0.72505,0.31018,20.39
11.376,73.338,0.33431,0.56403,0.48043,0.72994,0.29941,22.338
11.384,72.164,0.33236,0.55621,0.48043,0.73483,0.29941,24.286
11.392,71.186,0.32942,0.55034,0.48043,0.73483,0.29941,25.714
11.4,70.209,0.32747,0.54643,0.48043,0.72994,0.31018,26.623
11.408,69.426,0.32551,0.5435,0.48043,0.72016,0.31996,26.753
11.416,68.644,0.32356,0.54252,0.48043,0.70548,0.33464,26.234
11.424,68.057,0.3216,0.54154,0.48043,0.68004,0.35519,25.195
11.432,67.471,0.32063,0.53959,0.48043,0.66047,0.36986,24.156
11.44,67.275,0.31867,0.53763,0.47456,0.64971,0.37965,23.377
11.448,67.275,0.31769,0.53568,0.47456,0.63992,0.38943,23.117
11.456,67.471,0.31574,0.5347,0.47456,0.63503,0.3953,23.377
11.464,67.862,0.31378,0.53275,0.47456,0.63014,0.4002,23.766
11.472,69.035,0.31281,0.53177,0.48043,0.62524,0.40509,24.156
11.48,70.6,0.31085,0.52884,0.48043,0.62524,0.40509,24.545
11.488,73.142,0.30987,0.5259,0.48043,0.62035,0.40509,24.545
11.496,76.271,0.30792,0.52199,0.48043,0.62035,0.40998,24.286
11.504,80.183,0.30694,0.51808,0.48043,0.62035,0.40509,23.896
11.512,84.485,0.30401,0.51515,0.48532,0.62524,0.40509,23.247
11.52,89.179,0.30205,0.51124,0.48532,0.62524,0.40509,22.857
11.528,93.872,0.29814,0.50635,0.48532,0.62524,0.40509,22.597
11.536,98.175,0.29423,0.50244,0.49022,0.63014,0.4002,22.468
11.544,101.69,0.28935,0.49853,0.49511,0.63503,0.4002,22.597
11.552,104.24,0.28348,0.4956,0.5,0.63992,0.4002,22.857
11.56,105.8,0.27761,0.49169,0.50489,0.63503,0.4002,23.117
11.568,105.8,0.27175,0.4868,0.50978,0.63503,0.4002,23.506
11.576,104.82,0.26588,0.47703,0.50489,0.63992,0.4002,23.766
11.584,102.48,0.26002,0.46432,0.5,0.63503,0.40509,24.026
11.592,99.348,0.25415,0.45552,0.5,0.63014,0.40509,24.156
11.6,95.437,0.24829,0.44868,0.49022,0.63014,0.40509,24.286
11.608,91.134,0.24242,0.44379,0.48532,0.63014,0.4002,24.156
11.616,86.636,0.23656,0.43891,0.48043,0.63503,0.37965,24.026
11.624,82.138,0.22972,0.435,0.44521,0.67515,0.33464,23.636
11.632,77.836,0.22287,0.43109,0.38943,0.7955,0.27984,23.117
11.64,73.729,0.21701,0.42913,0.32975,0.98043,0.24462,22.468
11.648,70.209,0.21114,0.42717,0.28474,1.001,0.24951,21.948
11.656,67.275,0.20528,0.4262,0.27984,1.001,0.33464,21.429
11.664,64.928,0.20039,0.42717,0.37476,0.72994,0.48532,20.909
11.672,63.168,0.1955,0.42815,0.44031,0.46477,0.6047,20.519
11.68,61.995,0.19159,0.43206,0.46967,0.36986,0.62524,20
11.688,61.604,0.18768,0.43695,0.48532,0.42466,0.55969,19.61
11.696,61.604,0.18377,0.44379,0.49511,0.51957,0.48532,19.221
11.704,62.19,0.18084,0.45357,0.50489,0.58513,0.43542,18.961
11.712,63.168,0.17791,0.46432,0.50489,0.61057,0.40998,18.701
11.72,64.537,0.17498,0.47507,0.50978,0.62035,0.3953,18.571
11.728,66.102,0.17302,0.48778,0.50978,0.62524,0.38943,18.442
11.736,67.862,0.17107,0.49853,0.50978,0.63503,0.38454,18.312
11.744,69.622,0.16911,0.50831,0.50978,0.63503,0.38454,18.182
11.752,71.186,0.16716,0.51515,0.50489,0.63503,0.38454,17.922
11.76,72.751,0.1652,0.52297,0.50489,0.63992,0.38454,17.792
11.768,73.924,0.16422,0.52884,0.50489,0.63014,0.38454,17.662
11.776,75.098,0.16325,0.53372,0.50489,0.63014,0.38454,17.403
11.784,75.685,0.16325,0.53666,0.50489,0.63503,0.37965,17.273
11.792,76.076,0.16227,0.53666,0.50978,0.63503,0.37476,17.143
11.8,76.271,0.16227,0.5347,0.50978,0.64481,0.36986,17.143
11.808,76.076,0.16227,0.52981,0.50489,0.65558,0.36008,17.143
11.816,75.88,0.16227,0.52297,0.5,0.66536,0.35519,17.273
11.824,75.489,0.16325,0.51417,0.5,0.67515,0.35029,17.532
11.832,74.902,0.16325,0.50538,0.5,0.68493,0.33464,18.312
11.84,74.12,0.16422,0.4956,0.49511,0.70059,0.31507,19.74
11.848,73.338,0.1652,0.4868,0.48043,0.72016,0.31018,21.818
11.856,72.555,0.16618,0.47801,0.47456,0.72994,0.29941,24.156
11.864,71.578,0.16618,0.47019,0.46967,0.7407,0.29452,26.104
11.872,70.795,0.16618,0.46237,0.46477,0.7456,0.29941,27.403
11.88,70.013,0.16618,0.4565,0.45988,0.7456,0.30528,27.662
11.888,69.231,0.16618,0.45259,0.45988,0.72994,0.31507,27.273
11.896,68.449,0.16716,0.44966,0.45988,0.71526,0.33464,26.364
11.904,67.862,0.16716,0.44868,0.46477,0.70059,0.35029,25.325
11.912,67.471,0.16813,0.4477,0.46477,0.68004,0.36497,24.286
11.92,67.275,0.16813,0.4477,0.46477,0.66047,0.37965,23.766
11.928,67.471,0.16911,0.4477,0.46477,0.63992,0.3953,23.636
11.936,68.057,0.17009,0.4477,0.46477,0.62524,0.40509,23.766
11.944,69.622,0.17009,0.4477,0.46967,0.62035,0.40998,23.896
11.952,71.969,0.17107,0.44673,0.47456,0.61546,0.41487,24.156
11.96,75.098,0.17107,0.44575,0.48043,0.61546,0.41487,24.156
11.968,79.4,0.17204,0.44477,0.48043,0.61546,0.41487,24.026
11.976,84.289,0.17204,0.44282,0.48043,0.61546,0.41487,23.636
11.984,89.765,0.17204,0.44086,0.47456,0.62035,0.41487,23.117
11.992,95.437,0.17107,0.43891,0.48043,0.62035,0.40509,22.727
12,100.91,0.17009,0.43793,0.48043,0.62035,0.4002,22.597
12.008,105.61,0.16911,0.43597,0.48043,0.62524,0.4002,22.597
12.016,109.52,0.16716,0.435,0.48043,0.62524,0.4002,22.727
12.024,111.86,0.16422,0.43304,0.48532,0.63014,0.4002,22.987
12.032,113.04,0.16129,0.43109,0.49022,0.63014,0.4002,23.247
12.04,112.65,0.15738,0.42913,0.49511,0.63014,0.4002,23.506
12.048,111.08,0.15347,0.42717,0.49511,0.62524,0.4002,23.636
12.056,108.54,0.14956,0.42522,0.49022,0.62524,0.4002,23.636
12.064,105.22,0.14565,0.42326,0.48043,0.62524,0.40509,23.766
12.072,101.5,0.14272,0.42033,0.47456,0.62524,0.40509,23.766
12.08,97.393,0.13881,0.4174,0.47456,0.62524,0.40998,23.896
12.088,93.286,0.1349,0.41544,0.46967,0.62035,0.41487,23.896
12.096,88.983,0.13099,0.41251,0.46967,0.62035,0.41487,23.896
12.104,84.681,0.12708,0.41056,0.47456,0.62035,0.41487,23.636
12.112,80.378,0.12317,0.40958,0.47456,0.62035,0.41977,23.377
12.12,76.467,0.12023,0.4086,0.47456,0.61546,0.41977,22.857
12.128,72.947,0.1173,0.40958,0.47456,0.61546,0.42466,22.338
12.136,70.013,0.11437,0.41153,0.47456,0.61546,0.42466,21.818
12.144,67.471,0.11241,0.41544,0.47456,0.61546,0.42466,21.299
12.152,65.711,0.11046,0.42033,0.47456,0.61546,0.42466,20.779
12.16,64.537,0.1085,0.42815,0.48043,0.62035,0.41977,20.26
12.168,64.146,0.10753,0.43891,0.48532,0.62035,0.41977,19.74
12.176,64.146,0.10655,0.45259,0.48532,0.62524,0.41977,19.221
12.184,64.928,0.10557,0.46725,0.48532,0.62524,0.41487,18.961
12.192,66.102,0.10557,0.48387,0.48532,0.63014,0.41487,18.571
12.2,67.666,0.10557,0.50049,0.48532,0.63014,0.40998,18.312
12.208,69.426,0.10557,0.51613,0.48532,0.63503,0.40509,18.052
12.216,71.578,0.10557,0.52981,0.48043,0.63503,0.40509,17.792
12.224,73.533,0.10655,0.54252,0.47456,0.63992,0.3953,17.532
12.232,75.293,0.10753,0.55327,0.45499,0.65558,0.36497,17.273
12.24,77.054,0.1085,0.56109,0.41487,0.71037,0.30528,17.143
12.248,78.422,0.11046,0.56598,0.36008,0.8454,0.2593,16.883
12.256,79.596,0.11144,0.57087,0.30528,1.001,0.23973,16.623
12.264,80.183,0.11339,0.5738,0.28474,1.001,0.27006,16.494
12.272,80.378,0.11437,0.57576,0.31996,0.92074,0.37965,16.234
12.28,80.183,0.11632,0.57478,0.4002,0.61546,0.54012,15.974
12.288,79.791,0.11828,0.57283,0.45988,0.36986,0.64481,15.844
12.296,79.009,0.11926,0.56696,0.47456,0.32485,0.65558,15.714
12.304,78.227,0.12121,0.56012,0.48043,0.41487,0.55479,15.584
12.312,77.054,0.12317,0.55132,0.48043,0.51957,0.47456,15.714
12.32,76.076,0.1261,0.54057,0.48043,0.58513,0.41977,15.844
12.328,74.902,0.12903,0.52981,0.48043,0.61546,0.4002,16.104
12.336,73.729,0.13196,0.51808,0.48043,0.62524,0.38454,16.494
12.344,72.751,0.1349,0.50929,0.48532,0.62524,0.38454,17.143
12.352,71.578,0.13881,0.50147,0.49022,0.63014,0.38454,17.662
12.36,70.404,0.14272,0.49462,0.49511,0.63014,0.38454,18.312
12.368,69.426,0.14663,0.48876,0.49022,0.62524,0.38454,18.831
12.376,68.449,0.15054,0.48583,0.48532,0.62524,0.38454,19.091
12.384,67.471,0.15445,0.48387,0.48532,0.62524,0.38943,19.221
12.392,66.493,0.15836,0.48387,0.48532,0.63014,0.38454,19.221
12.4,65.711,0.16325,0.48387,0.49022,0.63503,0.38454,19.221
12.408,64.733,0.16813,0.48289,0.49022,0.63992,0.37965,19.221
12.416,64.146,0.174,0.48192,0.49022,0.64481,0.37476,19.351
12.424,63.559,0.17986,0.48094,0.48043,0.65558,0.36497,19.87
12.432,62.973,0.18671,0.47996,0.47456,0.66536,0.35519,20.909
12.44,62.582,0.19159,0.47898,0.46477,0.67515,0.33953,22.208
12.448,62.19,0.19746,0.47703,0.45499,0.68004,0.33464,23.506
12.456,61.995,0.20235,0.47507,0.44031,0.68982,0.31996,24.675
12.464,61.799,0.20821,0.47312,0.43542,0.70059,0.31018,25.714
12.472,61.604,0.21408,0.47019,0.43542,0.71037,0.30528,26.494
12.48,61.408,0.21994,0.46628,0.43542,0.71526,0.29941,27.013
12.488,61.408,0.22678,0.46237,0.43542,0.72016,0.29941,27.143
12.496,61.604,0.23363,0.45748,0.43542,0.70548,0.31018,27.013
12.504,61.799,0.24047,0.45357,0.43542,0.70059,0.31996,26.494
12.512,61.995,0.24829,0.44868,0.44521,0.68982,0.33464,25.714
12.52,62.582,0.25611,0.44477,0.45499,0.67515,0.34442,24.545
12.528,63.168,0.26393,0.44086,0.45988,0.65558,0.36008,23.247
12.536,64.537,0.27077,0.43695,0.45988,0.63503,0.37965,22.208
12.544,66.688,0.27859,0.43402,0.45988,0.62035,0.3953,21.429
12.552,70.209,0.28543,0.43206,0.45988,0.61546,0.4002,21.039
12.56,74.707,0.29228,0.42913,0.45988,0.6047,0.40509,21.039
12.568,80.769,0.29912,0.42522,0.46477,0.59491,0.40998,21.688
12.576,87.614,0.30596,0.42131,0.46967,0.59491,0.40998,22.468
12.584,95.241,0.31281,0.4174,0.46967,0.5998,0.41487,23.247
12.592,103.06,0.31965,0.41251,0.46967,0.5998,0.41487,24.026
12.6,110.3,0.32551,0.40762,0.46967,0.5998,0.41487,24.156
12.608,116.56,0.33236,0.40371,0.47456,0.5998,0.41487,24.156
12.616,121.06,0.33822,0.39883,0.47456,0.61057,0.40998,23.766
12.624,123.6,0.34409,0.39589,0.46967,0.61546,0.40509,23.117
12.632,123.99,0.35093,0.39198,0.46477,0.61546,0.40509,22.468
12.64,122.43,0.35679,0.39003,0.46477,0.62035,0.4002,21.948
12.648,119.49,0.36364,0.38807,0.46477,0.62035,0.4002,21.558
12.656,115.78,0.37048,0.38612,0.45988,0.62035,0.4002,21.429
12.664,111.28,0.37732,0.38319,0.45988,0.62524,0.4002,21.688
12.672,106.78,0.38514,0.38123,0.45988,0.63503,0.3953,22.208
12.68,102.28,0.39394,0.3783,0.45988,0.63503,0.3953,22.857
12.688,97.979,0.40274,0.37439,0.45499,0.62524,0.4002,23.506
12.696,93.872,0.41056,0.37243,0.44521,0.62524,0.40509,23.896
12.704,89.765,0.41935,0.3695,0.44521,0.62035,0.40509,24.026
12.712,85.854,0.42717,0.36852,0.44031,0.62035,0.40509,23.766
12.72,81.943,0.43597,0.36755,0.44031,0.62524,0.4002,23.117
12.728,78.227,0.44575,0.36852,0.44521,0.62524,0.4002,22.208
12.736,74.511,0.45552,0.37048,0.4501,0.62524,0.3953,21.039
12.744,71.382,0.46725,0.37439,0.45499,0.62524,0.3953,20
12.752,68.84,0.47801,0.38123,0.45499,0.62524,0.3953,19.221
12.76,66.688,0.48876,0.39198,0.45499,0.62035,0.4002,18.442
12.768,65.124,0.49951,0.40665,0.45499,0.62035,0.40998,17.922
12.776,64.342,0.50929,0.42424,0.45988,0.62035,0.40998,17.532
12.784,64.146,0.52004,0.44477,0.46477,0.62524,0.40509,17.273
12.792,64.537,0.53177,0.46725,0.46967,0.63014,0.4002,17.143
12.8,65.515,0.54448,0.48974,0.47456,0.63503,0.4002,17.143
12.808,67.08,0.55914,0.51124,0.48043,0.63503,0.4002,17.013
12.816,69.035,0.5738,0.53079,0.48043,0.62524,0.4002,16.753
12.824,71.382,0.58944,0.54741,0.47456,0.63014,0.38454,16.494
12.832,73.729,0.60606,0.56207,0.44521,0.67515,0.33464,15.974
12.84,76.076,0.62268,0.57087,0.38454,0.78571,0.27495,15.455
12.848,78.227,0.64027,0.57771,0.32975,0.96086,0.24462,14.805
12.856,80.183,0.65591,0.5826,0.29941,1.001,0.27984,14.286
12.864,81.747,0.67058,0.58553,0.32485,0.9501,0.38943,13.766
12.872,82.921,0.68524,0.58749,0.40509,0.65558,0.5499,13.377
12.88,83.507,0.6999,0.58651,0.48043,0.37965,0.67515,12.987
12.888,83.703,0.71554,0.58456,0.50489,0.28963,0.70059,12.857
12.896,83.507,0.73216,0.58065,0.5,0.36497,0.6047,12.727
12.904,82.921,0.74976,0.57478,0.49511,0.48532,0.50489,12.987
12.912,82.138,0.76735,0.56794,0.49511,0.55969,0.44031,13.506
12.92,80.965,0.78299,0.55914,0.49022,0.59491,0.40998,14.416
12.928,79.596,0.79961,0.54839,0.49022,0.61057,0.3953,15.455
12.936,78.227,0.81525,0.53861,0.49022,0.61546,0.38943,16.883
12.944,76.662,0.83089,0.52786,0.49511,0.62035,0.38454,18.052
12.952,75.293,0.84751,0.51711,0.49511,0.62524,0.37965,18.961
12.96,73.924,0.8651,0.50635,0.49511,0.62524,0.37965,19.221
12.968,72.555,0.88368,0.49756,0.49511,0.62524,0.37965,19.221
12.976,71.382,0.90225,0.48974,0.5,0.63503,0.37965,18.831
12.984,70.404,0.92278,0.48289,0.50489,0.63992,0.37476,18.442
12.992,69.231,0.94428,0.47801,0.50978,0.63992,0.37476,18.052
13,68.253,0.96579,0.47605,0.50978,0.63992,0.37476,17.922
13.008,67.471,0.98827,0.4741,0.50489,0.64481,0.37476,18.442
13.016,66.688,0.99413,0.4741,0.49511,0.64481,0.37476,19.351
13.024,65.906,1,0.47312,0.49022,0.65558,0.36986,20.909
13.032,65.319,1,0.47312,0.48532,0.66536,0.36008,22.597
13.04,64.928,1,0.47312,0.48043,0.68004,0.35029,24.416
13.048,64.342,1,0.47312,0.47456,0.70059,0.33464,26.104
13.056,64.146,1,0.47214,0.46967,0.71037,0.32485,27.662
13.064,63.755,1,0.47019,0.46477,0.72505,0.31996,28.961
13.072,63.755,1,0.46823,0.46477,0.72994,0.31507,30
13.08,63.559,1,0.46628,0.45988,0.73483,0.31507,30.519
13.088,63.755,1,0.46334,0.45988,0.73483,0.31996,30.39
13.096,63.95,1,0.45943,0.46477,0.72994,0.32975,29.351
13.104,64.146,1,0.45552,0.46967,0.72016,0.33953,28.052
13.112,64.537,1,0.45161,0.47456,0.71037,0.35029,26.364
13.12,65.124,1,0.44673,0.48043,0.69472,0.36008,24.935
13.128,65.711,1,0.44282,0.49022,0.68004,0.37476,24.026
13.136,66.688,1,0.43988,0.49511,0.66536,0.38454,23.636
13.144,67.862,1,0.43695,0.50489,0.65558,0.3953,23.766
13.152,69.818,1,0.43402,0.50489,0.64481,0.40509,24.156
13.16,72.751,1,0.43109,0.50978,0.63503,0.41487,24.545
13.168,76.467,1,0.4262,0.50489,0.62524,0.41977,24.935
13.176,81.356,1,0.42131,0.5,0.62524,0.41977,25.065
13.184,86.832,1,0.41642,0.5,0.62035,0.41977,24.935
13.192,92.894,1,0.41153,0.49511,0.62035,0.41977,24.545
13.2,99.153,1,0.40665,0.49511,0.62035,0.41977,24.156
13.208,104.82,1,0.40274,0.49511,0.62035,0.41977,23.636
13.216,109.91,1,0.39883,0.49511,0.62035,0.42466,23.247
13.224,113.82,1,0.39492,0.49511,0.62035,0.42466,22.857
13.232,116.36,1,0.39101,0.49511,0.61546,0.42466,22.597
13.24,116.95,1,0.38905,0.49511,0.61057,0.42466,22.597
13.248,115.97,1,0.38612,0.49511,0.61057,0.42955,22.597
13.256,113.82,1,0.38319,0.5,0.61057,0.42955,22.727
13.264,110.5,1,0.38123,0.50489,0.61546,0.42466,22.987
13.272,106.58,1,0.3783,0.50978,0.61546,0.42466,23.247
13.28,102.28,1,0.37537,0.51468,0.61546,0.42466,23.506
13.288,97.784,1,0.37243,0.51468,0.61546,0.42466,23.636
13.296,93.286,1,0.37048,0.51468,0.61546,0.42466,23.766
13.304,88.788,1,0.36755,0.51957,0.62035,0.42466,23.896
13.312,84.289,1,0.36657,0.51957,0.61546,0.42466,24.026
13.32,79.987,1,0.36461,0.50978,0.61546,0.42466,24.026
13.328,76.076,1,0.36364,0.5,0.61546,0.42466,23.896
13.336,72.555,1,0.36266,0.5,0.61057,0.42466,23.636
13.344,69.426,1,0.36461,0.5,0.61057,0.42466,23.506
13.352,66.884,1,0.36755,0.5,0.61057,0.42466,23.377
13.36,64.928,1,0.37341,0.50489,0.61057,0.42466,23.117
13.368,63.755,0.98827,0.38221,0.50489,0.61546,0.42466,22.857
13.376,63.168,0.97556,0.39394,0.50489,0.61546,0.41977,22.338
13.384,63.168,0.95992,0.40762,0.50489,0.62035,0.41977,21.818
13.392,63.755,0.9433,0.42522,0.5,0.62035,0.41487,21.039
13.4,64.928,0.92864,0.44282,0.49511,0.62035,0.41487,20.39
13.408,66.493,0.91398,0.46139,0.49511,0.62524,0.41487,19.61
13.416,68.449,0.89932,0.47801,0.49511,0.62524,0.40998,18.961
13.424,70.795,0.88563,0.49365,0.49511,0.63014,0.40509,18.442
13.432,73.142,0.87195,0.50733,0.49511,0.63503,0.3953,18.052
13.44,75.293,0.85826,0.51711,0.47456,0.66047,0.36008,17.792
13.448,77.445,0.8436,0.52493,0.43542,0.7407,0.29452,17.662
13.456,79.205,0.82991,0.53079,0.37476,0.8953,0.24951,17.792
13.464,80.378,0.81623,0.53568,0.32975,1.001,0.23483,17.922
13.472,81.356,0.80254,0.53959,0.31018,1.001,0.27984,18.052
13.48,81.943,0.78983,0.54057,0.36008,0.87084,0.40509,18.052
13.488,81.943,0.77615,0.53959,0.43542,0.55479,0.55479,18.052
13.496,81.552,0.76442,0.53666,0.48043,0.36008,0.63503,17.792
13.504,80.965,0.75269,0.53079,0.49511,0.33953,0.6047,17.662
13.512,79.987,0.74194,0.52297,0.50489,0.46967,0.53033,17.403
13.52,79.009,0.73118,0.51222,0.50978,0.56458,0.45988,17.273
13.528,77.836,0.71945,0.50147,0.51957,0.61057,0.41977,17.143
13.536,76.662,0.7087,0.49071,0.51468,0.62524,0.40509,17.143
13.544,75.489,0.69697,0.48192,0.50978,0.63503,0.4002,17.403
13.552,74.316,0.68622,0.47116,0.50978,0.63503,0.4002,17.792
13.56,73.142,0.67546,0.46139,0.50489,0.63503,0.3953,18.442
13.568,71.969,0.66569,0.45357,0.50489,0.63503,0.38943,19.091
13.576,70.991,0.65689,0.4477,0.50489,0.63992,0.38454,19.87
13.584,69.818,0.64712,0.44282,0.50489,0.63992,0.37965,20.519
13.592,68.84,0.63832,0.44086,0.50489,0.63992,0.37965,20.909
13.6,68.057,0.62952,0.44086,0.50489,0.64481,0.37476,21.039
13.608,67.08,0.62072,0.43988,0.50489,0.64481,0.36986,21.039
13.616,66.297,0.6129,0.43988,0.50978,0.65558,0.36497,20.909
13.624,65.711,0.60411,0.44282,0.50978,0.65558,0.36497,20.909
13.632,65.124,0.59629,0.44673,0.50978,0.65558,0.36497,20.779
13.64,64.537,0.58944,0.44868,0.5,0.66047,0.36008,21.039
13.648,64.146,0.58162,0.44966,0.49511,0.67025,0.35029,21.429
13.656,63.755,0.57576,0.44868,0.48532,0.68004,0.33953,22.208
13.664,63.364,0.56891,0.4477,0.48043,0.68982,0.32975,23.247
13.672,63.168,0.56403,0.44673,0.47456,0.70548,0.31996,24.416
13.68,62.973,0.55816,0.44477,0.46477,0.72016,0.31507,25.584
13.688,62.973,0.5523,0.44282,0.46477,0.72505,0.31018,26.494
13.696,62.777,0.54545,0.44086,0.45988,0.72994,0.31018,27.273
13.704,62.973,0.53959,0.43695,0.45988,0.72994,0.31018,27.662
13.712,63.168,0.53275,0.43304,0.45988,0.72505,0.31996,27.662
13.72,63.364,0.52688,0.42815,0.46477,0.71037,0.33464,27.403
13.728,63.95,0.52004,0.42424,0.46477,0.69472,0.35029,26.623
13.736,64.733,0.51417,0.42033,0.47456,0.68004,0.36008,25.714
13.744,65.906,0.50733,0.41642,0.48043,0.67025,0.37476,24.416
13.752,68.057,0.50049,0.41251,0.48532,0.66047,0.37965,23.377
13.76,70.991,0.49365,0.4086,0.48532,0.65558,0.38454,22.597
13.768,75.098,0.48583,0.40567,0.49022,0.64481,0.38943,22.208
13.776,80.183,0.47801,0.40371,0.49022,0.63992,0.3953,21.948
13.784,86.245,0.46921,0.40078,0.49511,0.63503,0.4002,21.948
13.792,93.09,0.45943,0.39883,0.48532,0.63014,0.4002,22.078
13.8,100.33,0.44966,0.39589,0.48532,0.63014,0.40509,22.208
13.808,107.17,0.43988,0.39296,0.48043,0.63014,0.40509,22.468
13.816,113.23,0.43109,0.39003,0.47456,0.63503,0.40509,22.597
13.824,117.93,0.42131,0.38612,0.47456,0.63503,0.40509,22.727
13.832,121.06,0.41251,0.38319,0.47456,0.63503,0.4002,22.727
13.84,122.03,0.40274,0.38123,0.47456,0.63992,0.4002,22.727
13.848,121.45,0.39296,0.37928,0.48043,0.63992,0.4002,22.727
13.856,119.49,0.38319,0.37732,0.48532,0.63503,0.4002,22.597
13.864,116.36,0.37341,0.37439,0.48532,0.63503,0.4002,22.597
13.872,112.45,0.36266,0.37146,0.48532,0.63503,0.40509,22.597
13.88,108.34,0.35288,0.36852,0.48532,0.63503,0.40509,22.727
13.888,104.04,0.34409,0.36461,0.48532,0.63503,0.40998,22.987
13.896,99.739,0.33431,0.36168,0.48532,0.63503,0.40998,23.247
13.904,95.437,0.32551,0.35973,0.49022,0.63014,0.40509,23.506
13.912,91.525,0.31574,0.35679,0.49511,0.62524,0.40509,23.636
13.92,87.419,0.30596,0.35582,0.5,0.62524,0.40998,23.766
13.928,83.507,0.29717,0.35582,0.50489,0.62524,0.40998,23.766
13.936,79.791,0.28739,0.35679,0.50489,0.62524,0.40509,23.377
13.944,76.076,0.27859,0.35875,0.5,0.62035,0.3953,22.857
13.952,72.947,0.26979,0.36364,0.46477,0.65558,0.35029,22.338
13.96,70.209,0.261,0.37341,0.40509,0.76517,0.29452,21.948
13.968,68.057,0.25318,0.3871,0.33953,0.96086,0.24951,21.429
13.976,66.493,0.24633,0.40469,0.28474,1.001,0.23483,21.039
13.984,65.711,0.23949,0.4262,0.27984,1.001,0.30528,20.779
13.992,65.515,0.2346,0.45259,0.36497,0.77984,0.45499,20.26
14,65.906,0.22874,0.48094,0.43542,0.5,0.58023,19.87
14.008,67.08,0.22385,0.50929,0.46477,0.38943,0.61057,19.481
14.016,68.644,0.21994,0.53861,0.48043,0.42955,0.55969,19.091
14.024,70.6,0.21603,0.56598,0.49511,0.51957,0.48532,18.701
14.032,72.947,0.21212,0.58944,0.5,0.59491,0.43542,18.442
14.04,75.293,0.21017,0.60704,0.5,0.62524,0.40509,18.182
14.048,77.64,0.20723,0.62072,0.5,0.63992,0.3953,18.052
14.056,79.791,0.20528,0.63245,0.5,0.64481,0.38454,17.922
14.064,81.552,0.20332,0.64223,0.5,0.64971,0.37965,17.792
14.072,82.921,0.20137,0.64907,0.5,0.65558,0.37476,17.792
14.08,83.898,0.20039,0.65396,0.50489,0.65558,0.37476,17.662
14.088,84.289,0.19844,0.65494,0.50489,0.66047,0.37476,17.662
14.096,84.289,0.19648,0.65396,0.50978,0.66047,0.37476,17.662
14.104,83.898,0.1955,0.65005,0.50489,0.66047,0.37476,17.532
14.112,83.116,0.19453,0.64418,0.5,0.66047,0.37476,17.403
14.12,82.138,0.19355,0.63636,0.49511,0.66047,0.37476,17.143
14.128,80.965,0.19355,0.62561,0.48532,0.66047,0.37476,17.013
14.136,79.791,0.19355,0.61388,0.48043,0.66047,0.36497,16.883
14.144,78.618,0.19355,0.60117,0.48043,0.67025,0.36008,16.883
14.152,77.249,0.19355,0.58749,0.48043,0.68004,0.34442,17.273
14.16,76.076,0.19355,0.57283,0.47456,0.69472,0.32975,17.922
14.168,74.902,0.19257,0.56012,0.46477,0.71526,0.31507,19.221
14.176,73.729,0.19257,0.54839,0.46477,0.72505,0.30528,21.169
14.184,72.751,0.19257,0.53959,0.45988,0.72994,0.30528,23.636
14.192,71.578,0.19159,0.53177,0.45499,0.73483,0.30528,25.714
14.2,70.6,0.19159,0.52688,0.45499,0.73483,0.30528,27.273
14.208,69.622,0.19159,0.52297,0.45499,0.73483,0.31018,28.052
14.216,68.84,0.19159,0.52004,0.45988,0.72994,0.31018,27.792
14.224,68.057,0.19159,0.51808,0.45988,0.72505,0.31996,27.013
14.232,67.666,0.19257,0.51711,0.45988,0.70548,0.33464,25.714
14.24,67.275,0.19355,0.51613,0.45988,0.68982,0.35029,24.675
14.248,67.275,0.19453,0.51417,0.46967,0.67025,0.36497,24.026
14.256,67.275,0.1955,0.5132,0.47456,0.65558,0.37965,23.766
14.264,67.862,0.19648,0.51124,0.48043,0.64481,0.38943,23.766
14.272,68.84,0.19746,0.51026,0.47456,0.63503,0.4002,23.896
14.28,70.6,0.19746,0.50733,0.46967,0.62524,0.40998,24.026
14.288,73.338,0.19746,0.5044,0.46477,0.62035,0.41487,24.026
14.296,76.858,0.19746,0.50049,0.46477,0.61546,0.41487,23.896
14.304,81.356,0.19648,0.49658,0.46967,0.61546,0.41977,23.377
14.312,86.441,0.19648,0.49169,0.47456,0.61546,0.41977,22.987
14.32,91.917,0.1955,0.4868,0.47456,0.61546,0.41977,22.727
14.328,97.393,0.19355,0.48192,0.47456,0.61546,0.41487,22.597
14.336,102.67,0.19159,0.47801,0.47456,0.62035,0.40509,22.727
14.344,106.98,0.18866,0.47507,0.47456,0.62524,0.40509,22.987
14.352,110.3,0.18573,0.47116,0.47456,0.62524,0.40509,23.247
14.36,112.26,0.1828,0.46725,0.48043,0.62524,0.4002,23.377
14.368,112.84,0.17986,0.46237,0.48532,0.63014,0.4002,23.377
14.376,112.06,0.17693,0.4565,0.49022,0.63014,0.4002,23.377
14.384,109.91,0.174,0.45259,0.49511,0.63014,0.4002,23.377
14.392,106.78,0.17009,0.44868,0.49511,0.62524,0.40509,23.377
14.4,103.06,0.1652,0.44477,0.49511,0.62524,0.40509,23.377
14.408,98.761,0.16031,0.44086,0.49511,0.62524,0.40509,23.377
14.416,94.068,0.15543,0.43597,0.49511,0.62524,0.40509,23.506
14.424,89.57,0.14956,0.43206,0.49511,0.62035,0.40998,23.506
14.432,84.876,0.14467,0.42717,0.48532,0.62524,0.40509,23.506
14.44,80.378,0.13881,0.42326,0.48043,0.63014,0.40509,23.247
14.448,76.271,0.13294,0.42033,0.48043,0.62524,0.40509,22.857
14.456,72.555,0.12805,0.41838,0.48532,0.62524,0.40509,22.468
14.464,69.426,0.12317,0.4174,0.48532,0.62035,0.40509,22.078
14.472,66.884,0.11828,0.41935,0.48043,0.62035,0.40509,21.558
14.48,65.124,0.11437,0.42326,0.48043,0.62035,0.40509,21.039
14.488,63.95,0.11046,0.43109,0.48043,0.62035,0.40998,20.649
14.496,63.364,0.10753,0.44282,0.48043,0.62524,0.41487,20.13
14.504,63.559,0.10459,0.45748,0.48043,0.62524,0.41487,19.74
14.512,64.342,0.10264,0.4741,0.48043,0.62524,0.41487,19.351
14.52,65.515,0.10068,0.49267,0.48043,0.63014,0.40998,18.961
14.528,67.08,0.098729,0.51222,0.48043,0.63014,0.40509,18.701
14.536,68.84,0.097752,0.52884,0.48532,0.63014,0.40509,18.442
14.544,70.795,0.096774,0.5435,0.48532,0.63503,0.40509,18.312
14.552,72.751,0.096774,0.55914,0.49022,0.63503,0.40509,18.182
14.56,74.511,0.096774,0.57478,0.49022,0.63503,0.40509,18.052
14.568,76.271,0.097752,0.58847,0.49022,0.63503,0.40509,18.052
14.576,77.64,0.098729,0.59922,0.49022,0.63503,0.40509,17.922
14.584,78.814,0.10068,0.60704,0.48532,0.62524,0.40509,17.922
14.592,79.596,0.10166,0.61193,0.48043,0.62524,0.40998,17.792
14.6,79.791,0.10362,0.6129,0.48043,0.62524,0.40998,17.662
14.608,79.791,0.10557,0.61095,0.47456,0.62524,0.40998,17.532
14.616,79.596,0.10655,0.60508,0.47456,0.62524,0.40509,17.403
14.624,79.205,0.1085,0.59629,0.47456,0.63503,0.40509,17.143
14.632,78.422,0.11046,0.58651,0.47456,0.63992,0.4002,17.013
14.64,77.64,0.11241,0.57478,0.48043,0.63992,0.4002,17.013
14.648,76.662,0.11437,0.56109,0.48043,0.63992,0.4002,17.013
14.656,75.88,0.11632,0.54643,0.48043,0.63992,0.4002,17.273
14.664,74.902,0.11828,0.53177,0.48043,0.63992,0.4002,17.662
14.672,73.729,0.12023,0.51808,0.48043,0.63992,0.3953,18.312
14.68,72.751,0.12121,0.50635,0.48043,0.64481,0.3953,19.221
14.688,71.773,0.12317,0.49658,0.48043,0.64481,0.3953,19.87
14.696,70.795,0.12512,0.48974,0.48043,0.64971,0.3953,20.649
14.704,69.818,0.12708,0.48583,0.48532,0.64971,0.3953,21.039
14.712,68.84,0.13001,0.48387,0.48532,0.64481,0.4002,21.299
14.72,68.057,0.13196,0.48289,0.49511,0.64481,0.4002,21.299
14.728,67.275,0.1349,0.48289,0.49022,0.64481,0.4002,21.039
14.736,66.493,0.13783,0.48387,0.48532,0.63992,0.40509,20.649
14.744,65.906,0.13978,0.48387,0.47456,0.63992,0.3953,20.13
14.752,65.319,0.14272,0.48485,0.44031,0.66536,0.35029,19.74
14.76,64.733,0.14467,0.48485,0.37965,0.76027,0.29452,19.351
14.768,64.342,0.14663,0.48485,0.32485,0.93542,0.2544,19.351
14.776,63.95,0.14858,0.48387,0.27984,1.001,0.24951,19.481
14.784,63.559,0.15054,0.48289,0.27006,1.001,0.31507,19.87
14.792,63.364,0.15249,0.48094,0.34442,0.80039,0.45988,20.39
14.8,63.168,0.15445,0.47801,0.42466,0.5,0.5998,20.909
14.808,62.973,0.1564,0.4741,0.45988,0.35029,0.64481,21.429
14.816,62.973,0.15836,0.47019,0.47456,0.38454,0.59491,21.818
14.824,62.973,0.15934,0.46628,0.48043,0.48532,0.51957,22.078
14.832,62.973,0.16129,0.46237,0.48532,0.56458,0.4501,22.078
14.84,62.973,0.16227,0.45943,0.48532,0.5998,0.41487,21.818
14.848,63.168,0.16325,0.45552,0.48532,0.61057,0.3953,21.558
14.856,63.168,0.16422,0.45259,0.48532,0.62035,0.38943,21.169
14.864,63.364,0.16422,0.44966,0.48532,0.62035,0.38943,20.909
14.872,63.559,0.16422,0.44673,0.49022,0.62035,0.38454,20.779
14.88,63.559,0.1652,0.44379,0.49511,0.62035,0.38454,20.649
14.888,63.559,0.16422,0.44086,0.49022,0.62035,0.38454,20.649
14.896,63.559,0.16422,0.43793,0.48532,0.61546,0.38454,20.649
14.904,63.559,0.16325,0.43402,0.48043,0.61546,0.38454,20.909
14.912,63.559,0.16325,0.43011,0.48043,0.61546,0.38943,21.039
14.92,63.364,0.16129,0.42522,0.47456,0.61546,0.38943,21.429
14.928,63.168,0.16031,0.42131,0.47456,0.62035,0.3953,21.948
14.936,62.973,0.15934,0.4174,0.47456,0.63014,0.38454,22.727
14.944,62.582,0.15934,0.41349,0.47456,0.63992,0.37965,23.636
14.952,62.386,0.15836,0.41056,0.47456,0.64481,0.37476,24.416
14.96,61.995,0.15836,0.40762,0.46477,0.65558,0.36008,25.325
14.968,61.604,0.15836,0.40469,0.45988,0.67025,0.35029,25.714
14.976,61.408,0.15738,0.40176,0.45988,0.68493,0.33464,26.104
14.984,61.017,0.15738,0.39883,0.45499,0.70059,0.32975,26.104
14.992,60.626,0.15738,0.39589,0.45499,0.71037,0.31996,25.844
15,60.235,0.1564,0.39296,0.4501,0.72016,0.31018,25.584
15.008,59.844,0.1564,0.39003,0.44521,0.72505,0.30528,25.195
15.016,59.648,0.15738,0.38807,0.44521,0.72994,0.31018,24.675
15.024,59.648,0.15738,0.3871,0.44521,0.71037,0.31507,24.026
15.032,59.648,0.15934,0.38612,0.4501,0.70548,0.32975,23.506
15.04,60.235,0.16129,0.38612,0.45499,0.68982,0.33953,22.857
15.048,61.604,0.16325,0.38514,0.45988,0.67515,0.36008,22.468
15.056,64.146,0.16618,0.38221,0.45988,0.65558,0.37476,22.208
15.064,68.253,0.16911,0.38025,0.46477,0.64481,0.38454,22.078
15.072,74.12,0.17204,0.37732,0.45988,0.63503,0.3953,22.208
15.08,81.552,0.17498,0.37439,0.45988,0.61546,0.40509,22.468
15.088,90.157,0.17791,0.37146,0.45499,0.6047,0.41487,22.857
15.096,99.348,0.18084,0.36852,0.45499,0.5998,0.41977,23.247
15.104,108.34,0.18377,0.36461,0.44521,0.59491,0.41977,23.506
15.112,116.56,0.18671,0.36168,0.44031,0.5998,0.41977,23.766
15.12,123.01,0.18964,0.35973,0.44031,0.5998,0.41487,23.766
15.128,127.51,0.19257,0.35777,0.44031,0.5998,0.41487,23.636
15.136,129.27,0.1955,0.35679,0.44031,0.5998,0.40998,23.377
15.144,128.68,0.19844,0.35582,0.44031,0.61057,0.40509,23.247
15.152,126.14,0.20137,0.35582,0.44521,0.61546,0.4002,22.987
15.16,122.23,0.2043,0.35582,0.44521,0.62035,0.3953,22.857
15.168,117.73,0.20626,0.35484,0.4501,0.62035,0.3953,22.597
15.176,112.84,0.20821,0.35484,0.45499,0.62524,0.3953,22.468
15.184,107.95,0.21114,0.35484,0.45499,0.63503,0.3953,22.597
15.192,103.46,0.21408,0.35484,0.45499,0.63503,0.38943,22.727
15.2,99.348,0.21701,0.35484,0.45499,0.63992,0.38943,23.117
15.208,95.437,0.22092,0.35288,0.45988,0.63992,0.3953,23.636
15.216,91.721,0.22581,0.35191,0.45988,0.63992,0.3953,23.896
15.224,87.81,0.23167,0.35093,0.45499,0.63992,0.3953,24.026
15.232,84.094,0.23754,0.35191,0.44521,0.63503,0.4002,23.636
15.24,80.378,0.24536,0.35386,0.44521,0.63503,0.40509,22.857
15.248,76.662,0.2522,0.35777,0.44521,0.63503,0.40509,21.948
15.256,73.338,0.25904,0.36657,0.44521,0.63014,0.40509,20.909
15.264,70.404,0.26686,0.38123,0.45499,0.63014,0.40509,20
15.272,67.862,0.2737,0.40176,0.45988,0.62524,0.40509,19.221
15.28,66.297,0.28055,0.42913,0.46477,0.62524,0.40998,18.701
15.288,65.124,0.28935,0.46139,0.46477,0.62524,0.40998,18.312
15.296,64.928,0.29912,0.49756,0.46477,0.62524,0.41487,17.922
15.304,65.319,0.31085,0.5347,0.46477,0.62524,0.40509,17.662
15.312,66.297,0.32258,0.57087,0.45988,0.62524,0.40509,17.532
15.32,68.057,0.33333,0.60313,0.45988,0.62524,0.4002,17.403
15.328,70.209,0.34506,0.63148,0.46477,0.62524,0.4002,17.013
15.336,72.751,0.35582,0.65298,0.46477,0.62524,0.4002,16.753
15.344,75.489,0.36755,0.6696,0.46477,0.62524,0.3953,16.234
15.352,78.227,0.38123,0.68426,0.46967,0.62524,0.4002,15.844
15.36,80.574,0.39394,0.69599,0.46967,0.62035,0.40509,15.325
15.368,82.725,0.40958,0.70479,0.47456,0.61546,0.40998,14.675
15.376,84.485,0.42522,0.71065,0.46967,0.61057,0.40998,14.286
15.384,85.463,0.44184,0.71457,0.46477,0.6047,0.41487,13.766
15.392,86.05,0.45943,0.71652,0.45988,0.5998,0.41487,13.377
15.4,86.05,0.47703,0.71652,0.45988,0.6047,0.41487,12.987
15.408,85.658,0.49462,0.71359,0.45499,0.61057,0.40509,12.857
15.416,84.681,0.51124,0.7087,0.43542,0.63503,0.36497,12.727
15.424,83.703,0.52786,0.70088,0.38454,0.71526,0.29941,12.727
15.432,82.334,0.5435,0.69208,0.33464,0.87573,0.2544,12.857
15.44,80.769,0.55914,0.68035,0.29941,1.001,0.24951,13.247
15.448,79.205,0.57674,0.66471,0.31507,1.001,0.32975,13.766
15.456,77.64,0.59433,0.64712,0.38454,0.81018,0.47456,14.675
15.464,76.076,0.6129,0.62854,0.47456,0.5,0.62524,15.714
15.472,74.511,0.63148,0.60997,0.52544,0.31507,0.69472,16.883
15.48,73.142,0.64907,0.59335,0.53033,0.30528,0.64481,17.922
15.488,71.773,0.66667,0.57967,0.51468,0.4501,0.54501,18.571
15.496,70.6,0.68426,0.56891,0.50978,0.54501,0.46477,18.831
15.504,69.426,0.70186,0.56012,0.50978,0.59002,0.41977,18.571
15.512,68.449,0.72141,0.55425,0.50489,0.6047,0.4002,18.182
15.52,67.471,0.74096,0.55034,0.5,0.61057,0.3953,17.662
15.528,66.688,0.76246,0.54839,0.5,0.61057,0.3953,17.403
15.536,65.906,0.78397,0.54643,0.48532,0.61057,0.4002,17.143
15.544,65.515,0.80743,0.54545,0.48043,0.61057,0.4002,17.403
15.552,64.928,0.83089,0.5435,0.47456,0.61546,0.4002,17.662
15.56,64.537,0.85435,0.54154,0.47456,0.62035,0.3953,18.312
15.568,64.342,0.87879,0.54057,0.47456,0.62035,0.3953,19.091
15.576,63.95,0.90029,0.53763,0.48043,0.62524,0.38454,20
15.584,63.755,0.9218,0.5347,0.48043,0.62524,0.38454,20.779
15.592,63.755,0.94233,0.52981,0.48043,0.63503,0.37965,21.688
15.6,63.559,0.96188,0.52493,0.48532,0.63992,0.37965,22.597
15.608,63.559,0.98143,0.51808,0.48532,0.64481,0.37965,23.636
15.616,63.755,1,0.51124,0.48532,0.66047,0.36986,24.805
15.624,63.755,1,0.5044,0.49022,0.67025,0.35519,25.844
15.632,63.95,1,0.49951,0.49511,0.68493,0.33953,26.883
15.64,64.342,1,0.49462,0.49511,0.70548,0.32975,27.792
15.648,64.537,1,0.48974,0.49022,0.72505,0.31507,28.571
15.656,64.733,1,0.48387,0.48532,0.73483,0.31018,28.831
15.664,64.928,1,0.47801,0.48043,0.7456,0.30528,28.701
15.672,65.124,1,0.46628,0.48043,0.75049,0.30528,27.922
15.68,65.515,1,0.44966,0.47456,0.7456,0.31018,27.013
15.688,65.711,1,0.43891,0.46477,0.72994,0.32485,26.104
15.696,65.906,1,0.43011,0.45988,0.71526,0.33953,25.455
15.704,66.297,1,0.42229,0.45988,0.70059,0.35519,25.195
15.712,66.493,1,0.41447,0.45988,0.68004,0.36986,25.325
15.72,66.688,1,0.40762,0.46477,0.66536,0.37965,25.714
15.728,67.08,1,0.40176,0.47456,0.65558,0.38943,25.974
15.736,67.862,1,0.39687,0.47456,0.64481,0.4002,26.234
15.744,69.231,1,0.39198,0.48043,0.63992,0.40509,26.104
15.752,71.382,1,0.38807,0.48043,0.63014,0.40998,25.844
15.76,74.316,1,0.38416,0.48532,0.62524,0.41487,25.325
15.768,78.227,1,0.37928,0.49022,0.62035,0.41977,24.675
15.776,82.725,1,0.37439,0.49511,0.62035,0.42466,24.026
15.784,88.005,1,0.3695,0.49511,0.62035,0.41977,23.506
15.792,93.481,1,0.36559,0.5,0.62035,0.41977,23.117
15.8,98.957,1,0.3607,0.50489,0.62524,0.41977,22.987
15.808,104.04,1,0.35679,0.50978,0.62524,0.41487,22.987
15.816,108.15,1,0.35386,0.50978,0.62524,0.41487,23.117
15.824,110.89,1,0.35093,0.51468,0.62524,0.41977,23.377
15.832,112.26,1,0.34897,0.51957,0.62035,0.42466,23.636
15.84,112.06,1,0.34702,0.51957,0.61546,0.42955,23.766
15.848,110.69,1,0.34506,0.50978,0.61546,0.42955,24.026
15.856,108.15,1,0.34311,0.50489,0.61057,0.42955,24.156
15.864,104.63,1,0.34115,0.5,0.61057,0.42955,24.416
15.872,100.91,1,0.33822,0.49511,0.6047,0.43542,24.545
15.88,96.61,1,0.33724,0.49511,0.6047,0.43542,24.675
15.888,92.308,1,0.33529,0.49511,0.61057,0.42955,24.805
15.896,88.005,1,0.33431,0.49511,0.61057,0.42955,24.935
15.904,83.703,1,0.33236,0.5,0.61057,0.42955,25.065
15.912,79.596,1,0.33138,0.5,0.61057,0.42955,25.195
15.92,75.489,1,0.3304,0.50489,0.61057,0.42955,25.195
15.928,71.969,1,0.32942,0.50489,0.61057,0.42955,25.065
15.936,68.84,1,0.33138,0.50978,0.61057,0.42466,24.805
15.944,66.102,1,0.33431,0.50978,0.61546,0.41977,24.286
15.952,64.146,1,0.34115,0.51468,0.61546,0.41487,23.766
15.96,62.777,1,0.34995,0.51957,0.62035,0.41487,22.857
15.968,61.995,1,0.36364,0.51957,0.62524,0.41487,21.948
15.976,61.799,1,0.38025,0.51957,0.62524,0.41487,20.909
15.984,62.19,1,0.39883,0.51957,0.63014,0.41487,20
15.992,63.168,0.98631,0.41935,0.51957,0.63503,0.41487,19.221
16,64.537,0.97263,0.43988,0.50978,0.63503,0.41487,18.571
16.008,66.493,0.95699,0.45943,0.50489,0.63503,0.41487,18.052
16.016,68.644,0.94233,0.47801,0.5,0.63014,0.41487,17.792
16.024,70.795,0.92669,0.49365,0.49511,0.63014,0.41487,17.662
16.032,72.947,0.91202,0.50635,0.49511,0.63503,0.41487,17.662
16.04,75.098,0.89736,0.51515,0.49511,0.63992,0.41487,17.662
16.048,76.858,0.88368,0.52199,0.49511,0.63503,0.40998,17.792
16.056,78.227,0.87097,0.52786,0.49022,0.63503,0.40509,17.792
16.064,79.4,0.85826,0.53177,0.48532,0.63503,0.40509,17.922
16.072,79.987,0.84653,0.53372,0.48043,0.63503,0.40509,17.792
16.08,80.183,0.83578,0.53275,0.48043,0.63503,0.40509,17.662
16.088,79.987,0.82405,0.52884,0.48043,0.63014,0.40509,17.662
16.096,79.596,0.81232,0.52199,0.48532,0.63503,0.4002,17.532
16.104,79.009,0.80059,0.5132,0.48532,0.63992,0.4002,17.532
16.112,78.031,0.78886,0.50244,0.48532,0.64481,0.4002,17.532
16.12,77.054,0.7781,0.48974,0.48532,0.64481,0.4002,17.662
16.128,76.076,0.76735,0.47703,0.49022,0.64481,0.4002,17.792
16.136,74.902,0.75758,0.46432,0.49511,0.64481,0.4002,18.052
16.144,73.924,0.74878,0.45357,0.49022,0.65558,0.37476,18.312
16.152,72.751,0.739,0.44282,0.45988,0.70548,0.32485,18.571
16.16,71.773,0.73021,0.43402,0.4002,0.82485,0.27006,18.961
16.168,70.6,0.72141,0.42717,0.33953,1.001,0.23483,19.221
16.176,69.622,0.71163,0.42229,0.29941,1.001,0.24951,19.61
16.184,68.644,0.70283,0.41935,0.31996,1.001,0.33953,19.87
16.192,67.666,0.69306,0.41838,0.4002,0.71037,0.5,20.26
16.2,66.688,0.68328,0.41838,0.46967,0.44521,0.61546,20.39
16.208,65.906,0.67449,0.41935,0.49511,0.36008,0.63503,20.519
16.216,65.124,0.66569,0.42131,0.50489,0.42955,0.55969,20.519
16.224,64.537,0.65787,0.42326,0.50489,0.53033,0.48043,20.519
16.232,63.95,0.65103,0.42424,0.50978,0.59491,0.43542,20.39
16.24,63.364,0.64418,0.4262,0.50978,0.62035,0.40509,20.26
16.248,62.973,0.63734,0.42717,0.50978,0.62524,0.38943,20.13
16.256,62.582,0.6305,0.42717,0.50978,0.63503,0.37965,20.13
16.264,62.19,0.62366,0.4262,0.50978,0.63503,0.37965,20.26
16.272,61.995,0.61779,0.42522,0.50978,0.63503,0.37476,20.39
16.28,61.995,0.61095,0.42424,0.50978,0.63992,0.37476,20.519
16.288,61.995,0.60508,0.42326,0.50978,0.63992,0.37476,20.909
16.296,61.995,0.59922,0.42229,0.50978,0.63992,0.37476,21.039
16.304,61.995,0.59335,0.42033,0.51468,0.63992,0.37965,21.299
16.312,61.995,0.58651,0.41838,0.51468,0.63992,0.37965,21.429
16.32,61.995,0.57967,0.41544,0.50978,0.63992,0.37476,21.558
16.328,62.19,0.57283,0.41251,0.50489,0.63992,0.37476,21.818
16.336,62.386,0.56598,0.41056,0.5,0.64481,0.37476,22.208
16.344,62.386,0.55816,0.4086,0.49511,0.65558,0.36986,22.727
16.352,62.582,0.55034,0.40567,0.49022,0.66047,0.36497,23.506
16.36,62.777,0.54252,0.40274,0.48532,0.67025,0.35519,24.416
16.368,62.973,0.5347,0.39883,0.48532,0.68493,0.33953,25.455
16.376,62.973,0.52688,0.39492,0.48043,0.70059,0.32975,26.364
16.384,63.168,0.51906,0.39101,0.48043,0.71526,0.31996,27.143
16.392,63.168,0.51124,0.38807,0.47456,0.72505,0.31507,27.662
16.4,63.168,0.5044,0.38514,0.46477,0.73483,0.31018,28.182
16.408,63.168,0.49658,0.38221,0.46477,0.7407,0.30528,28.312
16.416,63.168,0.48876,0.38025,0.46477,0.7456,0.30528,28.312
16.424,63.364,0.47996,0.37732,0.46477,0.73483,0.31018,28.182
16.432,63.364,0.47214,0.37537,0.46477,0.72505,0.31996,27.792
16.44,63.559,0.4653,0.37439,0.46477,0.71037,0.32975,27.273
