Time [s], II, PLETH, RESP, V, AVR
0,0.14453,0.63636,0.04059,0.83529,0.74414
0.008,0.15625,0.65689,0.04059,0.83529,0.74023
0.016,0.15625,0.67351,0.04059,0.84118,0.74023
0.024,0.16016,0.68817,0.04059,0.8451,0.73438
0.032,0.16016,0.6999,0.04059,0.8451,0.73438
0.04,0.19531,0.7087,0.04182,0.87647,0.7207
0.048,0.31445,0.71652,0.04182,0.92549,0.66016
0.056,0.42969,0.72043,0.04428,0.88039,0.54492
0.064,0.50586,0.72336,0.04551,0.78039,0.42578
0.072,0.41016,0.72434,0.04797,0.57451,0.33008
0.08,0.080078,0.72532,0.050431,0.44902,0.50586
0.088,0.025391,0.72434,0.052891,0.76667,0.7793
0.096,0.13086,0.72239,0.054121,0.87059,0.79492
0.104,0.15625,0.71848,0.056581,0.88039,0.75977
0.112,0.17578,0.71359,0.059041,0.8902,0.73438
0.12,0.17969,0.70674,0.061501,0.89608,0.73047
0.128,0.18555,0.69892,0.062731,0.90196,0.72461
0.136,0.18945,0.68915,0.065191,0.90196,0.7207
0.144,0.20117,0.67742,0.067651,0.89608,0.7207
0.152,0.20508,0.66471,0.070111,0.90196,0.70898
0.16,0.20508,0.652,0.072571,0.90196,0.69922
0.168,0.21094,0.63636,0.075031,0.90196,0.69922
0.176,0.2207,0.62072,0.077491,0.90196,0.69922
0.184,0.2207,0.60411,0.079951,0.90196,0.69922
0.192,0.23047,0.58749,0.082411,0.90588,0.68555
0.2,0.23438,0.57185,0.084871,0.91176,0.67969
0.208,0.24609,0.55718,0.087331,0.90588,0.67578
0.216,0.25586,0.54448,0.089791,0.90588,0.66992
0.224,0.25977,0.53372,0.092251,0.91569,0.66406
0.232,0.26562,0.52395,0.094711,0.92157,0.66406
0.24,0.26562,0.51515,0.098401,0.92157,0.66406
0.248,0.27539,0.50635,0.10086,0.91569,0.66016
0.256,0.27539,0.50049,0.10332,0.91569,0.6543
0.264,0.27539,0.49365,0.10701,0.91569,0.6543
0.272,0.2793,0.48778,0.10947,0.92549,0.66406
0.28,0.2793,0.48094,0.11193,0.92549,0.66992
0.288,0.26562,0.4741,0.11439,0.94118,0.67578
0.296,0.24609,0.46725,0.11685,0.94118,0.68945
0.304,0.22461,0.46139,0.11931,0.94118,0.70898
0.312,0.20508,0.45455,0.12054,0.93725,0.7207
0.32,0.17969,0.4477,0.123,0.93137,0.73438
0.328,0.16602,0.44184,0.12423,0.92157,0.74414
0.336,0.15625,0.43597,0.12546,0.90588,0.74414
0.344,0.15039,0.43109,0.12669,0.89608,0.74414
0.352,0.15625,0.4262,0.12915,0.88627,0.73438
0.36,0.16992,0.42229,0.13038,0.87647,0.7207
0.368,0.17969,0.4174,0.13161,0.87059,0.71484
0.376,0.18945,0.41251,0.13284,0.86667,0.70508
0.384,0.19531,0.40762,0.13407,0.86078,0.69922
0.392,0.20117,0.40274,0.13407,0.86078,0.69922
0.4,0.20117,0.39785,0.1353,0.86078,0.69922
0.408,0.20508,0.39296,0.13653,0.86078,0.69922
0.416,0.21094,0.38905,0.13776,0.86078,0.69922
0.424,0.21484,0.38514,0.13776,0.86078,0.68945
0.432,0.21484,0.38123,0.13899,0.86667,0.68945
0.44,0.2207,0.37732,0.13776,0.86078,0.68945
0.448,0.21484,0.37439,0.13776,0.86078,0.69531
0.456,0.21484,0.37146,0.1353,0.86078,0.69531
0.464,0.21094,0.36852,0.13284,0.86078,0.68945
0.472,0.21484,0.36461,0.12915,0.86667,0.69922
0.48,0.2207,0.3607,0.12546,0.86667,0.69531
0.488,0.25,0.35679,0.12054,0.88039,0.67969
0.496,0.27539,0.35288,0.11685,0.90588,0.6543
0.504,0.28516,0.34897,0.11193,0.91569,0.6543
0.512,0.29492,0.34409,0.10824,0.91176,0.64062
0.52,0.33594,0.34115,0.10455,0.94118,0.61523
0.528,0.35938,0.33822,0.099631,0.94706,0.60547
0.536,0.34961,0.33822,0.095941,0.93137,0.59961
0.544,0.33008,0.34018,0.092251,0.90588,0.60938
0.552,0.29102,0.34604,0.088561,0.87647,0.625
0.56,0.26562,0.35582,0.086101,0.85686,0.64453
0.568,0.27539,0.37243,0.083641,0.87059,0.63477
0.576,0.25586,0.39492,0.081181,0.86667,0.6543
0.584,0.20508,0.42229,0.079951,0.85686,0.69922
0.592,0.16992,0.45552,0.078721,0.8451,0.7207
0.6,0.15625,0.48974,0.077491,0.84118,0.73047
0.608,0.15039,0.52493,0.077491,0.8451,0.73047
0.616,0.14062,0.55816,0.077491,0.8451,0.74414
0.624,0.14453,0.58847,0.077491,0.8451,0.74414
0.632,0.13477,0.61584,0.078721,0.8451,0.74414
0.64,0.14062,0.63832,0.079951,0.8451,0.74414
0.648,0.14453,0.65494,0.081181,0.8451,0.74023
0.656,0.14453,0.66764,0.082411,0.8451,0.74414
0.664,0.14453,0.68035,0.083641,0.85686,0.74414
0.672,0.15039,0.69013,0.086101,0.85686,0.74023
0.68,0.17578,0.69795,0.087331,0.87647,0.73438
0.688,0.28516,0.70479,0.088561,0.93725,0.68555
0.696,0.41602,0.7087,0.091021,0.90588,0.56055
0.704,0.49414,0.71163,0.093481,0.8,0.43555
0.712,0.50586,0.71261,0.095941,0.6098,0.32422
0.72,0.095703,0.71261,0.098401,0.4549,0.48438
0.728,0.019531,0.71163,0.099631,0.7549,0.78516
0.736,0.11523,0.7087,0.10209,0.87647,0.81055
0.744,0.13477,0.70479,0.10455,0.88627,0.76953
0.752,0.16016,0.6999,0.10578,0.89608,0.74414
0.76,0.16602,0.69306,0.10701,0.90588,0.73438
0.768,0.16992,0.68524,0.10947,0.90588,0.74023
0.776,0.18555,0.67546,0.1107,0.90588,0.72461
0.784,0.18555,0.66373,0.11193,0.91176,0.72461
0.792,0.18945,0.65005,0.11439,0.91176,0.7207
0.8,0.19531,0.63539,0.11562,0.91176,0.71484
0.808,0.20508,0.61877,0.11685,0.91176,0.70508
0.816,0.20508,0.60313,0.11808,0.91569,0.70508
0.824,0.21484,0.58651,0.11931,0.91569,0.69922
0.832,0.21484,0.57087,0.12054,0.91569,0.69922
0.84,0.23047,0.55523,0.12177,0.91569,0.68945
0.848,0.23047,0.54252,0.123,0.91569,0.67969
0.856,0.23438,0.53177,0.12546,0.91569,0.67578
0.864,0.25,0.52004,0.12792,0.91569,0.67578
0.872,0.25586,0.51026,0.13038,0.92157,0.66992
0.88,0.25586,0.50049,0.13284,0.92549,0.66406
0.888,0.25977,0.49169,0.1353,0.92549,0.66992
0.896,0.26953,0.48387,0.13776,0.92549,0.66016
0.904,0.27539,0.47703,0.14022,0.93137,0.66016
0.912,0.27539,0.47019,0.14145,0.93725,0.66406
0.92,0.26953,0.46334,0.14391,0.93725,0.67578
0.928,0.25586,0.45748,0.14637,0.94118,0.67969
0.936,0.24609,0.45161,0.14883,0.94706,0.69531
0.944,0.23047,0.44575,0.15129,0.94706,0.70508
0.952,0.20117,0.44086,0.15375,0.94118,0.7207
0.96,0.17578,0.43695,0.15621,0.93725,0.74414
0.968,0.16016,0.43206,0.15744,0.93137,0.75
0.976,0.15039,0.4262,0.1599,0.91569,0.75391
0.984,0.15039,0.42131,0.16236,0.90196,0.75
0.992,0.16016,0.4174,0.16359,0.8902,0.73438
1,0.17578,0.41349,0.16482,0.87647,0.7207
1.008,0.18945,0.40958,0.16728,0.87059,0.70898
1.016,0.19531,0.40469,0.16728,0.86667,0.70508
1.024,0.20508,0.40078,0.16851,0.86667,0.69922
1.032,0.20117,0.39589,0.16851,0.86078,0.69922
1.04,0.20508,0.39198,0.16851,0.86078,0.69922
1.048,0.21094,0.38807,0.16851,0.86078,0.69922
1.056,0.21094,0.38612,0.16851,0.86078,0.69922
1.064,0.21484,0.38221,0.16728,0.85686,0.69531
1.072,0.21484,0.3783,0.16728,0.85686,0.68945
1.08,0.21484,0.37439,0.16605,0.85686,0.68945
1.088,0.2207,0.36364,0.16482,0.86667,0.68555
1.096,0.22461,0.34995,0.16236,0.86667,0.68555
1.104,0.2207,0.34115,0.1599,0.87059,0.68945
1.112,0.22461,0.33529,0.15498,0.87059,0.68555
1.12,0.2207,0.3304,0.15129,0.87647,0.68945
1.128,0.25,0.32649,0.14637,0.8902,0.66406
1.136,0.2793,0.32258,0.14145,0.90588,0.65039
1.144,0.29102,0.31769,0.13653,0.91569,0.64453
1.152,0.28516,0.31476,0.13161,0.92549,0.63477
1.16,0.3457,0.31281,0.12669,0.94706,0.60547
1.168,0.35938,0.30987,0.123,0.95098,0.59961
1.176,0.37109,0.30792,0.11931,0.93137,0.5957
1.184,0.33594,0.3089,0.11562,0.91176,0.60547
1.192,0.29492,0.31378,0.11316,0.87647,0.625
1.2,0.26953,0.32454,0.10947,0.86078,0.64453
1.208,0.2793,0.34213,0.10824,0.87059,0.63477
1.216,0.25,0.36755,0.10578,0.87059,0.66406
1.224,0.20117,0.39785,0.10455,0.85686,0.69922
1.232,0.16602,0.43402,0.10332,0.8451,0.7207
1.24,0.16016,0.47312,0.10332,0.8451,0.72461
1.248,0.14453,0.50635,0.10332,0.8451,0.74023
1.256,0.14453,0.53763,0.10455,0.84118,0.74414
1.264,0.14062,0.56989,0.10578,0.8451,0.74023
1.272,0.14453,0.6002,0.10824,0.8451,0.74414
1.28,0.14453,0.62659,0.1107,0.8451,0.74023
1.288,0.15039,0.64907,0.11439,0.8451,0.73438
1.296,0.15625,0.66764,0.11808,0.8451,0.74023
1.304,0.15039,0.68328,0.12177,0.8451,0.73438
1.312,0.16016,0.69599,0.12546,0.85098,0.73047
1.32,0.17578,0.70577,0.12915,0.87647,0.73438
1.328,0.29102,0.71359,0.13284,0.92157,0.67578
1.336,0.41992,0.71848,0.13776,0.88627,0.55078
1.344,0.51953,0.72239,0.14268,0.80588,0.41992
1.352,0.43945,0.72434,0.14883,0.6098,0.32031
1.36,0.095703,0.72336,0.15498,0.48039,0.5
1.368,0.041016,0.72141,0.1599,0.78039,0.7793
1.376,0.14062,0.71848,0.16482,0.88627,0.79492
1.384,0.14453,0.71457,0.16974,0.8902,0.75977
1.392,0.17578,0.7087,0.17466,0.89608,0.73047
1.4,0.16992,0.70088,0.18081,0.89608,0.73047
1.408,0.16602,0.6911,0.18573,0.89608,0.73047
1.416,0.16602,0.67937,0.19311,0.89608,0.73438
1.424,0.17969,0.66667,0.19926,0.89608,0.72461
1.432,0.18555,0.65103,0.20664,0.89608,0.7207
1.44,0.19531,0.63441,0.21525,0.90196,0.70898
1.448,0.19531,0.61877,0.22263,0.89608,0.70898
1.456,0.20117,0.60313,0.23124,0.89608,0.70508
1.464,0.20508,0.58651,0.23862,0.89608,0.69922
1.472,0.21094,0.56989,0.246,0.89608,0.69531
1.48,0.21484,0.55327,0.25338,0.89608,0.69531
1.488,0.2207,0.53763,0.26199,0.89608,0.68555
1.496,0.22461,0.52297,0.2706,0.90196,0.68555
1.504,0.23047,0.51026,0.27921,0.91176,0.67578
1.512,0.23438,0.49951,0.28782,0.91569,0.67578
1.52,0.24023,0.48974,0.29766,0.91569,0.67578
1.528,0.25,0.47996,0.30627,0.91176,0.67578
1.536,0.25586,0.47214,0.31488,0.91569,0.67578
1.544,0.25977,0.4653,0.32349,0.92157,0.66992
1.552,0.25586,0.45846,0.33333,0.93137,0.67578
1.56,0.25977,0.45259,0.34317,0.93725,0.66992
1.568,0.24023,0.44673,0.35301,0.93137,0.68555
1.576,0.23047,0.43988,0.36285,0.93725,0.69922
1.584,0.21094,0.43304,0.37392,0.94118,0.70898
1.592,0.19531,0.4262,0.38622,0.93725,0.72461
1.6,0.16602,0.42033,0.39729,0.93137,0.74414
1.608,0.15039,0.41349,0.40959,0.92157,0.75
1.616,0.14453,0.40762,0.42189,0.90588,0.75
1.624,0.14453,0.40176,0.43173,0.89608,0.74414
1.632,0.15625,0.39589,0.4428,0.88627,0.73047
1.64,0.17969,0.39003,0.45141,0.87647,0.7207
1.648,0.18555,0.38612,0.46125,0.87059,0.70508
1.656,0.19531,0.38221,0.47109,0.87059,0.69922
1.664,0.20117,0.37634,0.48093,0.86667,0.69922
1.672,0.20117,0.37146,0.49077,0.86078,0.69922
1.68,0.20508,0.36657,0.50062,0.86667,0.69922
1.688,0.20508,0.3607,0.50923,0.85686,0.69531
1.696,0.20508,0.35582,0.51784,0.85686,0.69531
1.704,0.20508,0.35191,0.52522,0.86078,0.69922
1.712,0.21094,0.34702,0.53383,0.86078,0.68945
1.72,0.21094,0.34213,0.54121,0.85686,0.68945
1.728,0.21484,0.33724,0.54859,0.86667,0.68945
1.736,0.21484,0.33431,0.55474,0.87059,0.69531
1.744,0.21484,0.3304,0.56212,0.87059,0.68945
1.752,0.22461,0.32747,0.56827,0.86667,0.68555
1.76,0.23047,0.32454,0.57442,0.87059,0.67969
1.768,0.25586,0.32063,0.57934,0.88627,0.66016
1.776,0.29102,0.31574,0.58426,0.91176,0.64062
1.784,0.29102,0.31085,0.58795,0.91569,0.64453
1.792,0.31055,0.30596,0.59164,0.92157,0.625
1.8,0.34961,0.30108,0.59533,0.94118,0.60547
1.808,0.375,0.29717,0.59902,0.94706,0.58398
1.816,0.35938,0.29619,0.60271,0.92157,0.59961
1.824,0.33984,0.29814,0.6064,0.90196,0.60547
1.832,0.30078,0.30401,0.61009,0.86667,0.61914
1.84,0.28516,0.31476,0.61378,0.85686,0.62891
1.848,0.30078,0.32942,0.61747,0.86667,0.61523
1.856,0.26562,0.34897,0.62116,0.87059,0.65039
1.864,0.21094,0.37439,0.62485,0.85098,0.68945
1.872,0.18555,0.40665,0.62977,0.8451,0.70508
1.88,0.17969,0.44184,0.63469,0.8451,0.7207
1.888,0.17578,0.47801,0.64084,0.8451,0.7207
1.896,0.16016,0.5132,0.64699,0.84118,0.72461
1.904,0.16016,0.54545,0.65437,0.83529,0.73047
1.912,0.16992,0.57478,0.66298,0.8451,0.72461
1.92,0.16602,0.6002,0.67159,0.84118,0.72461
1.928,0.16016,0.6217,0.68143,0.8451,0.73047
1.936,0.16602,0.63832,0.69127,0.84118,0.72461
1.944,0.16992,0.65103,0.69988,0.84118,0.72461
1.952,0.17578,0.65885,0.70849,0.8451,0.7207
1.96,0.21094,0.66373,0.7171,0.87647,0.70898
1.968,0.32031,0.66862,0.72694,0.91569,0.65039
1.976,0.45508,0.67351,0.73678,0.87059,0.51953
1.984,0.58984,0.67742,0.74662,0.8,0.37109
1.992,0.5,0.68133,0.75769,0.60588,0.28516
2,0.15625,0.68719,0.76876,0.50588,0.50977
2.008,0.12109,0.69501,0.7786,0.82549,0.75977
2.016,0.20117,0.70283,0.78844,0.89608,0.74023
2.024,0.18555,0.71261,0.79705,0.88627,0.72461
2.032,0.18945,0.72043,0.80566,0.88039,0.7207
2.04,0.18945,0.7263,0.8155,0.88627,0.7207
2.048,0.18555,0.72923,0.82411,0.88627,0.7207
2.056,0.18945,0.72825,0.83518,0.88627,0.71484
2.064,0.19531,0.72532,0.84502,0.88627,0.70898
2.072,0.20117,0.7175,0.85609,0.88039,0.70508
2.08,0.20508,0.70674,0.86716,0.88627,0.70508
2.088,0.20508,0.69208,0.87946,0.88627,0.70898
2.096,0.21094,0.67351,0.89053,0.8902,0.69922
2.104,0.21484,0.65298,0.90037,0.8902,0.69922
2.112,0.2207,0.62952,0.91144,0.8902,0.69922
2.12,0.23047,0.60508,0.92005,0.89608,0.68555
2.128,0.24609,0.58162,0.92989,0.90196,0.67578
2.136,0.23438,0.55816,0.94096,0.89608,0.68555
2.144,0.24023,0.53763,0.95203,0.89608,0.67578
2.152,0.25,0.52004,0.9631,0.89608,0.67578
2.16,0.25586,0.50635,0.97417,0.90196,0.66992
2.168,0.25586,0.49267,0.98524,0.90196,0.67578
2.176,0.25977,0.47996,0.99508,0.90588,0.66992
2.184,0.26562,0.46823,1.0049,0.91569,0.66992
2.192,0.25586,0.45552,1.0148,0.91569,0.67578
2.2,0.25586,0.44477,1.0258,0.92157,0.67969
2.208,0.24609,0.43402,1.0369,0.93137,0.68555
2.216,0.22461,0.42424,1.048,0.93725,0.69922
2.224,0.20117,0.41447,1.0603,0.94118,0.70898
2.232,0.17578,0.40469,1.0726,0.93725,0.73438
2.24,0.16016,0.39687,1.0849,0.93137,0.74414
2.248,0.14062,0.39003,1.0959,0.91569,0.75
2.256,0.14453,0.38416,1.1082,0.90588,0.75391
2.264,0.14453,0.3783,1.1193,0.89608,0.74414
2.272,0.16016,0.37243,1.1292,0.88627,0.73047
2.28,0.17969,0.36755,1.1292,0.87647,0.7207
2.288,0.18945,0.36461,1.1292,0.87059,0.70508
2.296,0.20117,0.36168,1.1292,0.86667,0.69922
2.304,0.21094,0.35875,1.1292,0.86667,0.69531
2.312,0.22461,0.35484,1.1292,0.86078,0.68555
2.32,0.23047,0.35093,1.1292,0.86078,0.67969
2.328,0.23047,0.34702,1.1292,0.85686,0.67969
2.336,0.23047,0.34115,1.1292,0.85686,0.67578
2.344,0.23438,0.33529,1.1292,0.85686,0.67578
2.352,0.23047,0.3304,1.1292,0.85098,0.67578
2.36,0.23438,0.32551,1.1292,0.85098,0.67578
2.368,0.23438,0.31867,1.1292,0.85686,0.67969
2.376,0.23438,0.31085,1.1292,0.86078,0.67969
2.384,0.23438,0.30303,1.1292,0.86078,0.67969
2.392,0.24023,0.29521,1.1292,0.86078,0.67578
2.4,0.24609,0.28739,1.1292,0.86667,0.66992
2.408,0.26953,0.27859,1.1292,0.88039,0.65039
2.416,0.30078,0.26979,1.1292,0.89608,0.63477
2.424,0.30078,0.261,1.1292,0.89608,0.62891
2.432,0.31445,0.2522,1.1292,0.90588,0.625
2.44,0.35547,0.2434,1.1292,0.93137,0.59961
2.448,0.38086,0.23754,1.1292,0.94118,0.58398
2.456,0.36523,0.23363,1.1292,0.91569,0.58984
2.464,0.33984,0.23069,1.1292,0.89608,0.60547
2.472,0.30078,0.23069,1.1292,0.85098,0.61914
2.48,0.2793,0.23558,1.1292,0.84118,0.62891
2.488,0.29492,0.24536,1.1292,0.85686,0.625
2.496,0.26562,0.26197,1.1292,0.8451,0.64453
2.504,0.22461,0.28543,1.1292,0.83137,0.67969
2.512,0.18555,0.31281,1.1292,0.82157,0.69922
2.52,0.17969,0.34213,1.1292,0.82157,0.71484
2.528,0.17578,0.37341,1.1292,0.82157,0.7207
2.536,0.16992,0.40371,1.1292,0.82157,0.7207
2.544,0.16602,0.42815,1.1292,0.82157,0.72461
2.552,0.16016,0.44868,1.1292,0.82157,0.73047
2.56,0.16602,0.46921,1.1292,0.82157,0.72461
2.568,0.16602,0.4868,1.1292,0.82157,0.73438
2.576,0.16992,0.50147,1.1292,0.82549,0.72461
2.584,0.16602,0.51417,1.1292,0.83137,0.72461
2.592,0.17578,0.52395,1.1292,0.83137,0.7207
2.6,0.20508,0.53079,1.1292,0.85686,0.71484
2.608,0.32422,0.53666,1.1292,0.89608,0.64453
2.616,0.46484,0.54057,1.1292,0.86078,0.51562
2.624,0.58984,0.54252,1.1292,0.78039,0.37109
2.632,0.4707,0.5435,1.1292,0.58039,0.30469
2.64,0.11523,0.5435,1.1292,0.48039,0.53516
2.648,0.085938,0.54154,1.1292,0.8,0.77539
2.656,0.17969,0.53959,1.1292,0.87647,0.7793
2.664,0.17578,0.53568,1.1292,0.87059,0.73438
2.672,0.18945,0.52981,1.1292,0.88039,0.7207
2.68,0.18555,0.52395,1.1292,0.88039,0.72461
2.688,0.18945,0.51613,1.1292,0.88039,0.73047
2.696,0.19531,0.50635,1.1292,0.88627,0.7207
2.704,0.20508,0.49462,1.1292,0.8902,0.71484
2.712,0.21094,0.48192,1.1292,0.8902,0.70898
2.72,0.21094,0.46725,1.1292,0.8902,0.70508
2.728,0.22461,0.45259,1.1292,0.8902,0.69922
2.736,0.23047,0.43695,1.1292,0.8902,0.69531
2.744,0.23047,0.42326,1.1292,0.8902,0.69531
2.752,0.23438,0.41251,1.1292,0.8902,0.68945
2.76,0.24609,0.3998,1.1292,0.8902,0.67578
2.768,0.25,0.3871,1.1292,0.8902,0.67578
2.776,0.25977,0.37537,1.1292,0.8902,0.66992
2.784,0.26562,0.36461,1.1292,0.89608,0.66406
2.792,0.27539,0.35582,1.1292,0.90196,0.66016
2.8,0.27539,0.348,1.1292,0.90588,0.66016
2.808,0.27539,0.34115,1.1292,0.91176,0.66016
2.816,0.27539,0.33627,1.1292,0.91569,0.66016
2.824,0.28516,0.33236,1.1292,0.91569,0.6543
2.832,0.28516,0.32845,1.1292,0.91569,0.66016
2.84,0.2793,0.32551,1.1193,0.92157,0.66992
2.848,0.26562,0.32258,1.1095,0.93137,0.67969
2.856,0.25586,0.32063,1.0984,0.93137,0.69531
2.864,0.23438,0.31769,1.0873,0.93725,0.69922
2.872,0.21094,0.31378,1.0738,0.93725,0.7207
2.88,0.18945,0.3089,1.0615,0.92549,0.73438
2.888,0.17969,0.30499,1.048,0.91569,0.74023
2.896,0.16992,0.30108,1.0357,0.89608,0.74414
2.904,0.17578,0.29814,1.0221,0.8902,0.73438
2.912,0.18555,0.29619,1.0098,0.87647,0.7207
2.92,0.20508,0.29326,0.99877,0.87059,0.70898
2.928,0.21484,0.29032,0.98647,0.86667,0.69922
2.936,0.22461,0.28739,0.97294,0.86078,0.69531
2.944,0.23047,0.28641,0.95818,0.85686,0.68555
2.952,0.23047,0.28446,0.94342,0.85686,0.68555
2.96,0.23438,0.2825,0.92743,0.85686,0.68555
2.968,0.23438,0.27957,0.91267,0.85686,0.68945
2.976,0.23438,0.27761,0.89791,0.86078,0.68945
2.984,0.23438,0.27468,0.88192,0.85686,0.68945
2.992,0.23438,0.27273,0.86716,0.85098,0.68555
3,0.23438,0.27077,0.84871,0.85098,0.68555
3.008,0.24609,0.26882,0.83149,0.85686,0.67969
3.016,0.24609,0.26588,0.81058,0.85686,0.67969
3.024,0.25,0.26295,0.78967,0.86078,0.67969
3.032,0.25,0.261,0.76753,0.86078,0.67969
3.04,0.25586,0.25806,0.74416,0.86667,0.67578
3.048,0.26953,0.25709,0.71956,0.87059,0.66406
3.056,0.31055,0.25513,0.69619,0.89608,0.64062
3.064,0.32031,0.25318,0.67282,0.91176,0.62891
3.072,0.33008,0.25122,0.65068,0.91176,0.61914
3.08,0.35938,0.24829,0.62977,0.93725,0.60547
3.088,0.39453,0.24731,0.60886,0.94706,0.58398
3.096,0.40039,0.24633,0.58549,0.93137,0.57422
3.104,0.37109,0.24829,0.56335,0.90588,0.5957
3.112,0.33984,0.25513,0.53998,0.87647,0.60547
3.12,0.30078,0.26686,0.51661,0.85098,0.625
3.128,0.31055,0.28641,0.49569,0.86667,0.61914
3.136,0.29492,0.31672,0.47601,0.86078,0.62891
3.144,0.24609,0.35093,0.45756,0.8451,0.66992
3.152,0.20508,0.38319,0.43911,0.84118,0.69922
3.16,0.18555,0.41935,0.42066,0.83529,0.71484
3.168,0.17969,0.45552,0.40221,0.83529,0.7207
3.176,0.16992,0.49169,0.38499,0.84118,0.72461
3.184,0.16602,0.52493,0.36654,0.83529,0.73047
3.192,0.16992,0.55425,0.35055,0.83529,0.73047
3.2,0.16992,0.58065,0.33333,0.83529,0.73438
3.208,0.17578,0.60215,0.31734,0.83529,0.72461
3.216,0.16992,0.61975,0.30258,0.83529,0.72461
3.224,0.17969,0.63441,0.28905,0.84118,0.72461
3.232,0.17969,0.64712,0.27552,0.8451,0.72461
3.24,0.20117,0.65689,0.26445,0.86078,0.71484
3.248,0.2793,0.66373,0.25338,0.91569,0.68555
3.256,0.41992,0.66764,0.24231,0.93137,0.57422
3.264,0.49414,0.67058,0.23124,0.82549,0.46484
3.272,0.53516,0.67351,0.2214,0.66471,0.33008
3.28,0.22461,0.67449,0.21156,0.44902,0.31055
3.288,0.050781,0.67449,0.20172,0.63529,0.68945
3.296,0.13477,0.67351,0.19311,0.85098,0.7793
3.304,0.16016,0.67058,0.18573,0.87059,0.75
3.312,0.18555,0.66667,0.17712,0.88627,0.73047
3.32,0.19531,0.66178,0.16851,0.8902,0.7207
3.328,0.20117,0.65396,0.1599,0.89608,0.7207
3.336,0.20508,0.64516,0.15129,0.89608,0.70898
3.344,0.21094,0.63539,0.14268,0.89608,0.70508
3.352,0.21484,0.62463,0.13407,0.89608,0.69922
3.36,0.2207,0.61193,0.12669,0.89608,0.69922
3.368,0.23047,0.59726,0.11931,0.89608,0.69922
3.376,0.23047,0.5826,0.11193,0.90196,0.69922
3.384,0.23438,0.56696,0.10578,0.90196,0.69531
3.392,0.24023,0.5523,0.099631,0.90588,0.68945
3.4,0.24609,0.53763,0.094711,0.90588,0.67969
3.408,0.25586,0.52395,0.091021,0.90588,0.67578
3.416,0.25977,0.51222,0.086101,0.90588,0.67578
3.424,0.26562,0.50147,0.082411,0.91176,0.66406
3.432,0.26562,0.49169,0.078721,0.91569,0.66406
3.44,0.27539,0.48289,0.075031,0.91569,0.66406
3.448,0.27539,0.47605,0.071341,0.92157,0.66016
3.456,0.28516,0.47116,0.068881,0.92157,0.6543
3.464,0.29102,0.4653,0.066421,0.92549,0.65039
3.472,0.29492,0.45943,0.063961,0.93137,0.65039
3.48,0.28516,0.45455,0.062731,0.93725,0.6543
3.488,0.27539,0.44966,0.060271,0.93725,0.66406
3.496,0.25977,0.44477,0.059041,0.94118,0.67969
3.504,0.24023,0.43988,0.057811,0.94118,0.69922
3.512,0.22461,0.435,0.055351,0.94118,0.70508
3.52,0.20508,0.43011,0.054121,0.93725,0.7207
3.528,0.17969,0.42522,0.052891,0.93137,0.73438
3.536,0.17578,0.42033,0.050431,0.91569,0.74023
3.544,0.17578,0.41642,0.050431,0.90196,0.73438
3.552,0.17969,0.41349,0.0492,0.8902,0.73047
3.56,0.18945,0.40958,0.0492,0.88039,0.7207
3.568,0.20508,0.40567,0.04797,0.87647,0.69922
3.576,0.21484,0.40176,0.04797,0.87059,0.68945
3.584,0.2207,0.39785,0.04674,0.86078,0.68555
3.592,0.22461,0.39296,0.04551,0.86078,0.67578
3.6,0.23047,0.38905,0.04551,0.85686,0.67578
3.608,0.23047,0.38514,0.04428,0.86078,0.67578
3.616,0.22461,0.38221,0.04305,0.85098,0.67969
3.624,0.22461,0.3783,0.04182,0.85686,0.67969
3.632,0.23047,0.37439,0.04182,0.85686,0.67578
3.64,0.23047,0.37146,0.03936,0.86078,0.67578
3.648,0.23047,0.36852,0.0369,0.85686,0.67578
3.656,0.23047,0.36657,0.03321,0.86078,0.67578
3.664,0.23047,0.36461,0.03075,0.86078,0.67578
3.672,0.23438,0.36168,0.02583,0.86078,0.67578
3.68,0.23438,0.35777,0.02091,0.86078,0.66992
3.688,0.25,0.35484,0.01599,0.87059,0.66016
3.696,0.28516,0.35191,0.0098401,0.8902,0.64453
3.704,0.30469,0.348,0.00492,0.90588,0.62891
3.712,0.31055,0.34506,0,0.90588,0.625
3.72,0.33984,0.34213,-0.00492,0.92549,0.60547
3.728,0.375,0.34018,-0.0098401,0.94706,0.58398
3.736,0.38477,0.34018,-0.01476,0.94118,0.58008
3.744,0.35938,0.34213,-0.01845,0.91569,0.58984
3.752,0.33594,0.34702,-0.02337,0.8902,0.60547
3.76,0.28516,0.35582,-0.02706,0.85098,0.625
3.768,0.27539,0.3695,-0.02952,0.86078,0.61914
3.776,0.29492,0.39003,-0.03321,0.86667,0.625
3.784,0.24609,0.41642,-0.03444,0.86078,0.66016
3.792,0.20117,0.44868,-0.0369,0.8451,0.69531
3.8,0.17969,0.48387,-0.03813,0.83137,0.70898
3.808,0.16992,0.52004,-0.03936,0.83529,0.7207
3.816,0.16016,0.55621,-0.03936,0.84118,0.7207
3.824,0.16016,0.59042,-0.03936,0.84118,0.72461
3.832,0.15625,0.62072,-0.03936,0.83529,0.73047
3.84,0.16016,0.64809,-0.03936,0.83529,0.72461
3.848,0.15625,0.66862,-0.03813,0.83529,0.73047
3.856,0.16016,0.68328,-0.0369,0.83529,0.72461
3.864,0.16602,0.69795,-0.03567,0.83529,0.72461
3.872,0.16992,0.71065,-0.03321,0.84118,0.7207
3.88,0.17578,0.72239,-0.03198,0.85098,0.7207
3.888,0.22461,0.73118,-0.02952,0.8902,0.69922
3.896,0.36523,0.73803,-0.02706,0.92157,0.61523
3.904,0.45508,0.74291,-0.0246,0.85098,0.5
3.912,0.51953,0.74682,-0.02214,0.72549,0.36523
3.92,0.32422,0.74878,-0.01968,0.50588,0.31445
3.928,0.041016,0.74976,-0.01722,0.43922,0.59961
3.936,0.099609,0.74878,-0.01476,0.82549,0.78516
3.944,0.14453,0.74585,-0.0123,0.87059,0.75977
3.952,0.17578,0.74096,-0.0086101,0.88039,0.73047
3.96,0.19531,0.73607,-0.0061501,0.8902,0.71484
3.968,0.18945,0.73021,-0.00369,0.8902,0.71484
3.976,0.20508,0.72141,-0.00123,0.89608,0.70508
3.984,0.21094,0.71163,0.00246,0.89608,0.69922
3.992,0.21484,0.6999,0.00492,0.89608,0.69922
4,0.2207,0.68622,0.0086101,0.89608,0.69922
4.008,0.22461,0.67058,0.0123,0.89608,0.69531
4.016,0.2207,0.65494,0.01599,0.89608,0.69531
4.024,0.2207,0.63832,0.01845,0.89608,0.69531
4.032,0.22461,0.6217,0.02214,0.89608,0.68945
4.04,0.24023,0.60606,0.02583,0.89608,0.67578
4.048,0.24023,0.59238,0.02829,0.89608,0.67578
4.056,0.25,0.57967,0.03198,0.90588,0.67578
4.064,0.25,0.56696,0.0369,0.90588,0.67578
4.072,0.25586,0.55523,0.04059,0.91176,0.66992
4.08,0.25977,0.54448,0.04551,0.91176,0.66406
4.088,0.26953,0.5347,0.0492,0.91569,0.66016
4.096,0.27539,0.52688,0.052891,0.91569,0.66016
4.104,0.27539,0.51906,0.056581,0.91569,0.6543
4.112,0.27539,0.51222,0.060271,0.91569,0.6543
4.12,0.27539,0.50635,0.063961,0.91569,0.66016
4.128,0.26953,0.49951,0.067651,0.92549,0.66992
4.136,0.25586,0.49365,0.070111,0.93137,0.67969
4.144,0.24023,0.48778,0.073801,0.93725,0.68945
4.152,0.22461,0.48289,0.077491,0.93725,0.69922
4.16,0.20508,0.47801,0.081181,0.93725,0.71484
4.168,0.17969,0.47214,0.083641,0.92549,0.73438
4.176,0.16602,0.46628,0.086101,0.91176,0.74414
4.184,0.16016,0.45943,0.088561,0.89608,0.74023
4.192,0.16992,0.45259,0.091021,0.88627,0.73047
4.2,0.17578,0.44575,0.093481,0.87059,0.7207
4.208,0.18945,0.43988,0.094711,0.87059,0.70508
4.216,0.19531,0.43402,0.097171,0.86078,0.69922
4.224,0.20508,0.42913,0.098401,0.86078,0.69922
4.232,0.21484,0.42522,0.10086,0.85686,0.68945
4.24,0.2207,0.42131,0.10209,0.85098,0.68945
4.248,0.2207,0.41838,0.10332,0.85098,0.69531
4.256,0.2207,0.41447,0.10455,0.85098,0.68945
4.264,0.21484,0.41056,0.10455,0.85686,0.69531
4.272,0.22461,0.40665,0.10578,0.85098,0.68945
4.28,0.22461,0.40176,0.10455,0.85686,0.68555
4.288,0.23047,0.39687,0.10455,0.85686,0.68555
4.296,0.23047,0.39198,0.10332,0.85686,0.68945
4.304,0.23047,0.38807,0.10209,0.85686,0.68555
4.312,0.23047,0.38416,0.099631,0.86078,0.68555
4.32,0.23047,0.38123,0.097171,0.86667,0.68555
4.328,0.23047,0.37732,0.093481,0.86667,0.68555
4.336,0.24023,0.37341,0.089791,0.87059,0.67578
4.344,0.2793,0.37048,0.086101,0.89608,0.6543
4.352,0.30078,0.36755,0.082411,0.91176,0.63477
4.36,0.30469,0.36461,0.078721,0.91176,0.63477
4.368,0.33008,0.3607,0.075031,0.92549,0.61914
4.376,0.36523,0.35777,0.071341,0.94118,0.59961
4.384,0.38086,0.35582,0.068881,0.93725,0.58398
4.392,0.35938,0.35679,0.065191,0.91569,0.59961
4.4,0.33008,0.36364,0.062731,0.8902,0.60938
4.408,0.2793,0.37439,0.061501,0.85686,0.62891
4.416,0.27539,0.39198,0.059041,0.86667,0.63477
4.424,0.29492,0.41544,0.057811,0.87059,0.625
4.432,0.24609,0.44379,0.057811,0.86667,0.66992
4.44,0.20508,0.47214,0.057811,0.8451,0.69922
4.448,0.17969,0.50049,0.057811,0.8451,0.71484
4.456,0.16602,0.53177,0.059041,0.8451,0.72461
4.464,0.15625,0.565,0.060271,0.84118,0.74023
4.472,0.15625,0.59531,0.061501,0.84118,0.74023
4.48,0.14453,0.62366,0.063961,0.8451,0.73438
4.488,0.15625,0.64809,0.065191,0.8451,0.74023
4.496,0.16016,0.66862,0.066421,0.8451,0.74414
4.504,0.15625,0.68622,0.068881,0.85098,0.74023
4.512,0.16016,0.6999,0.070111,0.8451,0.73438
4.52,0.16016,0.71065,0.072571,0.8451,0.74023
4.528,0.16602,0.71848,0.075031,0.85686,0.73438
4.536,0.21484,0.72434,0.077491,0.89608,0.7207
4.544,0.34961,0.72825,0.079951,0.93137,0.64062
4.552,0.44922,0.73021,0.082411,0.85686,0.51953
4.56,0.50977,0.73118,0.084871,0.74118,0.38477
4.568,0.33008,0.73216,0.087331,0.51569,0.33984
4.576,0.03125,0.73216,0.089791,0.4451,0.61914
4.584,0.089844,0.73021,0.092251,0.81569,0.80469
4.592,0.14453,0.7263,0.094711,0.87059,0.7793
4.6,0.16992,0.72141,0.097171,0.88039,0.74414
4.608,0.18555,0.71457,0.099631,0.8902,0.73438
4.616,0.18555,0.70479,0.10209,0.89608,0.74023
4.624,0.18945,0.69501,0.10332,0.90196,0.7207
4.632,0.18945,0.68231,0.10578,0.90196,0.7207
4.64,0.20508,0.6696,0.10824,0.90588,0.70898
4.648,0.20508,0.65689,0.1107,0.90588,0.70898
4.656,0.21484,0.64125,0.11439,0.91176,0.70508
4.664,0.2207,0.62561,0.11685,0.91176,0.70508
4.672,0.22461,0.60899,0.11931,0.91176,0.69922
4.68,0.23047,0.59335,0.12177,0.91176,0.69922
4.688,0.23047,0.57771,0.12546,0.91176,0.68945
4.696,0.24023,0.56403,0.12915,0.91176,0.68555
4.704,0.25586,0.55034,0.13161,0.91569,0.67578
4.712,0.25586,0.53861,0.1353,0.91569,0.67578
4.72,0.25586,0.52786,0.13899,0.91176,0.67578
4.728,0.26562,0.51808,0.14268,0.92157,0.66992
4.736,0.26562,0.51026,0.14637,0.92549,0.66406
4.744,0.27539,0.5044,0.15006,0.92157,0.66016
4.752,0.27539,0.49853,0.15375,0.92157,0.66406
4.76,0.2793,0.49267,0.15744,0.92157,0.6543
4.768,0.28516,0.4868,0.16113,0.92549,0.66016
4.776,0.27539,0.48094,0.16482,0.93137,0.66406
4.784,0.26562,0.47507,0.16851,0.93725,0.67578
4.792,0.24609,0.46823,0.1722,0.93725,0.68945
4.8,0.23047,0.46139,0.17589,0.93725,0.70898
4.808,0.20508,0.4565,0.17958,0.94118,0.72461
4.816,0.17969,0.45161,0.18204,0.93137,0.74414
4.824,0.16602,0.44673,0.18573,0.92157,0.74414
4.832,0.16016,0.44184,0.18819,0.90588,0.74414
4.84,0.16016,0.43793,0.19188,0.89608,0.74023
4.848,0.17578,0.43402,0.19434,0.88627,0.72461
4.856,0.19531,0.43011,0.1968,0.87647,0.70898
4.864,0.20508,0.42424,0.20049,0.87647,0.69922
4.872,0.21484,0.41935,0.20295,0.87059,0.69531
4.88,0.2207,0.41544,0.20541,0.86667,0.68945
4.888,0.2207,0.41056,0.20664,0.86078,0.68945
4.896,0.21094,0.40665,0.2091,0.86078,0.69531
4.904,0.2207,0.40274,0.21033,0.86078,0.69922
4.912,0.22461,0.39785,0.21279,0.86078,0.69531
4.92,0.22461,0.39394,0.21402,0.86078,0.68555
4.928,0.22461,0.39003,0.21525,0.86078,0.68945
4.936,0.23047,0.38514,0.21525,0.86667,0.68555
4.944,0.23438,0.38221,0.21648,0.86667,0.67969
4.952,0.23047,0.37928,0.21525,0.86667,0.68555
4.96,0.23047,0.37537,0.21525,0.87059,0.67969
4.968,0.23047,0.37146,0.21402,0.87059,0.68555
4.976,0.23438,0.36755,0.21279,0.87059,0.67969
4.984,0.23047,0.36364,0.21156,0.87647,0.68555
4.992,0.26562,0.35973,0.21033,0.89608,0.66016
5,0.29102,0.35582,0.2091,0.91569,0.65039
5.008,0.29492,0.35288,0.20787,0.91569,0.65039
5.016,0.31445,0.34995,0.20664,0.92157,0.62891
5.024,0.35547,0.348,0.20664,0.94118,0.60547
5.032,0.37109,0.348,0.20541,0.94706,0.5957
5.04,0.35938,0.34897,0.20541,0.92549,0.59961
5.048,0.33984,0.35386,0.20541,0.90196,0.60547
5.056,0.29492,0.36364,0.20541,0.86667,0.625
5.064,0.27539,0.37928,0.20664,0.85098,0.63477
5.072,0.29492,0.40176,0.20787,0.86667,0.625
5.08,0.25977,0.43011,0.2091,0.86667,0.65039
5.088,0.21484,0.46334,0.21156,0.85686,0.68555
5.096,0.17969,0.49951,0.21525,0.8451,0.70898
5.104,0.17969,0.53666,0.21894,0.8451,0.7207
5.112,0.16602,0.57087,0.22386,0.8451,0.72461
5.12,0.16992,0.60313,0.23001,0.8451,0.73047
5.128,0.16602,0.63148,0.23616,0.8451,0.72461
5.136,0.16602,0.65494,0.24354,0.8451,0.73047
5.144,0.16016,0.67253,0.24969,0.84118,0.73047
5.152,0.16016,0.68524,0.25584,0.83529,0.73438
5.16,0.16016,0.69697,0.26199,0.8451,0.72461
5.168,0.16992,0.70674,0.26814,0.85098,0.72461
5.176,0.16602,0.71554,0.27552,0.85098,0.72461
5.184,0.19531,0.72043,0.2829,0.88627,0.7207
5.192,0.32031,0.72434,0.29151,0.93137,0.6543
5.2,0.43945,0.7263,0.30012,0.87647,0.52539
5.208,0.55078,0.72825,0.30873,0.7902,0.39062
5.216,0.42969,0.72825,0.31611,0.59608,0.31445
5.224,0.095703,0.72727,0.32472,0.5,0.53906
5.232,0.064453,0.72434,0.33333,0.82549,0.78516
5.24,0.16992,0.71945,0.34194,0.8902,0.76562
5.248,0.16016,0.71261,0.35178,0.88627,0.74414
5.256,0.17969,0.70479,0.36285,0.89608,0.73438
5.264,0.17969,0.69404,0.37269,0.89608,0.72461
5.272,0.18555,0.68133,0.38499,0.89608,0.72461
5.28,0.18555,0.66667,0.39606,0.89608,0.7207
5.288,0.18945,0.65005,0.40836,0.90196,0.71484
5.296,0.19531,0.63148,0.41943,0.89608,0.70898
5.304,0.19531,0.6129,0.4305,0.89608,0.70508
5.312,0.19531,0.59238,0.44157,0.89608,0.70508
5.32,0.20508,0.57185,0.45141,0.90196,0.69922
5.328,0.21484,0.5523,0.46248,0.90588,0.69922
5.336,0.21484,0.53372,0.47355,0.90588,0.69531
5.344,0.2207,0.51808,0.48462,0.90588,0.68945
5.352,0.23047,0.50538,0.49692,0.90588,0.67969
5.36,0.23438,0.49169,0.50923,0.90588,0.67578
5.368,0.23438,0.47898,0.52153,0.90588,0.67578
5.376,0.24023,0.46823,0.5326,0.91176,0.67578
5.384,0.24609,0.45748,0.54244,0.91176,0.67578
5.392,0.25,0.44673,0.55351,0.91569,0.67578
5.4,0.25586,0.43695,0.56458,0.91569,0.66992
5.408,0.26953,0.42717,0.57688,0.92157,0.66016
5.416,0.25586,0.41838,0.58918,0.92549,0.66992
5.424,0.25586,0.40958,0.60148,0.93137,0.67578
5.432,0.24609,0.40176,0.61501,0.93725,0.68555
5.44,0.23438,0.39492,0.62854,0.94118,0.69531
5.448,0.21094,0.38905,0.6433,0.94118,0.71484
5.456,0.18945,0.38221,0.65683,0.94118,0.72461
5.464,0.16602,0.37634,0.66913,0.93137,0.74414
5.472,0.16016,0.3695,0.68143,0.92157,0.74414
5.48,0.14453,0.36266,0.6925,0.90588,0.75
5.488,0.15625,0.35484,0.70357,0.89608,0.74023
5.496,0.16602,0.34897,0.71464,0.88039,0.73047
5.504,0.17969,0.34213,0.72571,0.87647,0.71484
5.512,0.20117,0.33627,0.73678,0.87059,0.70508
5.52,0.20508,0.32942,0.74785,0.86667,0.69922
5.528,0.21094,0.32356,0.75769,0.86078,0.69531
5.536,0.22461,0.31672,0.76753,0.86078,0.68555
5.544,0.2207,0.31183,0.77614,0.85686,0.68945
5.552,0.22461,0.30792,0.78598,0.85686,0.69531
5.56,0.23047,0.30303,0.79459,0.85686,0.68555
5.568,0.2207,0.29814,0.8032,0.86078,0.68945
5.576,0.23047,0.29326,0.81181,0.86078,0.67969
5.584,0.23047,0.28739,0.82042,0.86078,0.67969
5.592,0.23047,0.28152,0.8278,0.86078,0.67969
5.6,0.22461,0.27566,0.83518,0.86078,0.68555
5.608,0.23047,0.27077,0.84256,0.86667,0.67969
5.616,0.23047,0.26588,0.84871,0.87059,0.67969
5.624,0.23047,0.261,0.85363,0.86078,0.67578
5.632,0.24023,0.25611,0.85978,0.87059,0.67578
5.64,0.26562,0.25318,0.86347,0.88627,0.6543
5.648,0.29492,0.24927,0.86839,0.90196,0.64453
5.656,0.30078,0.24536,0.87208,0.90588,0.64062
5.664,0.31055,0.24047,0.87577,0.91176,0.625
5.672,0.34961,0.23558,0.87946,0.94118,0.60547
5.68,0.375,0.23265,0.88438,0.93725,0.58398
5.688,0.38086,0.23265,0.88684,0.92549,0.58984
5.696,0.34961,0.23656,0.89053,0.90196,0.59961
5.704,0.30469,0.24633,0.89299,0.86078,0.61914
5.712,0.29102,0.26197,0.89668,0.8451,0.625
5.72,0.30078,0.28641,0.90037,0.86667,0.61914
5.728,0.26953,0.31867,0.90406,0.86667,0.64453
5.736,0.23047,0.35582,0.91021,0.85098,0.67969
5.744,0.18555,0.39101,0.91513,0.83137,0.70508
5.752,0.17969,0.42522,0.92128,0.83137,0.7207
5.76,0.17578,0.46334,0.92743,0.83529,0.71484
5.768,0.16992,0.50244,0.93481,0.8451,0.7207
5.776,0.16602,0.53861,0.94219,0.84118,0.72461
5.784,0.16016,0.56989,0.94957,0.83529,0.73438
5.792,0.15625,0.59726,0.95572,0.83137,0.73438
5.8,0.15039,0.61975,0.96187,0.83137,0.73438
5.808,0.16016,0.63734,0.96802,0.83529,0.73047
5.816,0.16602,0.652,0.9754,0.84118,0.72461
5.824,0.16602,0.66276,0.98278,0.8451,0.72461
5.832,0.18945,0.67058,0.99139,0.87647,0.7207
5.84,0.31445,0.67546,1,0.92157,0.6543
5.848,0.44531,0.67742,1.0074,0.87647,0.52539
5.856,0.58984,0.67937,1.0148,0.81176,0.375
5.864,0.50977,0.67937,1.0221,0.62941,0.29102
5.872,0.15625,0.67742,1.0283,0.51569,0.49414
5.88,0.10547,0.67449,1.0357,0.81569,0.75391
5.888,0.19531,0.6696,1.0431,0.90196,0.76562
5.896,0.16992,0.66276,1.0517,0.8902,0.74414
5.904,0.18555,0.65396,1.0603,0.8902,0.7207
5.912,0.17969,0.64321,1.0689,0.89608,0.7207
5.92,0.18555,0.6305,1.0775,0.89608,0.71484
5.928,0.17969,0.61486,1.0861,0.8902,0.7207
5.936,0.17969,0.59726,1.0959,0.88627,0.71484
5.944,0.18945,0.57967,1.1033,0.88627,0.71484
5.952,0.18555,0.56305,1.1119,0.8902,0.71484
5.96,0.19531,0.54448,1.1193,0.8902,0.70898
5.968,0.20117,0.52395,1.1267,0.8902,0.70898
5.976,0.20508,0.50538,1.1279,0.89608,0.70508
5.984,0.21094,0.48583,1.1292,0.89608,0.69922
5.992,0.21484,0.46921,1.1292,0.89608,0.69531
6,0.22461,0.45259,1.1292,0.89608,0.68945
6.008,0.23047,0.43793,1.1292,0.89608,0.68555
6.016,0.23047,0.42424,1.1292,0.90196,0.67969
6.024,0.24609,0.41349,1.1292,0.90196,0.67578
6.032,0.24609,0.40274,1.1292,0.90196,0.67578
6.04,0.25586,0.39492,1.1292,0.90588,0.66992
6.048,0.25586,0.38807,1.1292,0.90588,0.67578
6.056,0.25586,0.38123,1.1292,0.91176,0.66992
6.064,0.25586,0.37341,1.1292,0.91176,0.67578
6.072,0.25,0.36657,1.1292,0.91569,0.67578
6.08,0.23047,0.35875,1.1292,0.92157,0.68945
6.088,0.2207,0.35093,1.1292,0.92549,0.69922
6.096,0.18945,0.34311,1.1292,0.92157,0.7207
6.104,0.17969,0.33627,1.1292,0.91569,0.73438
6.112,0.15625,0.32942,1.1292,0.91569,0.74414
6.12,0.13477,0.32356,1.1292,0.90588,0.75391
6.128,0.13086,0.31672,1.1292,0.8902,0.75977
6.136,0.13477,0.31183,1.1292,0.87647,0.74414
6.144,0.15039,0.30694,1.1292,0.87059,0.74414
6.152,0.16016,0.30205,1.1292,0.87059,0.73047
6.16,0.17578,0.29619,1.1292,0.86667,0.7207
6.168,0.18945,0.29032,1.1292,0.86078,0.69922
6.176,0.21094,0.28446,1.1292,0.86078,0.69531
6.184,0.21484,0.27957,1.1292,0.86078,0.68945
6.192,0.2207,0.27468,1.1292,0.86078,0.68555
6.2,0.2207,0.26979,1.1292,0.86078,0.68555
6.208,0.22461,0.26393,1.1292,0.85686,0.68555
6.216,0.2207,0.25806,1.1292,0.86078,0.68555
6.224,0.23047,0.2522,1.1292,0.85686,0.67578
6.232,0.23047,0.24633,1.1292,0.86078,0.67969
6.24,0.23438,0.24145,1.1292,0.86667,0.67578
6.248,0.23438,0.23754,1.1292,0.87059,0.67969
6.256,0.24609,0.23363,1.1292,0.87059,0.67578
6.264,0.24609,0.22972,1.1292,0.88039,0.67969
6.272,0.24609,0.22581,1.1292,0.88039,0.67969
6.28,0.24609,0.2219,1.1292,0.88039,0.67969
6.288,0.25586,0.21799,1.1292,0.88627,0.67578
6.296,0.28516,0.2131,1.1292,0.90588,0.65039
6.304,0.31055,0.20821,1.1292,0.92157,0.63477
6.312,0.31055,0.20332,1.1292,0.91569,0.63477
6.32,0.33984,0.19941,1.1292,0.93725,0.61523
6.328,0.375,0.1955,1.1292,0.96078,0.59961
6.336,0.39062,0.1955,1.1292,0.95098,0.58984
6.344,0.36523,0.19844,1.1292,0.93725,0.60547
6.352,0.33984,0.20821,1.1292,0.90196,0.60938
6.36,0.29492,0.22385,1.1292,0.86667,0.62891
6.368,0.29102,0.24829,1.1292,0.87059,0.625
6.376,0.30469,0.27957,1.1292,0.87059,0.625
6.384,0.25977,0.31769,1.1292,0.87059,0.66406
6.392,0.21484,0.3607,1.1292,0.85686,0.69531
6.4,0.19531,0.40469,1.1292,0.85686,0.70898
6.408,0.18555,0.44966,1.1292,0.85686,0.7207
6.416,0.17969,0.49169,1.1292,0.85686,0.72461
6.424,0.17578,0.52884,1.1255,0.85098,0.73047
6.432,0.16602,0.56207,1.1205,0.85098,0.74023
6.44,0.16602,0.58651,1.1058,0.85098,0.73438
6.448,0.16602,0.60508,1.091,0.85686,0.74023
6.456,0.17578,0.62268,1.0763,0.85686,0.73438
6.464,0.16602,0.63734,1.0615,0.86078,0.74023
6.472,0.16992,0.64907,1.0467,0.86078,0.73438
6.48,0.17578,0.65885,1.0308,0.87059,0.73047
6.488,0.25586,0.66667,1.0172,0.92157,0.69922
6.496,0.38477,0.67253,1.0025,0.94118,0.60547
6.504,0.48047,0.67644,0.98893,0.85686,0.49414
6.512,0.5293,0.6784,0.97417,0.72157,0.35547
6.52,0.30078,0.6784,0.95941,0.49412,0.32031
6.528,0.041016,0.67742,0.94465,0.46078,0.6543
6.536,0.12109,0.67449,0.92866,0.85098,0.78906
6.544,0.15625,0.6696,0.9139,0.88627,0.76562
6.552,0.17578,0.66276,0.89668,0.89608,0.74023
6.56,0.18945,0.65396,0.88069,0.90588,0.72461
6.568,0.19531,0.64321,0.86347,0.91176,0.72461
6.576,0.20508,0.62854,0.84748,0.91569,0.7207
6.584,0.20508,0.6129,0.83149,0.91569,0.7207
6.592,0.20508,0.59433,0.8155,0.91569,0.71484
6.6,0.21484,0.5738,0.80074,0.91569,0.70898
6.608,0.22461,0.55327,0.78598,0.91569,0.69922
6.616,0.23047,0.53275,0.77122,0.91569,0.69922
6.624,0.23047,0.51222,0.75646,0.91569,0.69922
6.632,0.23047,0.49267,0.7417,0.91569,0.69922
6.64,0.24023,0.47605,0.72694,0.91569,0.68555
6.648,0.24609,0.46139,0.71464,0.91569,0.67969
6.656,0.25586,0.44673,0.70111,0.91569,0.67969
6.664,0.26562,0.43304,0.69004,0.92549,0.67578
6.672,0.27539,0.42033,0.67774,0.92549,0.66406
6.68,0.27539,0.4086,0.66667,0.93137,0.66406
6.688,0.27539,0.39785,0.65437,0.92549,0.66016
6.696,0.27539,0.38807,0.6433,0.93725,0.6543
6.704,0.28516,0.37928,0.631,0.94118,0.6543
6.712,0.29102,0.37146,0.6187,0.94118,0.66016
6.72,0.29102,0.36364,0.6064,0.94118,0.66016
6.728,0.27539,0.35679,0.5941,0.95098,0.66992
6.736,0.26953,0.34995,0.5818,0.94706,0.67969
6.744,0.25586,0.34506,0.57073,0.94706,0.69531
6.752,0.23438,0.3392,0.55966,0.95098,0.70508
6.76,0.21484,0.33236,0.54982,0.94118,0.7207
6.768,0.18555,0.32454,0.53998,0.94118,0.74023
6.776,0.16992,0.31769,0.53014,0.92549,0.74414
6.784,0.16992,0.31085,0.5203,0.91569,0.74414
6.792,0.17578,0.30401,0.51046,0.89608,0.73438
6.8,0.17969,0.29912,0.50062,0.8902,0.72461
6.808,0.19531,0.29326,0.49077,0.88039,0.71484
6.816,0.20508,0.28837,0.48216,0.87647,0.70508
6.824,0.2207,0.28348,0.47232,0.87647,0.69922
6.832,0.22461,0.27859,0.46248,0.87059,0.69922
6.84,0.23047,0.27468,0.45264,0.87059,0.68945
6.848,0.23047,0.27077,0.4428,0.86667,0.68945
6.856,0.23047,0.26686,0.43173,0.87059,0.68945
6.864,0.23047,0.26295,0.42189,0.87059,0.68945
6.872,0.23438,0.25904,0.40959,0.87059,0.68555
6.88,0.23047,0.25513,0.39729,0.87059,0.68945
6.888,0.23438,0.25122,0.38376,0.87059,0.68555
6.896,0.23438,0.24829,0.37023,0.87059,0.68945
6.904,0.24023,0.24438,0.3567,0.87059,0.68555
6.912,0.23438,0.24047,0.3444,0.87059,0.68555
6.92,0.24023,0.23656,0.3321,0.87647,0.67969
6.928,0.24609,0.23363,0.3198,0.88039,0.67969
6.936,0.24023,0.23167,0.30627,0.88627,0.67578
6.944,0.26562,0.22972,0.29274,0.89608,0.66406
6.952,0.30078,0.22678,0.27798,0.92157,0.64453
6.96,0.31445,0.22287,0.26445,0.93137,0.63477
6.968,0.31055,0.21994,0.25215,0.92549,0.62891
6.976,0.35547,0.21799,0.23862,0.94118,0.60547
6.984,0.38086,0.21701,0.22755,0.96078,0.58984
6.992,0.39062,0.22092,0.21648,0.94118,0.58008
7,0.36523,0.22972,0.20541,0.91569,0.59961
7.008,0.33008,0.24536,0.19434,0.88627,0.60938
7.016,0.28516,0.26882,0.18327,0.85686,0.62891
7.024,0.30469,0.3001,0.1722,0.86667,0.61914
7.032,0.2793,0.3392,0.16236,0.87059,0.64453
7.04,0.23438,0.37732,0.15375,0.87647,0.67969
7.048,0.20117,0.41544,0.14514,0.85686,0.70508
7.056,0.17969,0.45943,0.13776,0.85098,0.7207
7.064,0.16602,0.50342,0.13161,0.8451,0.72461
7.072,0.16602,0.54643,0.12669,0.8451,0.73047
7.08,0.16016,0.58553,0.12177,0.85098,0.73438
7.088,0.16016,0.61975,0.11808,0.85098,0.73438
7.096,0.16016,0.64907,0.11439,0.85098,0.73047
7.104,0.16016,0.67253,0.1107,0.85686,0.73438
7.112,0.16016,0.69306,0.10701,0.85098,0.73438
7.12,0.16016,0.7087,0.10332,0.85686,0.73438
7.128,0.16602,0.72141,0.10086,0.85686,0.73047
7.136,0.18555,0.73021,0.098401,0.87647,0.7207
7.144,0.2793,0.73509,0.097171,0.93725,0.68555
7.152,0.41992,0.73998,0.095941,0.94118,0.57031
7.16,0.49414,0.74389,0.094711,0.82549,0.45508
7.168,0.5293,0.7478,0.093481,0.65098,0.33008
7.176,0.16602,0.74976,0.092251,0.44902,0.42578
7.184,0.044922,0.75073,0.091021,0.69608,0.74414
7.192,0.13477,0.74878,0.089791,0.87059,0.79492
7.2,0.16016,0.74487,0.089791,0.88627,0.75977
7.208,0.18945,0.73803,0.089791,0.89608,0.72461
7.216,0.20117,0.72923,0.089791,0.89608,0.72461
7.224,0.20117,0.71652,0.089791,0.90196,0.7207
7.232,0.20117,0.70283,0.089791,0.90588,0.7207
7.24,0.20508,0.68915,0.091021,0.90196,0.71484
7.248,0.21094,0.67546,0.091021,0.91176,0.70508
7.256,0.22461,0.65885,0.092251,0.91176,0.69922
7.264,0.2207,0.64125,0.092251,0.91176,0.70508
7.272,0.23047,0.62268,0.092251,0.91569,0.68945
7.28,0.23047,0.60508,0.092251,0.91569,0.68945
7.288,0.24609,0.58847,0.092251,0.91569,0.68555
7.296,0.25,0.57185,0.092251,0.91176,0.67969
7.304,0.25586,0.55621,0.091021,0.91569,0.67578
7.312,0.25586,0.54154,0.091021,0.92157,0.67578
7.32,0.26562,0.52884,0.089791,0.92549,0.66406
7.328,0.26953,0.51613,0.088561,0.92157,0.66016
7.336,0.27539,0.50538,0.087331,0.92549,0.6543
7.344,0.2793,0.4956,0.086101,0.93137,0.6543
7.352,0.28516,0.48778,0.083641,0.93725,0.65039
7.36,0.29102,0.47996,0.082411,0.93137,0.6543
7.368,0.2793,0.47507,0.079951,0.93725,0.6543
7.376,0.29102,0.47214,0.077491,0.94118,0.66406
7.384,0.27539,0.47312,0.076261,0.94118,0.67578
7.392,0.25977,0.47801,0.073801,0.94118,0.67969
7.4,0.24609,0.48485,0.072571,0.94706,0.69922
7.408,0.22461,0.49462,0.071341,0.94706,0.70898
7.416,0.20117,0.50538,0.071341,0.94118,0.73047
7.424,0.17969,0.51613,0.070111,0.93725,0.74414
7.432,0.16602,0.5259,0.070111,0.92157,0.74414
7.44,0.16602,0.53372,0.070111,0.90196,0.74023
7.448,0.17578,0.54057,0.071341,0.8902,0.72461
7.456,0.18555,0.54839,0.072571,0.88039,0.7207
7.464,0.19531,0.55621,0.073801,0.87647,0.70898
7.472,0.21094,0.565,0.076261,0.87059,0.69922
7.48,0.21484,0.57283,0.078721,0.87059,0.69531
7.488,0.2207,0.57869,0.081181,0.86078,0.68945
7.496,0.2207,0.58162,0.084871,0.85686,0.68945
7.504,0.22461,0.57869,0.088561,0.85686,0.68555
7.512,0.22461,0.57087,0.091021,0.86078,0.68945
7.52,0.23047,0.55718,0.093481,0.86078,0.67969
7.528,0.23047,0.53959,0.095941,0.86078,0.67969
7.536,0.23047,0.52102,0.099631,0.86078,0.67969
7.544,0.22461,0.50147,0.10086,0.86078,0.68555
7.552,0.22461,0.47801,0.10332,0.86667,0.68945
7.56,0.22461,0.45259,0.10578,0.87059,0.68945
7.568,0.23047,0.42522,0.10701,0.87059,0.68555
7.576,0.23047,0.39785,0.10701,0.87059,0.68945
7.584,0.23047,0.3695,0.10701,0.87059,0.68555
7.592,0.23047,0.34311,0.10578,0.87059,0.68945
7.6,0.25,0.31769,0.10578,0.88627,0.66992
7.608,0.29102,0.29521,0.10455,0.90588,0.65039
7.616,0.30078,0.2737,0.10332,0.91176,0.64453
7.624,0.31055,0.25611,0.10209,0.91569,0.625
7.632,0.34961,0.24242,0.10086,0.93725,0.60547
7.64,0.38086,0.23363,0.098401,0.94118,0.58984
7.648,0.36523,0.23069,0.097171,0.92549,0.58398
7.656,0.3457,0.23167,0.094711,0.90588,0.60547
7.664,0.30469,0.24047,0.093481,0.87647,0.61914
7.672,0.27539,0.25709,0.091021,0.85098,0.63477
7.68,0.29102,0.2825,0.089791,0.87059,0.625
7.688,0.26562,0.31476,0.088561,0.86667,0.65039
7.696,0.21484,0.35288,0.087331,0.85686,0.69531
7.704,0.17969,0.39394,0.086101,0.8451,0.71484
7.712,0.16016,0.43597,0.086101,0.84118,0.72461
7.72,0.16016,0.47801,0.084871,0.8451,0.73438
7.728,0.16016,0.51711,0.084871,0.8451,0.73047
7.736,0.15625,0.54741,0.086101,0.8451,0.74023
7.744,0.14453,0.57283,0.087331,0.8451,0.74414
7.752,0.14453,0.59726,0.088561,0.8451,0.74414
7.76,0.15039,0.61975,0.089791,0.8451,0.74414
7.768,0.15039,0.63832,0.092251,0.8451,0.74023
7.776,0.15039,0.65396,0.093481,0.8451,0.74023
7.784,0.16016,0.66569,0.095941,0.85098,0.73438
7.792,0.18555,0.67546,0.098401,0.87647,0.7207
7.8,0.29492,0.68231,0.10086,0.93137,0.67578
7.808,0.42578,0.68719,0.10455,0.8902,0.55078
7.816,0.50586,0.68915,0.10701,0.79608,0.43555
7.824,0.51562,0.68915,0.10947,0.60588,0.32422
7.832,0.099609,0.68719,0.11316,0.4549,0.48047
7.84,0.03125,0.68328,0.11562,0.73529,0.76953
7.848,0.13477,0.67742,0.11808,0.86078,0.79492
7.856,0.16016,0.6696,0.12177,0.87059,0.75
7.864,0.17969,0.6608,0.12423,0.88039,0.73047
7.872,0.17969,0.65005,0.12669,0.88627,0.72461
7.88,0.18555,0.63734,0.12792,0.8902,0.7207
7.888,0.19531,0.62268,0.13038,0.8902,0.7207
7.896,0.19531,0.60704,0.13161,0.89608,0.7207
7.904,0.20508,0.58847,0.13407,0.89608,0.71484
7.912,0.20508,0.56989,0.1353,0.89608,0.70508
7.92,0.21484,0.55034,0.13653,0.90196,0.69922
7.928,0.21094,0.53079,0.13899,0.90588,0.70508
7.936,0.2207,0.51417,0.14022,0.90196,0.69922
7.944,0.22461,0.49951,0.14268,0.90196,0.69922
7.952,0.23047,0.48387,0.14514,0.90196,0.68945
7.96,0.23438,0.47019,0.1476,0.90588,0.68555
7.968,0.24609,0.45748,0.15129,0.91176,0.67578
7.976,0.25,0.44673,0.15375,0.91176,0.67578
7.984,0.25586,0.43695,0.15744,0.91569,0.67578
7.992,0.25586,0.42913,0.16113,0.91569,0.66406
8,0.26562,0.42229,0.16482,0.91176,0.66016
8.008,0.27539,0.41544,0.16851,0.91569,0.6543
8.016,0.27539,0.4086,0.1722,0.91569,0.6543
8.024,0.2793,0.40274,0.17466,0.91569,0.6543
8.032,0.27539,0.39785,0.17835,0.92157,0.66406
8.04,0.26562,0.39394,0.18081,0.93137,0.67578
8.048,0.24609,0.38905,0.18327,0.93137,0.68945
8.056,0.23047,0.38416,0.1845,0.93725,0.69922
8.064,0.20508,0.38025,0.18696,0.93725,0.71484
8.072,0.18555,0.37537,0.18942,0.93137,0.72461
8.08,0.16016,0.37146,0.19188,0.91569,0.74414
8.088,0.15625,0.36755,0.19434,0.90588,0.75
8.096,0.15039,0.36266,0.1968,0.8902,0.74414
8.104,0.16016,0.35875,0.19926,0.87647,0.73438
8.112,0.17578,0.35386,0.20172,0.86667,0.7207
8.12,0.18555,0.34995,0.20295,0.86078,0.70508
8.128,0.19531,0.34604,0.20418,0.86078,0.69922
8.136,0.20508,0.34311,0.20418,0.86078,0.69531
8.144,0.20508,0.34115,0.20418,0.85686,0.68945
8.152,0.21094,0.33822,0.20295,0.85098,0.68945
8.16,0.21484,0.33627,0.20295,0.85098,0.68945
8.168,0.21094,0.33236,0.20049,0.85686,0.69531
8.176,0.21484,0.32942,0.19926,0.85686,0.69531
8.184,0.21094,0.32649,0.1968,0.85686,0.69531
8.192,0.21484,0.32356,0.19434,0.85686,0.69531
8.2,0.21094,0.32063,0.19188,0.85686,0.68945
8.208,0.2207,0.31769,0.18942,0.86078,0.68555
8.216,0.2207,0.31476,0.18573,0.86078,0.68945
8.224,0.22461,0.31183,0.18081,0.86078,0.68945
8.232,0.22461,0.30987,0.17589,0.86667,0.68945
8.24,0.23047,0.3089,0.16974,0.86667,0.68555
8.248,0.23047,0.30694,0.16482,0.86667,0.68555
8.256,0.25,0.30499,0.1599,0.88039,0.66406
8.264,0.29102,0.30205,0.15621,0.90588,0.64062
8.272,0.30078,0.29814,0.15129,0.91569,0.62891
8.28,0.30469,0.29521,0.14637,0.91176,0.62891
8.288,0.34961,0.29228,0.14268,0.93725,0.60547
8.296,0.37109,0.29228,0.13776,0.94118,0.58984
8.304,0.37109,0.29619,0.13284,0.92157,0.58398
8.312,0.33594,0.30596,0.12915,0.89608,0.60547
8.32,0.31055,0.3216,0.12669,0.87059,0.61523
8.328,0.27539,0.34409,0.12423,0.8451,0.63477
8.336,0.28516,0.37048,0.12177,0.85686,0.625
8.344,0.25977,0.3998,0.12054,0.85098,0.64453
8.352,0.2207,0.43597,0.11808,0.8451,0.67969
8.36,0.18555,0.47703,0.11808,0.83529,0.69922
8.368,0.17969,0.52004,0.11685,0.83137,0.71484
8.376,0.16602,0.56207,0.11808,0.83529,0.7207
8.384,0.16602,0.6002,0.11808,0.83137,0.7207
8.392,0.16016,0.63539,0.11931,0.83529,0.72461
8.4,0.15625,0.66471,0.12177,0.83529,0.73438
8.408,0.16016,0.6911,0.123,0.83137,0.73438
8.416,0.15625,0.71261,0.12546,0.83529,0.73438
8.424,0.16016,0.73021,0.12669,0.84118,0.73047
8.432,0.16016,0.74194,0.12792,0.83529,0.73438
8.44,0.16016,0.74976,0.13038,0.84118,0.72461
8.448,0.18555,0.75758,0.13161,0.86667,0.71484
8.456,0.29102,0.76344,0.13407,0.92157,0.66992
8.464,0.41992,0.76735,0.13653,0.88627,0.55469
8.472,0.49414,0.76931,0.13776,0.80588,0.44531
8.48,0.51562,0.76931,0.14022,0.61569,0.32031
8.488,0.125,0.76833,0.14268,0.4451,0.44531
8.496,0.035156,0.7654,0.14514,0.7098,0.74414
8.504,0.15039,0.76149,0.1476,0.86078,0.7793
8.512,0.16602,0.75464,0.14883,0.87059,0.74023
8.52,0.19531,0.74585,0.15129,0.88039,0.71484
8.528,0.20117,0.73412,0.15252,0.88627,0.71484
8.536,0.19531,0.72141,0.15375,0.88627,0.71484
8.544,0.20117,0.70772,0.15621,0.8902,0.70898
8.552,0.21094,0.6911,0.15867,0.8902,0.69922
8.56,0.21484,0.67351,0.1599,0.89608,0.69922
8.568,0.21094,0.65591,0.16236,0.89608,0.70508
8.576,0.2207,0.63636,0.16482,0.89608,0.69922
8.584,0.2207,0.61779,0.16728,0.90196,0.69922
8.592,0.22461,0.59922,0.16974,0.89608,0.69531
8.6,0.23047,0.5826,0.1722,0.90196,0.68555
8.608,0.23438,0.56598,0.17466,0.90196,0.67969
8.616,0.24023,0.55132,0.17835,0.90588,0.67969
8.624,0.24609,0.53763,0.18081,0.90588,0.67578
8.632,0.25,0.52688,0.18573,0.91176,0.66992
8.64,0.26562,0.51711,0.18942,0.91176,0.66016
8.648,0.26953,0.50733,0.19434,0.91569,0.66016
8.656,0.27539,0.49756,0.19926,0.90588,0.6543
8.664,0.26953,0.48974,0.20295,0.91176,0.6543
8.672,0.28516,0.48094,0.20787,0.91569,0.65039
8.68,0.28516,0.47312,0.21156,0.91569,0.65039
8.688,0.28516,0.4653,0.21525,0.93137,0.6543
8.696,0.27539,0.45846,0.22017,0.92549,0.66406
8.704,0.25977,0.45161,0.22386,0.93725,0.67578
8.712,0.24023,0.44477,0.22755,0.93725,0.69531
8.72,0.22461,0.43695,0.23247,0.93725,0.70898
8.728,0.19531,0.43011,0.23616,0.92549,0.73047
8.736,0.17969,0.42424,0.24108,0.91569,0.74414
8.744,0.16602,0.41935,0.246,0.90588,0.74414
8.752,0.16016,0.41349,0.24969,0.89608,0.74414
8.76,0.16602,0.40762,0.25461,0.88039,0.73438
8.768,0.17969,0.40078,0.26076,0.87059,0.7207
8.776,0.19531,0.39492,0.26568,0.86667,0.69922
8.784,0.21484,0.38905,0.27183,0.87059,0.68945
8.792,0.22461,0.38319,0.27675,0.86667,0.68555
8.8,0.22461,0.3783,0.28167,0.85686,0.67969
8.808,0.22461,0.37341,0.28659,0.85686,0.67969
8.816,0.23047,0.36852,0.29274,0.86078,0.67969
8.824,0.23047,0.36266,0.29643,0.86078,0.67578
8.832,0.23047,0.35777,0.30135,0.86078,0.67578
8.84,0.23047,0.35386,0.30504,0.85686,0.67578
8.848,0.23047,0.34995,0.30873,0.85686,0.67578
8.856,0.23438,0.34604,0.31119,0.86078,0.67578
8.864,0.23438,0.34115,0.31488,0.86078,0.67578
8.872,0.23438,0.33724,0.31734,0.86667,0.67578
8.88,0.24023,0.33236,0.3198,0.87059,0.66992
8.888,0.25,0.32845,0.32103,0.87059,0.66406
8.896,0.24023,0.32356,0.32226,0.86667,0.66992
8.904,0.24609,0.32063,0.32349,0.86667,0.66406
8.912,0.25,0.31574,0.32472,0.87059,0.66992
8.92,0.2793,0.31183,0.32595,0.8902,0.65039
8.928,0.29492,0.30792,0.32841,0.90588,0.64453
8.936,0.30078,0.30596,0.32964,0.90588,0.64062
8.944,0.32031,0.30401,0.33087,0.91569,0.61914
8.952,0.35938,0.30303,0.33333,0.93137,0.60547
8.96,0.37109,0.30596,0.33579,0.93725,0.5957
8.968,0.3457,0.31183,0.33825,0.90588,0.60547
8.976,0.33594,0.32454,0.34194,0.88039,0.60938
8.984,0.2793,0.34506,0.3444,0.8451,0.63477
8.992,0.29492,0.37243,0.34686,0.85098,0.625
9,0.2793,0.40665,0.34932,0.85686,0.62891
9.008,0.25,0.44673,0.35178,0.8451,0.66016
9.016,0.21094,0.48876,0.3567,0.84118,0.68945
9.024,0.17969,0.53177,0.36162,0.82549,0.70898
9.032,0.17578,0.56891,0.36777,0.83137,0.7207
9.04,0.16602,0.6002,0.37392,0.83137,0.7207
9.048,0.16016,0.63245,0.38007,0.83137,0.73047
9.056,0.16016,0.66178,0.38745,0.83137,0.73047
9.064,0.16602,0.68719,0.3936,0.83529,0.73047
9.072,0.16016,0.70968,0.40098,0.8451,0.73438
9.08,0.16016,0.72727,0.40836,0.84118,0.74023
9.088,0.16602,0.74194,0.41574,0.8451,0.73047
9.096,0.16602,0.75269,0.42558,0.84118,0.72461
9.104,0.16992,0.76149,0.43419,0.8451,0.72461
9.112,0.23438,0.76735,0.44403,0.88627,0.70508
9.12,0.37109,0.77028,0.45387,0.90588,0.60938
9.128,0.47461,0.77224,0.46494,0.83137,0.49023
9.136,0.56055,0.77028,0.47478,0.72549,0.33594
9.144,0.33984,0.76735,0.48462,0.51569,0.30469
9.152,0.080078,0.76344,0.49446,0.48039,0.64453
9.16,0.15039,0.75758,0.50308,0.86078,0.77539
9.168,0.17578,0.75073,0.51169,0.88039,0.75
9.176,0.17969,0.74194,0.52153,0.87647,0.72461
9.184,0.18555,0.73118,0.53014,0.88039,0.7207
9.192,0.19531,0.7175,0.54121,0.88627,0.7207
9.2,0.20117,0.70186,0.55105,0.8902,0.71484
9.208,0.18945,0.68426,0.56089,0.88627,0.70898
9.216,0.19531,0.66569,0.57073,0.8902,0.71484
9.224,0.21094,0.64614,0.58057,0.89608,0.69922
9.232,0.21094,0.62757,0.58918,0.8902,0.69922
9.24,0.2207,0.61095,0.60025,0.89608,0.69922
9.248,0.2207,0.59335,0.61009,0.89608,0.69922
9.256,0.22461,0.57478,0.62239,0.89608,0.69922
9.264,0.23047,0.55718,0.63469,0.89608,0.68945
9.272,0.23047,0.54154,0.64699,0.89608,0.68555
9.28,0.23047,0.5259,0.66052,0.8902,0.68555
9.288,0.24023,0.5132,0.67405,0.8902,0.67969
9.296,0.24609,0.50049,0.68758,0.8902,0.67578
9.304,0.25586,0.49071,0.69988,0.89608,0.67578
9.312,0.25977,0.48192,0.71218,0.89608,0.66992
9.32,0.26562,0.47312,0.72448,0.89608,0.66992
9.328,0.25586,0.4653,0.73678,0.90196,0.66992
9.336,0.26562,0.45846,0.74785,0.90588,0.66406
9.344,0.26953,0.45259,0.76015,0.91569,0.66992
9.352,0.26953,0.44673,0.77245,0.91569,0.67578
9.36,0.25586,0.43988,0.78475,0.91569,0.68555
9.368,0.23438,0.43304,0.79582,0.92157,0.69922
9.376,0.21094,0.42717,0.80689,0.92549,0.71484
9.384,0.18945,0.42033,0.81673,0.92549,0.73047
9.392,0.16992,0.41349,0.82657,0.91569,0.74414
9.4,0.16602,0.40665,0.83641,0.90196,0.75
9.408,0.15625,0.3998,0.84748,0.88627,0.75
9.416,0.16016,0.39394,0.85732,0.87059,0.74023
9.424,0.17969,0.38807,0.86716,0.86078,0.7207
9.432,0.19531,0.38319,0.877,0.86078,0.70898
9.44,0.20508,0.37928,0.88684,0.85098,0.69922
9.448,0.21094,0.37439,0.89668,0.8451,0.69531
9.456,0.22461,0.36852,0.90529,0.8451,0.68945
9.464,0.23047,0.36266,0.9139,0.84118,0.68555
9.472,0.23047,0.35777,0.92128,0.84118,0.67969
9.48,0.23047,0.35191,0.92866,0.84118,0.67969
9.488,0.23438,0.34702,0.93604,0.84118,0.67578
9.496,0.23047,0.34213,0.94219,0.8451,0.67969
9.504,0.24023,0.33822,0.94834,0.8451,0.67578
9.512,0.23438,0.33431,0.95326,0.85098,0.67578
9.52,0.23438,0.3304,0.95818,0.8451,0.67969
9.528,0.23438,0.32649,0.96187,0.8451,0.67969
9.536,0.24609,0.32454,0.96556,0.8451,0.67578
9.544,0.24023,0.3216,0.96802,0.85098,0.67578
9.552,0.24609,0.31867,0.97171,0.85686,0.67578
9.56,0.24023,0.31378,0.97294,0.85686,0.67578
9.568,0.25586,0.30987,0.97417,0.86667,0.66992
9.576,0.27539,0.30499,0.9754,0.87647,0.65039
9.584,0.30469,0.30108,0.97663,0.90196,0.62891
9.592,0.31055,0.29717,0.97786,0.89608,0.62891
9.6,0.33594,0.29326,0.97786,0.90588,0.61523
9.608,0.37109,0.29032,0.97909,0.93137,0.5957
9.616,0.39453,0.2913,0.98032,0.93725,0.58008
9.624,0.36523,0.29521,0.98032,0.91176,0.5957
9.632,0.33984,0.30205,0.98155,0.8902,0.60547
9.64,0.29492,0.31378,0.98278,0.85098,0.625
9.648,0.2793,0.33236,0.98401,0.8451,0.62891
9.656,0.30078,0.35777,0.98524,0.85686,0.61914
9.664,0.25977,0.39003,0.9877,0.85098,0.6543
9.672,0.2207,0.42522,0.99016,0.84118,0.67969
9.68,0.17969,0.46334,0.99262,0.82157,0.70508
9.688,0.17969,0.50147,0.99631,0.82549,0.70898
9.696,0.16602,0.53861,0.99877,0.83137,0.7207
9.704,0.16602,0.57185,1.0025,0.83137,0.7207
9.712,0.15625,0.60117,1.0049,0.82549,0.73047
9.72,0.16016,0.62659,1.0098,0.83137,0.72461
9.728,0.16602,0.64516,1.0135,0.83137,0.72461
9.736,0.16992,0.65885,1.0185,0.83137,0.72461
9.744,0.16992,0.67058,1.0246,0.83529,0.72461
9.752,0.17578,0.68133,1.0295,0.84118,0.7207
9.76,0.17969,0.68915,1.0357,0.84118,0.7207
9.768,0.23438,0.69599,1.0418,0.88627,0.70508
9.776,0.37109,0.6999,1.048,0.90588,0.60938
9.784,0.49023,0.70283,1.0541,0.83529,0.48438
9.792,0.5957,0.70479,1.0603,0.73529,0.33008
9.8,0.38477,0.70479,1.0652,0.52941,0.29492
9.808,0.10547,0.70186,1.0701,0.48431,0.62891
9.816,0.16992,0.69795,1.075,0.86667,0.76953
9.824,0.19531,0.6911,1.0812,0.89608,0.74414
9.832,0.16992,0.68426,1.0861,0.87647,0.73438
9.84,0.17578,0.67546,1.091,0.87059,0.72461
9.848,0.17578,0.66471,1.0959,0.87059,0.72461
9.856,0.17969,0.65103,1.1009,0.87647,0.72461
9.864,0.17969,0.63636,1.1046,0.88627,0.7207
9.872,0.17969,0.61975,1.1095,0.88627,0.71484
9.88,0.18945,0.60117,1.1144,0.88627,0.70898
9.888,0.20508,0.5826,1.1193,0.88627,0.70508
9.896,0.20117,0.56403,1.1242,0.88627,0.70508
9.904,0.20508,0.54545,1.1292,0.8902,0.69922
9.912,0.20508,0.52688,1.1292,0.8902,0.69922
9.92,0.21484,0.51026,1.1292,0.8902,0.69531
9.928,0.21484,0.49658,1.1292,0.8902,0.68945
9.936,0.22461,0.48485,1.1292,0.8902,0.68555
9.944,0.23047,0.4741,1.1292,0.88627,0.67969
9.952,0.24023,0.46334,1.1292,0.89608,0.67578
9.96,0.24023,0.45357,1.1292,0.8902,0.67578
9.968,0.24609,0.44477,1.1292,0.89608,0.67578
9.976,0.24609,0.43597,1.1292,0.89608,0.67578
9.984,0.25586,0.42815,1.1292,0.89608,0.66992
9.992,0.24609,0.42033,1.1292,0.90588,0.67578
10,0.25,0.41251,1.1292,0.91176,0.67578
10.008,0.24023,0.40567,1.1292,0.91176,0.67969
10.016,0.23047,0.39883,1.1292,0.91569,0.69922
10.024,0.21094,0.39296,1.1292,0.91569,0.70898
10.032,0.18945,0.38807,1.1292,0.91569,0.7207
10.04,0.17578,0.38416,1.1292,0.91569,0.73047
10.048,0.15625,0.37928,1.1292,0.91176,0.75
10.056,0.13477,0.37341,1.1292,0.89608,0.75391
10.064,0.13477,0.36755,1.1292,0.88627,0.76562
10.072,0.13477,0.36168,1.1292,0.87059,0.75
10.08,0.15625,0.35582,1.1292,0.86667,0.73438
10.088,0.17578,0.34995,1.1292,0.86078,0.7207
10.096,0.18555,0.34311,1.1292,0.85686,0.71484
10.104,0.20508,0.33724,1.1292,0.85098,0.69922
10.112,0.21094,0.33236,1.1292,0.85098,0.69922
10.12,0.21484,0.32747,1.1292,0.85098,0.69531
10.128,0.21484,0.32454,1.1292,0.85098,0.69531
10.136,0.2207,0.32454,1.1292,0.85098,0.68945
10.144,0.21484,0.32551,1.1292,0.85098,0.69531
10.152,0.2207,0.32942,1.1292,0.85098,0.68945
10.16,0.22461,0.33627,1.1292,0.85098,0.68945
10.168,0.23047,0.34409,1.1292,0.85098,0.68555
10.176,0.23047,0.35288,1.1292,0.85686,0.68555
10.184,0.22461,0.3607,1.1292,0.85686,0.67969
10.192,0.23047,0.36657,1.1292,0.86078,0.67969
10.2,0.23438,0.37048,1.1292,0.86667,0.67578
10.208,0.24023,0.37243,1.1292,0.86667,0.67578
10.216,0.23438,0.37341,1.1292,0.86667,0.67578
10.224,0.24609,0.37341,1.1292,0.87059,0.67578
10.232,0.26953,0.37243,1.1292,0.88039,0.66016
10.24,0.30078,0.37146,1.1292,0.90588,0.64062
10.248,0.30078,0.3695,1.1292,0.90588,0.64453
10.256,0.31445,0.36755,1.1292,0.90588,0.625
10.264,0.34961,0.36559,1.1292,0.93725,0.60547
10.272,0.38086,0.36364,1.1292,0.94706,0.58984
10.28,0.35938,0.36461,1.1205,0.92549,0.59961
10.288,0.33984,0.36755,1.1119,0.8902,0.60547
10.296,0.29492,0.37537,1.0984,0.85686,0.62891
10.304,0.2793,0.39003,1.0836,0.8451,0.63477
10.312,0.30078,0.41153,1.0689,0.86078,0.625
10.32,0.26953,0.43793,1.0541,0.86078,0.65039
10.328,0.22461,0.4653,1.0394,0.8451,0.68945
10.336,0.19531,0.49267,1.0246,0.83529,0.69922
10.344,0.17969,0.52493,1.0111,0.83137,0.71484
10.352,0.17969,0.55816,0.99754,0.83137,0.7207
10.36,0.16992,0.59042,0.98278,0.83529,0.72461
10.368,0.16602,0.62072,0.96925,0.83529,0.73438
10.376,0.16016,0.64809,0.95449,0.83529,0.73438
10.384,0.16016,0.67253,0.93973,0.84118,0.73047
10.392,0.16602,0.69404,0.92374,0.84118,0.73047
10.4,0.16602,0.71163,0.90898,0.84118,0.73438
10.408,0.16602,0.72532,0.89422,0.8451,0.73047
10.416,0.17578,0.73607,0.87823,0.8451,0.72461
10.424,0.21484,0.74389,0.8647,0.88627,0.70898
10.432,0.33594,0.74682,0.85117,0.93725,0.64062
10.44,0.45508,0.74585,0.83764,0.87647,0.51953
10.448,0.53906,0.74487,0.82534,0.78039,0.39453
10.456,0.41016,0.74096,0.81181,0.57059,0.32031
10.464,0.064453,0.73705,0.79828,0.47059,0.54492
10.472,0.041016,0.73021,0.78475,0.8,0.78906
10.48,0.14453,0.72141,0.77122,0.87647,0.79492
10.488,0.16016,0.71163,0.75892,0.8902,0.74414
10.496,0.17969,0.69892,0.74539,0.89608,0.73438
10.504,0.18555,0.68328,0.73432,0.90588,0.73047
10.512,0.18945,0.66667,0.72202,0.90588,0.72461
10.52,0.19531,0.64712,0.70972,0.91569,0.7207
10.528,0.19531,0.62854,0.69619,0.91569,0.7207
10.536,0.20508,0.60899,0.68389,0.91569,0.7207
10.544,0.20508,0.58749,0.67036,0.91569,0.7207
10.552,0.20508,0.56403,0.65683,0.91569,0.71484
10.56,0.21094,0.53959,0.6433,0.91569,0.70898
10.568,0.21484,0.51515,0.631,0.92157,0.69922
10.576,0.22461,0.49267,0.61747,0.91569,0.69922
10.584,0.23047,0.47019,0.60517,0.91569,0.69531
10.592,0.24023,0.44966,0.59287,0.91569,0.68945
10.6,0.24609,0.42913,0.5818,0.91569,0.67969
10.608,0.25586,0.41153,0.57073,0.92157,0.67578
10.616,0.25586,0.39492,0.55843,0.92157,0.67578
10.624,0.26562,0.38025,0.54736,0.92549,0.66992
10.632,0.26953,0.3695,0.53506,0.93725,0.66992
10.64,0.27539,0.3607,0.52399,0.93725,0.66406
10.648,0.27539,0.35191,0.51292,0.94118,0.66406
10.656,0.27539,0.34213,0.50308,0.94706,0.66992
10.664,0.26562,0.33333,0.49323,0.95098,0.67969
10.672,0.25586,0.32454,0.48339,0.95098,0.68555
10.68,0.24023,0.31574,0.47355,0.96078,0.69922
10.688,0.22461,0.30792,0.46248,0.96667,0.70898
10.696,0.20508,0.3001,0.45018,0.96078,0.73047
10.704,0.17969,0.29326,0.43911,0.94706,0.74414
10.712,0.16602,0.28641,0.42681,0.94118,0.75
10.72,0.16016,0.28055,0.41451,0.92549,0.75
10.728,0.15625,0.27664,0.40221,0.91569,0.74414
10.736,0.16602,0.2737,0.38991,0.89608,0.73047
10.744,0.17969,0.26882,0.37884,0.8902,0.7207
10.752,0.20117,0.26491,0.36777,0.88039,0.70898
10.76,0.20508,0.26002,0.3567,0.87647,0.70508
10.768,0.21094,0.25611,0.34686,0.87059,0.69531
10.776,0.2207,0.2522,0.33456,0.87059,0.68945
10.784,0.22461,0.24829,0.32226,0.87059,0.68555
10.792,0.2207,0.24438,0.30873,0.87059,0.68945
10.8,0.2207,0.24242,0.29643,0.87059,0.68945
10.808,0.21484,0.23949,0.28413,0.87059,0.68555
10.816,0.2207,0.23656,0.27183,0.87059,0.69531
10.824,0.22461,0.2346,0.26076,0.87647,0.68555
10.832,0.22461,0.23363,0.24969,0.87647,0.68945
10.84,0.22461,0.23363,0.23616,0.87647,0.68555
10.848,0.23047,0.23363,0.22263,0.88039,0.68945
10.856,0.23047,0.23265,0.20787,0.88039,0.67969
10.864,0.23047,0.23167,0.19311,0.88039,0.68555
10.872,0.22461,0.23069,0.17712,0.88627,0.68555
10.88,0.23047,0.22874,0.16113,0.8902,0.67969
10.888,0.26562,0.22776,0.14391,0.90588,0.66016
10.896,0.29492,0.22581,0.12792,0.93137,0.64453
10.904,0.30078,0.22385,0.11316,0.93137,0.64062
10.912,0.31445,0.22287,0.098401,0.94118,0.62891
10.92,0.35547,0.22385,0.084871,0.96078,0.60547
10.928,0.37109,0.22678,0.072571,0.96667,0.5957
10.936,0.35938,0.23265,0.061501,0.93725,0.59961
10.944,0.33594,0.24242,0.0492,0.91176,0.60938
10.952,0.29102,0.25806,0.03813,0.87647,0.62891
10.96,0.26953,0.28055,0.02829,0.87059,0.64453
10.968,0.28516,0.30987,0.01845,0.88039,0.62891
10.976,0.24609,0.34506,0.0098401,0.87647,0.66016
10.984,0.20117,0.38514,0.00123,0.87059,0.69922
10.992,0.16992,0.42815,-0.0061501,0.85686,0.7207
11,0.16016,0.47116,-0.01353,0.85686,0.72461
11.008,0.15625,0.5132,-0.01968,0.85686,0.73438
11.016,0.16016,0.5523,-0.02583,0.86667,0.73438
11.024,0.15625,0.58749,-0.03198,0.86078,0.74023
11.032,0.15039,0.61486,-0.0369,0.86078,0.74023
11.04,0.15625,0.63734,-0.04059,0.86078,0.74023
11.048,0.15039,0.65787,-0.04428,0.86078,0.74414
11.056,0.15625,0.67742,-0.04797,0.86078,0.74414
11.064,0.16016,0.69306,-0.050431,0.86078,0.73438
11.072,0.16992,0.70674,-0.052891,0.86667,0.72461
11.08,0.20508,0.7175,-0.055351,0.90196,0.71484
11.088,0.33984,0.72727,-0.056581,0.95098,0.64062
11.096,0.44922,0.73412,-0.057811,0.88039,0.51953
11.104,0.51953,0.73803,-0.057811,0.78039,0.39453
11.112,0.38086,0.74096,-0.057811,0.5549,0.32422
11.12,0.050781,0.74096,-0.057811,0.4549,0.55078
11.128,0.025391,0.73998,-0.057811,0.7902,0.78906
11.136,0.13477,0.73705,-0.057811,0.88039,0.79492
11.144,0.15625,0.73216,-0.057811,0.8902,0.74414
11.152,0.17969,0.7263,-0.057811,0.90196,0.73047
11.16,0.18555,0.71848,-0.057811,0.90588,0.72461
11.168,0.19531,0.7087,-0.056581,0.90588,0.7207
11.176,0.18945,0.69599,-0.056581,0.91176,0.7207
11.184,0.20117,0.68231,-0.056581,0.90588,0.7207
11.192,0.19531,0.66764,-0.056581,0.91176,0.71484
11.2,0.20117,0.65103,-0.055351,0.91176,0.71484
11.208,0.20508,0.63343,-0.054121,0.91569,0.69922
11.216,0.21484,0.61486,-0.051661,0.91569,0.69531
11.224,0.22461,0.59629,-0.050431,0.91569,0.69531
11.232,0.22461,0.58065,-0.04797,0.91569,0.69922
11.24,0.23047,0.56598,-0.04551,0.91176,0.68945
11.248,0.23047,0.55034,-0.04305,0.91569,0.68555
11.256,0.23438,0.53666,-0.04059,0.91569,0.68555
11.264,0.24609,0.52493,-0.03813,0.91569,0.67578
11.272,0.25586,0.51417,-0.03567,0.91569,0.66992
11.28,0.25977,0.5044,-0.03198,0.92549,0.66406
11.288,0.26953,0.4956,-0.02952,0.93137,0.6543
11.296,0.27539,0.48778,-0.02583,0.92549,0.6543
11.304,0.2793,0.48094,-0.02214,0.93137,0.6543
11.312,0.2793,0.47312,-0.01845,0.93725,0.66406
11.32,0.27539,0.4653,-0.01476,0.94118,0.66016
11.328,0.25977,0.46334,-0.01107,0.94118,0.67578
11.336,0.25,0.46334,-0.0073801,0.94706,0.68945
11.344,0.23047,0.46041,-0.00369,0.94706,0.70508
11.352,0.21094,0.4565,-0.00123,0.95098,0.7207
11.36,0.18555,0.45161,0.00246,0.94118,0.73047
11.368,0.16992,0.44673,0.00492,0.93137,0.74414
11.376,0.16016,0.44184,0.0086101,0.91569,0.74414
11.384,0.16602,0.43695,0.01107,0.90196,0.74023
11.392,0.17578,0.43109,0.01353,0.8902,0.72461
11.4,0.18555,0.42522,0.01476,0.88039,0.71484
11.408,0.19531,0.42033,0.01722,0.87647,0.70508
11.416,0.20508,0.41447,0.01845,0.87059,0.69922
11.424,0.20508,0.40958,0.01968,0.86667,0.69922
11.432,0.21094,0.40567,0.02091,0.86078,0.69531
11.44,0.21484,0.40274,0.02214,0.86078,0.68945
11.448,0.21094,0.3998,0.02337,0.86078,0.69531
11.456,0.2207,0.39589,0.0246,0.86078,0.68945
11.464,0.22461,0.39198,0.0246,0.86078,0.68555
11.472,0.23047,0.38807,0.02583,0.86078,0.68555
11.48,0.22461,0.38416,0.0246,0.86078,0.68945
11.488,0.22461,0.38123,0.0246,0.86078,0.68945
11.496,0.23047,0.37732,0.02337,0.86078,0.69531
11.504,0.23047,0.37341,0.02214,0.86078,0.68555
11.512,0.23047,0.3695,0.01845,0.86667,0.68555
11.52,0.23047,0.36559,0.01476,0.86667,0.68555
11.528,0.23047,0.36266,0.01107,0.87059,0.68555
11.536,0.23047,0.3607,0.0061501,0.87059,0.68555
11.544,0.24023,0.35777,0.00246,0.87647,0.67578
11.552,0.28516,0.35484,-0.00123,0.90588,0.65039
11.56,0.30078,0.35191,-0.00492,0.91569,0.63477
11.568,0.30469,0.34897,-0.0073801,0.91569,0.62891
11.576,0.33008,0.348,-0.0098401,0.93137,0.60938
11.584,0.37109,0.348,-0.01353,0.94118,0.5957
11.592,0.38477,0.35093,-0.01599,0.93725,0.58008
11.6,0.35547,0.35777,-0.01722,0.91569,0.5957
11.608,0.33594,0.37146,-0.01845,0.8902,0.60547
11.616,0.29102,0.39198,-0.01968,0.85686,0.62891
11.624,0.30078,0.41447,-0.01968,0.86667,0.61914
11.632,0.2793,0.43988,-0.01968,0.86078,0.625
11.64,0.24023,0.47214,-0.01968,0.85686,0.66992
11.648,0.20117,0.50929,-0.01845,0.8451,0.69922
11.656,0.17969,0.54839,-0.01722,0.83529,0.70898
11.664,0.17578,0.58651,-0.01599,0.83529,0.7207
11.672,0.16992,0.62268,-0.01476,0.83529,0.7207
11.68,0.16016,0.65494,-0.0123,0.84118,0.73047
11.688,0.16602,0.68328,-0.01107,0.84118,0.73047
11.696,0.16992,0.70772,-0.0086101,0.84118,0.72461
11.704,0.16602,0.72727,-0.0061501,0.8451,0.72461
11.712,0.16602,0.74487,-0.00369,0.84118,0.73047
11.72,0.16992,0.75855,0,0.8451,0.72461
11.728,0.16602,0.76735,0.00369,0.84118,0.72461
11.736,0.17969,0.77322,0.0061501,0.8451,0.7207
11.744,0.24609,0.7781,0.0098401,0.90196,0.69531
11.752,0.39453,0.78201,0.0123,0.92157,0.58984
11.76,0.47461,0.78495,0.01599,0.83137,0.48047
11.768,0.51953,0.78495,0.01845,0.68039,0.3457
11.776,0.26953,0.78495,0.02091,0.46078,0.31445
11.784,0.035156,0.78201,0.0246,0.43922,0.66406
11.792,0.12109,0.77908,0.02706,0.83529,0.78516
11.8,0.15625,0.77615,0.02952,0.87059,0.75977
11.808,0.18555,0.77126,0.03198,0.88039,0.73047
11.816,0.20117,0.76735,0.03444,0.88627,0.7207
11.824,0.20117,0.76149,0.0369,0.8902,0.7207
11.832,0.20508,0.75464,0.04059,0.89608,0.71484
11.84,0.21094,0.74682,0.04305,0.89608,0.70898
11.848,0.21094,0.73705,0.04674,0.89608,0.70898
11.856,0.21484,0.72727,0.0492,0.89608,0.69922
11.864,0.2207,0.71652,0.052891,0.89608,0.69531
11.872,0.22461,0.70577,0.055351,0.89608,0.68945
11.88,0.23047,0.69599,0.057811,0.89608,0.68945
11.888,0.23438,0.68719,0.061501,0.90196,0.67969
11.896,0.24023,0.67937,0.063961,0.90196,0.67969
11.904,0.24609,0.67253,0.067651,0.90588,0.67578
11.912,0.25,0.66569,0.072571,0.90588,0.67578
11.92,0.25977,0.65982,0.076261,0.90588,0.66406
11.928,0.25977,0.65396,0.079951,0.91176,0.66406
11.936,0.26953,0.64712,0.083641,0.91176,0.66016
11.944,0.27539,0.64125,0.086101,0.91569,0.6543
11.952,0.28516,0.63539,0.089791,0.91569,0.65039
11.96,0.29492,0.6305,0.093481,0.91569,0.64453
11.968,0.30078,0.62561,0.097171,0.92157,0.64453
11.976,0.29102,0.6217,0.10086,0.92549,0.65039
11.984,0.29492,0.61779,0.10578,0.93137,0.65039
11.992,0.2793,0.6129,0.10947,0.94118,0.66406
12,0.25977,0.60802,0.11316,0.93725,0.68555
12.008,0.24609,0.60215,0.11685,0.94118,0.69531
12.016,0.2207,0.59531,0.12054,0.94118,0.70898
12.024,0.20117,0.58847,0.123,0.92549,0.72461
12.032,0.17969,0.58162,0.12669,0.91569,0.73438
12.04,0.16602,0.57283,0.12915,0.89608,0.74023
12.048,0.16992,0.56403,0.13161,0.88627,0.73047
12.056,0.17969,0.55327,0.13407,0.87059,0.7207
12.064,0.20117,0.54252,0.1353,0.86667,0.70508
12.072,0.21094,0.53177,0.13776,0.86078,0.69531
12.08,0.21484,0.52199,0.13899,0.85686,0.68945
12.088,0.22461,0.51222,0.14022,0.85686,0.67969
12.096,0.22461,0.5044,0.14145,0.85098,0.67969
12.104,0.23047,0.49658,0.14268,0.85098,0.67578
12.112,0.2207,0.48876,0.14391,0.85098,0.67969
12.12,0.22461,0.48192,0.14391,0.85098,0.67969
12.128,0.22461,0.47605,0.14391,0.85098,0.67969
12.136,0.23047,0.47019,0.14268,0.85686,0.67578
12.144,0.22461,0.46334,0.14145,0.85686,0.67969
12.152,0.22461,0.45552,0.13899,0.85098,0.67969
12.16,0.22461,0.4477,0.13653,0.86078,0.67969
12.168,0.23047,0.43793,0.13161,0.86078,0.67969
12.176,0.22461,0.42717,0.12792,0.86667,0.67578
12.184,0.23047,0.41642,0.12423,0.87059,0.67578
12.192,0.23047,0.40567,0.12054,0.86667,0.67578
12.2,0.24023,0.39394,0.11685,0.87647,0.66992
12.208,0.26953,0.38221,0.11193,0.8902,0.6543
12.216,0.30078,0.37048,0.10701,0.91176,0.64062
12.224,0.30078,0.36168,0.10332,0.91176,0.63477
12.232,0.31445,0.35386,0.097171,0.91569,0.625
12.24,0.35547,0.34604,0.092251,0.94118,0.60547
12.248,0.38086,0.34018,0.088561,0.93725,0.58008
12.256,0.38477,0.33724,0.084871,0.91569,0.58984
12.264,0.3457,0.33822,0.082411,0.8902,0.59961
12.272,0.30469,0.34604,0.079951,0.85686,0.61914
12.28,0.2793,0.3607,0.078721,0.8451,0.62891
12.288,0.30078,0.38221,0.077491,0.86078,0.61523
12.296,0.25977,0.4086,0.076261,0.85098,0.65039
12.304,0.21484,0.43891,0.076261,0.8451,0.68555
12.312,0.17969,0.47214,0.076261,0.84118,0.70508
12.32,0.17578,0.50635,0.077491,0.83529,0.7207
12.328,0.16602,0.5347,0.078721,0.83529,0.72461
12.336,0.16016,0.55914,0.079951,0.83529,0.73438
12.344,0.15039,0.58358,0.082411,0.83529,0.73438
12.352,0.15625,0.60508,0.083641,0.83529,0.74023
12.36,0.14453,0.62463,0.086101,0.83529,0.74414
12.368,0.15039,0.64027,0.088561,0.84118,0.74023
12.376,0.15625,0.65298,0.091021,0.8451,0.73438
12.384,0.16016,0.66373,0.093481,0.8451,0.73438
12.392,0.16016,0.67155,0.097171,0.8451,0.73438
12.4,0.21094,0.67742,0.099631,0.88039,0.71484
12.408,0.33008,0.68133,0.10209,0.92157,0.6543
12.416,0.43945,0.68328,0.10455,0.86078,0.52539
12.424,0.51953,0.68231,0.10701,0.7549,0.39453
12.432,0.38086,0.68035,0.10824,0.5451,0.32422
12.44,0.054688,0.6784,0.1107,0.4549,0.56055
12.448,0.041016,0.67449,0.11316,0.8,0.78906
12.456,0.14062,0.6696,0.11562,0.87059,0.76953
12.464,0.15625,0.66276,0.11931,0.87647,0.74414
12.472,0.17969,0.65396,0.12177,0.8902,0.73047
12.48,0.17969,0.64321,0.12546,0.8902,0.72461
12.488,0.18555,0.63148,0.12915,0.89608,0.7207
12.496,0.18555,0.61779,0.13284,0.89608,0.7207
12.504,0.19531,0.60215,0.13653,0.89608,0.71484
12.512,0.20117,0.58553,0.14145,0.89608,0.7207
12.52,0.20508,0.56891,0.14514,0.89608,0.70508
12.528,0.20508,0.55327,0.15006,0.89608,0.70508
12.536,0.20508,0.53861,0.15498,0.89608,0.69922
12.544,0.20508,0.52395,0.1599,0.89608,0.69922
12.552,0.21484,0.50929,0.16605,0.89608,0.69922
12.56,0.21484,0.49462,0.17097,0.90196,0.69531
12.568,0.23047,0.48192,0.17712,0.89608,0.68555
12.576,0.23438,0.47019,0.18327,0.89608,0.68555
12.584,0.24609,0.46041,0.18942,0.89608,0.67578
12.592,0.24023,0.45064,0.19557,0.90588,0.67578
12.6,0.25,0.44282,0.20295,0.90588,0.67578
12.608,0.25586,0.43597,0.2091,0.91176,0.67578
12.616,0.25977,0.43011,0.21771,0.91569,0.66992
12.624,0.26562,0.42522,0.22509,0.91569,0.66406
12.632,0.26562,0.42033,0.2337,0.92157,0.66992
12.64,0.25586,0.41642,0.24231,0.92549,0.67578
12.648,0.25586,0.41153,0.25215,0.93725,0.67969
12.656,0.24023,0.40665,0.26076,0.93725,0.69531
12.664,0.2207,0.40176,0.26937,0.93725,0.70898
12.672,0.20117,0.39785,0.27798,0.93725,0.7207
12.68,0.17578,0.39296,0.28536,0.93725,0.74023
12.688,0.15625,0.38905,0.29274,0.91569,0.74414
12.696,0.14453,0.38612,0.30135,0.90196,0.75391
12.704,0.15039,0.38514,0.30873,0.8902,0.74414
12.712,0.15625,0.38612,0.31734,0.87059,0.73438
12.72,0.17969,0.38807,0.32595,0.86667,0.7207
12.728,0.18555,0.39101,0.33333,0.86078,0.70898
12.736,0.20117,0.39589,0.34071,0.86078,0.69531
12.744,0.20508,0.40176,0.34686,0.85098,0.68945
12.752,0.21094,0.40958,0.35424,0.85098,0.68555
12.76,0.21484,0.41838,0.36162,0.85686,0.68555
12.768,0.21484,0.42717,0.36777,0.85098,0.68555
12.776,0.21094,0.43695,0.37392,0.85098,0.68945
12.784,0.2207,0.44575,0.3813,0.85098,0.68555
12.792,0.21484,0.45455,0.38622,0.85098,0.68555
12.8,0.2207,0.46139,0.39237,0.85686,0.67969
12.808,0.21484,0.46725,0.39729,0.85686,0.68555
12.816,0.2207,0.47116,0.40221,0.85686,0.67969
12.824,0.22461,0.47312,0.4059,0.86078,0.67969
12.832,0.23047,0.47312,0.40959,0.86667,0.68555
12.84,0.23047,0.47214,0.41205,0.87059,0.67578
12.848,0.2207,0.46921,0.41451,0.86667,0.67969
12.856,0.22461,0.46334,0.41697,0.87059,0.67969
12.864,0.24023,0.4565,0.41943,0.87647,0.66992
12.872,0.28516,0.4477,0.42189,0.90196,0.64453
12.88,0.29492,0.43891,0.42435,0.91176,0.64453
12.888,0.29492,0.43011,0.42681,0.90196,0.64062
12.896,0.33594,0.42326,0.42804,0.93137,0.61523
12.904,0.36523,0.41838,0.4305,0.94118,0.5957
12.912,0.36523,0.4174,0.43296,0.92549,0.58984
12.92,0.33008,0.42033,0.43665,0.90588,0.60547
12.928,0.30469,0.42717,0.44034,0.87647,0.61914
12.936,0.26953,0.43793,0.44649,0.85098,0.64062
12.944,0.2793,0.45552,0.45141,0.86078,0.62891
12.952,0.25977,0.47996,0.45756,0.86078,0.64453
12.96,0.21484,0.50929,0.46371,0.85098,0.68555
12.968,0.17969,0.54154,0.46986,0.8451,0.70898
12.976,0.16602,0.57576,0.47724,0.83529,0.7207
12.984,0.15625,0.60997,0.48339,0.83529,0.72461
12.992,0.15039,0.64223,0.49077,0.83529,0.73438
13,0.15625,0.67253,0.49692,0.83529,0.73438
13.008,0.14453,0.69892,0.50431,0.83529,0.74023
13.016,0.15039,0.72141,0.51169,0.83529,0.74414
13.024,0.14062,0.73803,0.5203,0.84118,0.74023
13.032,0.14453,0.74976,0.52891,0.84118,0.74414
13.04,0.14453,0.76051,0.53752,0.84118,0.74023
13.048,0.14453,0.76833,0.5449,0.83529,0.74414
13.056,0.16992,0.77517,0.55228,0.85686,0.73047
13.064,0.26953,0.7781,0.55966,0.90588,0.68555
13.072,0.4043,0.78006,0.56704,0.87647,0.56055
13.08,0.52539,0.7781,0.57442,0.81176,0.43555
13.088,0.56055,0.77419,0.58303,0.63529,0.31445
13.096,0.16602,0.76833,0.59164,0.47451,0.45508
13.104,0.080078,0.76149,0.60025,0.74118,0.74414
13.112,0.17969,0.75171,0.61009,0.88627,0.7793
13.12,0.16602,0.73998,0.61993,0.87059,0.74414
13.128,0.17578,0.72727,0.631,0.87059,0.73047
13.136,0.18555,0.71359,0.64084,0.88627,0.7207
13.144,0.17969,0.69795,0.65068,0.88627,0.72461
13.152,0.18945,0.67937,0.65929,0.88627,0.7207
13.16,0.19531,0.65787,0.6679,0.8902,0.7207
13.168,0.20117,0.63539,0.67651,0.89608,0.70898
13.176,0.19531,0.61095,0.68635,0.8902,0.70898
13.184,0.20117,0.58749,0.69619,0.8902,0.70508
13.192,0.20508,0.56305,0.70726,0.88627,0.70898
13.2,0.21484,0.54057,0.71833,0.8902,0.69922
13.208,0.22461,0.51906,0.7294,0.8902,0.69922
13.216,0.22461,0.49853,0.73924,0.88627,0.69922
13.224,0.23047,0.48192,0.74908,0.88627,0.68945
13.232,0.23438,0.46725,0.75769,0.89608,0.67969
13.24,0.24023,0.45259,0.76876,0.89608,0.67578
13.248,0.25,0.43793,0.77983,0.89608,0.67578
13.256,0.25,0.42424,0.79213,0.90196,0.67578
13.264,0.25586,0.41251,0.8032,0.89608,0.67578
13.272,0.26562,0.40176,0.8155,0.90196,0.66992
13.28,0.26562,0.39101,0.82903,0.91176,0.66992
13.288,0.26562,0.38221,0.84133,0.90588,0.66992
13.296,0.25977,0.37439,0.85363,0.91569,0.67578
13.304,0.26562,0.36657,0.8647,0.92549,0.67578
13.312,0.24023,0.35875,0.87577,0.93137,0.68555
13.32,0.2207,0.35093,0.88561,0.93137,0.69922
13.328,0.20117,0.34506,0.89545,0.93137,0.7207
13.336,0.17969,0.34018,0.90652,0.92157,0.73438
13.344,0.16016,0.33529,0.91759,0.91569,0.74414
13.352,0.15625,0.32942,0.92743,0.90588,0.74414
13.36,0.14453,0.32356,0.9385,0.89608,0.74414
13.368,0.16016,0.31769,0.94834,0.87647,0.73047
13.376,0.17578,0.29717,0.95818,0.86667,0.7207
13.384,0.19531,0.26979,0.96556,0.86078,0.69922
13.392,0.20508,0.25318,0.97417,0.85098,0.69531
13.4,0.2207,0.2434,0.98278,0.8451,0.67969
13.408,0.2207,0.23656,0.99139,0.8451,0.68555
13.416,0.22461,0.23167,1,0.8451,0.67969
13.424,0.2207,0.22874,1.0086,0.8451,0.68945
13.432,0.2207,0.22678,1.0172,0.8451,0.67969
13.44,0.23047,0.22385,1.0258,0.8451,0.67969
13.448,0.23047,0.22092,1.0332,0.8451,0.67969
13.456,0.23047,0.21701,1.0406,0.8451,0.67969
13.464,0.23047,0.21408,1.0455,0.8451,0.67969
13.472,0.23047,0.21114,1.0517,0.85686,0.67969
13.48,0.23047,0.20919,1.0554,0.85686,0.67969
13.488,0.23047,0.20626,1.059,0.85686,0.67969
13.496,0.23047,0.2043,1.0627,0.85686,0.67969
13.504,0.23438,0.20235,1.0664,0.85686,0.67578
13.512,0.23047,0.20039,1.0701,0.85098,0.67969
13.52,0.24609,0.19941,1.0738,0.85686,0.66992
13.528,0.27539,0.19844,1.075,0.87059,0.65039
13.536,0.30078,0.19648,1.0775,0.89608,0.63477
13.544,0.29492,0.19453,1.0787,0.89608,0.64062
13.552,0.32422,0.19355,1.0812,0.90588,0.61914
13.56,0.35938,0.19257,1.0824,0.93137,0.59961
13.568,0.38086,0.19355,1.0836,0.94118,0.58984
13.576,0.35938,0.19941,1.0836,0.91569,0.59961
13.584,0.33984,0.21017,1.0849,0.8902,0.60547
13.592,0.29102,0.22776,1.0873,0.85098,0.63477
13.6,0.27539,0.25318,1.0898,0.84118,0.625
13.608,0.29492,0.28543,1.0923,0.85098,0.625
13.616,0.25977,0.32356,1.0947,0.85098,0.6543
13.624,0.21484,0.3607,1.0972,0.84118,0.68945
13.632,0.17969,0.39589,1.0996,0.82549,0.70508
13.64,0.17578,0.43597,1.1021,0.82549,0.7207
13.648,0.16992,0.47703,1.1046,0.83529,0.7207
13.656,0.15625,0.51613,1.107,0.83529,0.72461
13.664,0.16016,0.55132,1.1107,0.83137,0.73047
13.672,0.15625,0.58162,1.1156,0.83137,0.73438
13.68,0.15625,0.60704,1.1193,0.83137,0.74023
13.688,0.16016,0.62854,1.123,0.83529,0.72461
13.696,0.16602,0.64614,1.1279,0.83529,0.73047
13.704,0.16992,0.65982,1.1292,0.83529,0.72461
13.712,0.16602,0.6696,1.1292,0.84118,0.72461
13.72,0.21484,0.67546,1.1292,0.88039,0.71484
13.728,0.34961,0.6784,1.1292,0.90588,0.62891
13.736,0.4707,0.68035,1.1292,0.85098,0.5
13.744,0.59961,0.68133,1.1292,0.76667,0.3457
13.752,0.42969,0.68133,1.1292,0.55098,0.30469
13.76,0.12109,0.67937,1.1292,0.48039,0.58008
13.768,0.16992,0.67546,1.1292,0.85098,0.76953
13.776,0.19531,0.6696,1.1292,0.88627,0.75
13.784,0.17969,0.6608,1.1292,0.87059,0.73438
13.792,0.18555,0.65005,1.1292,0.87647,0.7207
13.8,0.18555,0.63734,1.1292,0.88039,0.7207
13.808,0.17969,0.6217,1.1292,0.87647,0.72461
13.816,0.17969,0.60411,1.1292,0.87647,0.72461
13.824,0.17969,0.58749,1.1292,0.87647,0.72461
13.832,0.18555,0.57087,1.1292,0.87059,0.7207
13.84,0.18945,0.5523,1.1292,0.87059,0.7207
13.848,0.19531,0.53275,1.1292,0.87059,0.70898
13.856,0.20117,0.5132,1.1292,0.87059,0.70508
13.864,0.20508,0.49365,1.1292,0.87059,0.70508
13.872,0.20508,0.47605,1.1292,0.87059,0.70508
13.88,0.21094,0.45943,1.1292,0.88039,0.69922
13.888,0.2207,0.44477,1.1292,0.88039,0.68945
13.896,0.23047,0.43206,1.1292,0.88627,0.67969
13.904,0.24023,0.41935,1.1292,0.88627,0.67578
13.912,0.24023,0.4086,1.1292,0.8902,0.67578
13.92,0.25586,0.3998,1.1292,0.8902,0.66406
13.928,0.25586,0.39296,1.1292,0.89608,0.66406
13.936,0.25586,0.38514,1.1292,0.89608,0.66016
13.944,0.25586,0.37732,1.1292,0.90588,0.66406
13.952,0.25586,0.37048,1.1292,0.90588,0.67578
13.96,0.24609,0.36266,1.1292,0.91569,0.67578
13.968,0.23438,0.35582,1.1292,0.91569,0.68945
13.976,0.22461,0.34897,1.1292,0.92157,0.69922
13.984,0.20508,0.34311,1.1292,0.92157,0.71484
13.992,0.17969,0.33724,1.1292,0.92157,0.73438
14,0.16602,0.33138,1.1292,0.91569,0.74414
14.008,0.14062,0.32551,1.1292,0.90196,0.75391
14.016,0.13477,0.31965,1.1292,0.8902,0.75977
14.024,0.13477,0.31476,1.1292,0.87647,0.75
14.032,0.16016,0.31085,1.1292,0.87059,0.73438
14.04,0.17969,0.30596,1.1292,0.86078,0.7207
14.048,0.19531,0.30108,1.1292,0.8451,0.70898
14.056,0.20508,0.29619,1.1292,0.8451,0.69922
14.064,0.21484,0.2913,1.1292,0.8451,0.68945
14.072,0.22461,0.28641,1.1292,0.8451,0.68555
14.08,0.23047,0.28152,1.1292,0.8451,0.67969
14.088,0.23047,0.27566,1.1292,0.8451,0.67969
14.096,0.23047,0.27175,1.1292,0.8451,0.67969
14.104,0.23047,0.26882,1.1292,0.8451,0.67969
14.112,0.23047,0.26686,1.1292,0.8451,0.67578
14.12,0.24023,0.26784,1.1292,0.84118,0.67578
14.128,0.24023,0.27077,1.1292,0.8451,0.67578
14.136,0.24609,0.27566,1.1292,0.85098,0.67578
14.144,0.24609,0.2825,1.1292,0.85098,0.67578
14.152,0.24609,0.29032,1.1292,0.85686,0.67578
14.16,0.24023,0.29912,1.1292,0.85686,0.67578
14.168,0.24609,0.30694,1.1292,0.85686,0.67578
14.176,0.24609,0.31476,1.1292,0.85686,0.67578
14.184,0.26953,0.3216,1.1292,0.86667,0.6543
14.192,0.30078,0.32649,1.1292,0.8902,0.64453
14.2,0.31445,0.3304,1.1292,0.89608,0.62891
14.208,0.31445,0.33431,1.1292,0.89608,0.625
14.216,0.3457,0.34018,1.1292,0.91569,0.60547
14.224,0.375,0.34702,1.1292,0.93725,0.5957
14.232,0.38477,0.35679,1.1292,0.91569,0.58398
14.24,0.34961,0.37146,1.1292,0.89608,0.60547
14.248,0.32422,0.39101,1.1267,0.87059,0.61523
14.256,0.2793,0.41642,1.1255,0.84118,0.64062
14.264,0.30078,0.4477,1.1095,0.85686,0.625
14.272,0.28516,0.48485,1.0935,0.86078,0.63477
14.28,0.24023,0.5259,1.0787,0.8451,0.66992
14.288,0.20117,0.56891,1.064,0.8451,0.69922
14.296,0.17969,0.6129,1.0492,0.84118,0.71484
14.304,0.17578,0.65591,1.0344,0.84118,0.7207
14.312,0.16602,0.69599,1.0209,0.84118,0.72461
14.32,0.16602,0.72825,1.0062,0.84118,0.73047
14.328,0.16602,0.75464,0.99262,0.83529,0.73438
14.336,0.16602,0.78104,0.98032,0.84118,0.73047
14.344,0.16602,0.80547,0.96802,0.84118,0.73438
14.352,0.16602,0.82698,0.95572,0.8451,0.73438
14.36,0.16602,0.84457,0.94342,0.8451,0.73047
14.368,0.16992,0.86022,0.93112,0.8451,0.7207
14.376,0.18555,0.87195,0.91759,0.86667,0.7207
14.384,0.26953,0.88074,0.90529,0.91569,0.68945
14.392,0.41016,0.88661,0.89176,0.93137,0.57031
14.4,0.50977,0.88954,0.87823,0.83137,0.44922
14.408,0.55078,0.88954,0.86347,0.67647,0.32422
14.416,0.2207,0.88759,0.84994,0.4549,0.31445
14.424,0.050781,0.88172,0.83764,0.6549,0.70508
14.432,0.14062,0.87292,0.82411,0.86078,0.7793
14.44,0.16016,0.86217,0.81181,0.87647,0.75
14.448,0.18555,0.84751,0.80074,0.8902,0.72461
14.456,0.19531,0.83089,0.78844,0.89608,0.7207
14.464,0.18945,0.80938,0.77614,0.89608,0.7207
14.472,0.20117,0.78592,0.76384,0.89608,0.7207
14.48,0.20117,0.75953,0.75154,0.90196,0.71484
14.488,0.20508,0.73021,0.73924,0.90196,0.70898
14.496,0.20508,0.69892,0.72817,0.90196,0.71484
14.504,0.21094,0.66569,0.7171,0.90588,0.70898
14.512,0.21484,0.63245,0.70603,0.91176,0.70508
14.52,0.2207,0.60313,0.69496,0.91176,0.69922
14.528,0.2207,0.57674,0.68512,0.91176,0.69922
14.536,0.23047,0.54741,0.67405,0.91176,0.69531
14.544,0.23047,0.51906,0.66298,0.91176,0.68945
14.552,0.24609,0.49169,0.65314,0.91569,0.67969
14.56,0.25,0.46628,0.6433,0.91569,0.67969
14.568,0.25977,0.44282,0.63346,0.91569,0.66992
14.576,0.26953,0.42131,0.62362,0.92157,0.66406
14.584,0.27539,0.40176,0.61501,0.92549,0.66016
14.592,0.27539,0.38319,0.6064,0.93137,0.66016
14.6,0.2793,0.36559,0.59779,0.93725,0.6543
14.608,0.27539,0.34897,0.58918,0.93725,0.66016
14.616,0.27539,0.33333,0.5818,0.94118,0.66406
14.624,0.26953,0.3216,0.57319,0.95098,0.67578
14.632,0.26562,0.31085,0.56581,0.95098,0.67578
14.64,0.25,0.29912,0.5572,0.95686,0.68945
14.648,0.23047,0.28641,0.54982,0.95686,0.69922
14.656,0.21094,0.2737,0.54244,0.95098,0.71484
14.664,0.18945,0.26197,0.53383,0.94118,0.73047
14.672,0.17578,0.25024,0.52645,0.93725,0.73438
14.68,0.16992,0.23949,0.51907,0.91569,0.74023
14.688,0.17578,0.22972,0.51046,0.90196,0.73047
14.696,0.17969,0.21994,0.50185,0.8902,0.7207
14.704,0.20117,0.21114,0.49323,0.88039,0.70508
14.712,0.21094,0.20235,0.48339,0.87647,0.69531
14.72,0.21484,0.19746,0.47355,0.87059,0.68555
14.728,0.2207,0.19355,0.46248,0.87059,0.67969
14.736,0.23047,0.18768,0.45264,0.86667,0.67969
14.744,0.22461,0.1828,0.44157,0.86667,0.67969
14.752,0.23047,0.17791,0.43173,0.86667,0.67578
14.76,0.22461,0.17302,0.42189,0.87059,0.67578
14.768,0.23047,0.16813,0.41205,0.87059,0.67578
14.776,0.22461,0.16325,0.39975,0.87059,0.67578
14.784,0.23047,0.15934,0.38745,0.87059,0.67578
14.792,0.23047,0.15543,0.37392,0.87059,0.67578
14.8,0.23047,0.15249,0.36039,0.87059,0.67578
14.808,0.23047,0.14956,0.34686,0.87059,0.67969
14.816,0.23438,0.14663,0.33333,0.87647,0.67969
14.824,0.23047,0.14663,0.32103,0.88039,0.67578
14.832,0.23047,0.14761,0.3075,0.88039,0.67969
14.84,0.23438,0.14663,0.29397,0.88039,0.67578
14.848,0.25586,0.14565,0.27921,0.8902,0.66406
14.856,0.28516,0.14467,0.26445,0.91176,0.65039
14.864,0.30078,0.1437,0.24846,0.92549,0.64453
14.872,0.30078,0.14272,0.2337,0.91569,0.62891
14.88,0.3457,0.1437,0.21894,0.94118,0.60547
14.888,0.37109,0.14663,0.20418,0.95686,0.5957
14.896,0.375,0.15347,0.19065,0.94118,0.58398
14.904,0.3457,0.16716,0.17835,0.91569,0.60547
14.912,0.32031,0.18768,0.16605,0.8902,0.61523
14.92,0.27539,0.21212,0.15621,0.86078,0.63477
14.928,0.29102,0.24145,0.14637,0.87059,0.625
14.936,0.26953,0.27859,0.13776,0.86667,0.63477
14.944,0.22461,0.32258,0.12792,0.86078,0.67578
14.952,0.19531,0.3695,0.12054,0.8451,0.69922
14.96,0.16992,0.4174,0.11193,0.8451,0.7207
14.968,0.16992,0.46334,0.10578,0.8451,0.7207
14.976,0.16016,0.50635,0.099631,0.8451,0.73047
14.984,0.16016,0.54545,0.094711,0.85098,0.73047
14.992,0.16016,0.57967,0.089791,0.85098,0.73438
15,0.15625,0.60997,0.086101,0.85098,0.73438
15.008,0.15039,0.63441,0.081181,0.85098,0.74023
15.016,0.16016,0.65591,0.077491,0.85098,0.73047
15.024,0.16016,0.67058,0.073801,0.85098,0.73047
15.032,0.16602,0.68133,0.070111,0.85686,0.72461
15.04,0.18945,0.69208,0.067651,0.87059,0.7207
15.048,0.28516,0.70088,0.065191,0.92549,0.68555
15.056,0.41602,0.70674,0.062731,0.93725,0.57031
15.064,0.49414,0.71163,0.061501,0.82549,0.46094
15.072,0.52539,0.71457,0.059041,0.6451,0.33008
15.08,0.18555,0.71554,0.057811,0.43529,0.32031
15.088,0.041016,0.71359,0.056581,0.66078,0.7207
15.096,0.13477,0.71065,0.054121,0.86078,0.78516
15.104,0.16016,0.70479,0.052891,0.88039,0.75
15.112,0.17969,0.69697,0.050431,0.89608,0.73047
15.12,0.19531,0.68719,0.0492,0.89608,0.72461
15.128,0.19531,0.67644,0.04797,0.89608,0.72461
15.136,0.20117,0.66276,0.04674,0.89608,0.7207
15.144,0.19531,0.64712,0.04674,0.90196,0.7207
15.152,0.20508,0.62854,0.04674,0.90196,0.71484
15.16,0.20508,0.60899,0.04674,0.90196,0.71484
15.168,0.21484,0.58944,0.04674,0.90588,0.69922
15.176,0.21484,0.56891,0.04674,0.91176,0.69922
15.184,0.23047,0.54936,0.04674,0.90588,0.69531
15.192,0.23047,0.52981,0.04674,0.91176,0.69531
15.2,0.24023,0.51222,0.04797,0.91176,0.68555
15.208,0.24023,0.49462,0.0492,0.91569,0.68555
15.216,0.25586,0.48192,0.051661,0.91569,0.67578
15.224,0.25586,0.47019,0.052891,0.91569,0.67578
15.232,0.25977,0.45846,0.055351,0.91569,0.66406
15.24,0.26953,0.44868,0.056581,0.91569,0.66406
15.248,0.2793,0.43891,0.059041,0.91569,0.65039
15.256,0.28516,0.43109,0.060271,0.92549,0.65039
15.264,0.28516,0.42326,0.062731,0.92549,0.6543
15.272,0.29102,0.41447,0.063961,0.93137,0.6543
15.28,0.29102,0.40567,0.066421,0.93725,0.6543
15.288,0.2793,0.3998,0.067651,0.94118,0.66406
15.296,0.26953,0.39394,0.070111,0.94118,0.67969
15.304,0.25586,0.38807,0.071341,0.94706,0.69531
15.312,0.23438,0.38221,0.073801,0.95098,0.69922
15.32,0.21484,0.37732,0.073801,0.94118,0.7207
15.328,0.18945,0.37243,0.075031,0.93725,0.73438
15.336,0.17969,0.36755,0.076261,0.92549,0.74414
15.344,0.16602,0.36266,0.077491,0.91176,0.74414
15.352,0.17578,0.35679,0.077491,0.8902,0.73047
15.36,0.17969,0.35093,0.077491,0.87647,0.7207
15.368,0.20508,0.34604,0.077491,0.87059,0.70508
15.376,0.21094,0.34018,0.078721,0.86078,0.69922
15.384,0.2207,0.33431,0.078721,0.86078,0.69531
15.392,0.2207,0.32845,0.078721,0.86078,0.68945
15.4,0.23047,0.32258,0.077491,0.86078,0.68555
15.408,0.23047,0.31769,0.077491,0.86078,0.67969
15.416,0.23438,0.31378,0.077491,0.86078,0.68555
15.424,0.23438,0.32356,0.076261,0.85686,0.67969
15.432,0.24023,0.34018,0.075031,0.85686,0.67578
15.44,0.23438,0.34702,0.073801,0.85686,0.67969
15.448,0.24023,0.34897,0.072571,0.85686,0.67969
15.456,0.23438,0.34897,0.071341,0.86078,0.67969
15.464,0.24023,0.348,0.070111,0.86667,0.68555
15.472,0.23438,0.34604,0.068881,0.87059,0.68555
15.48,0.24023,0.34409,0.066421,0.87059,0.67969
15.488,0.24609,0.34213,0.063961,0.87059,0.67969
15.496,0.23438,0.34018,0.060271,0.87059,0.68555
15.504,0.24609,0.33724,0.056581,0.87647,0.67969
15.512,0.26953,0.33431,0.052891,0.8902,0.66016
15.52,0.30469,0.33236,0.04797,0.91569,0.64062
15.528,0.30469,0.33138,0.04305,0.91569,0.63477
15.536,0.33008,0.3304,0.03813,0.91569,0.61914
15.544,0.36523,0.32942,0.03444,0.94118,0.60547
15.552,0.39062,0.3304,0.03075,0.94706,0.58398
15.56,0.37109,0.33431,0.02829,0.92549,0.59961
15.568,0.3457,0.34115,0.02583,0.90196,0.60547
15.576,0.30078,0.35288,0.02337,0.86667,0.62891
15.584,0.2793,0.3695,0.02214,0.85686,0.64453
15.592,0.30078,0.39198,0.01968,0.86667,0.62891
15.6,0.26562,0.41838,0.01845,0.86078,0.6543
15.608,0.21484,0.44868,0.01845,0.8451,0.69922
15.616,0.18555,0.47507,0.01845,0.84118,0.7207
15.624,0.17969,0.50049,0.01845,0.83529,0.72461
15.632,0.17578,0.52884,0.01845,0.84118,0.72461
15.64,0.16602,0.55523,0.01968,0.8451,0.73438
15.648,0.16602,0.58065,0.01968,0.8451,0.74023
15.656,0.16992,0.60411,0.02091,0.8451,0.73438
15.664,0.16602,0.62268,0.02214,0.8451,0.73047
15.672,0.16602,0.6393,0.0246,0.8451,0.73438
15.68,0.16992,0.65298,0.02583,0.8451,0.73047
15.688,0.17578,0.66373,0.02706,0.8451,0.73047
15.696,0.16992,0.67155,0.02952,0.8451,0.7207
15.704,0.21484,0.6784,0.03198,0.88039,0.70898
15.712,0.3457,0.68231,0.03444,0.93137,0.64453
15.72,0.45508,0.68426,0.0369,0.87059,0.52539
15.728,0.53516,0.68426,0.03936,0.76667,0.39453
15.736,0.42578,0.68328,0.04305,0.56078,0.31445
15.744,0.080078,0.68231,0.04551,0.44902,0.52539
15.752,0.044922,0.67937,0.04797,0.77647,0.7793
15.76,0.16016,0.67449,0.050431,0.86667,0.78516
15.768,0.17969,0.6696,0.052891,0.87059,0.74023
15.776,0.20508,0.66178,0.055351,0.88627,0.7207
15.784,0.21484,0.65396,0.057811,0.8902,0.70898
15.792,0.21094,0.64321,0.060271,0.89608,0.71484
15.8,0.2207,0.63245,0.062731,0.89608,0.70508
15.808,0.2207,0.61975,0.065191,0.8902,0.70898
15.816,0.22461,0.60704,0.068881,0.89608,0.70508
15.824,0.22461,0.59433,0.071341,0.89608,0.69922
15.832,0.23438,0.57967,0.075031,0.90196,0.69531
15.84,0.24023,0.565,0.078721,0.90196,0.68945
15.848,0.24609,0.55034,0.083641,0.90196,0.67969
15.856,0.25,0.53666,0.087331,0.90196,0.67969
15.864,0.25586,0.52297,0.092251,0.90196,0.67969
15.872,0.25977,0.51026,0.095941,0.90588,0.67578
15.88,0.26953,0.49951,0.099631,0.91176,0.66992
15.888,0.26562,0.48974,0.10332,0.91569,0.66406
15.896,0.27539,0.47996,0.10701,0.91176,0.66016
15.904,0.2793,0.47214,0.1107,0.91569,0.66016
15.912,0.29102,0.4653,0.11439,0.91569,0.6543
15.92,0.30078,0.45943,0.11808,0.91569,0.65039
15.928,0.29492,0.45455,0.12177,0.92157,0.65039
15.936,0.30078,0.44966,0.12546,0.92157,0.6543
15.944,0.29492,0.44379,0.12792,0.93137,0.66016
15.952,0.28516,0.43891,0.13161,0.93137,0.66992
15.96,0.26953,0.43402,0.13407,0.93725,0.67969
15.968,0.25,0.42913,0.13653,0.93137,0.69922
15.976,0.23047,0.42326,0.13899,0.93137,0.71484
15.984,0.21484,0.41935,0.14145,0.93137,0.72461
15.992,0.18945,0.41447,0.14391,0.92157,0.74023
16,0.18555,0.41056,0.14514,0.90196,0.73438
16.008,0.17969,0.40665,0.14637,0.88627,0.74023
16.016,0.17969,0.40274,0.1476,0.87059,0.73047
16.024,0.18945,0.3998,0.14883,0.86667,0.7207
16.032,0.21094,0.39589,0.15006,0.85686,0.69922
16.04,0.21484,0.39296,0.15006,0.8451,0.69922
16.048,0.22461,0.38905,0.15006,0.85686,0.69531
16.056,0.22461,0.38514,0.15006,0.8451,0.69531
16.064,0.23047,0.38025,0.14883,0.85098,0.68555
16.072,0.23047,0.37634,0.14883,0.8451,0.68945
16.08,0.23047,0.37243,0.1476,0.8451,0.68555
16.088,0.23438,0.3695,0.1476,0.8451,0.67969
16.096,0.24023,0.36755,0.14637,0.85098,0.67578
16.104,0.24609,0.36657,0.14514,0.8451,0.67578
16.112,0.24023,0.36755,0.14391,0.85098,0.67578
16.12,0.24609,0.37048,0.14145,0.85098,0.67969
16.128,0.23438,0.37439,0.13776,0.85686,0.68555
16.136,0.24609,0.38025,0.13407,0.85686,0.67969
16.144,0.23438,0.3871,0.13038,0.85098,0.68555
16.152,0.24609,0.39492,0.12423,0.86078,0.67969
16.16,0.24023,0.40274,0.11931,0.86667,0.67969
16.168,0.25977,0.40958,0.11439,0.87059,0.66992
16.176,0.29492,0.41544,0.10824,0.90196,0.64453
16.184,0.31055,0.42033,0.10455,0.91176,0.63477
16.192,0.31445,0.42424,0.099631,0.91176,0.64062
16.2,0.35547,0.42815,0.095941,0.93137,0.60938
16.208,0.38086,0.43206,0.092251,0.94118,0.58984
16.216,0.39062,0.43597,0.088561,0.92549,0.58398
16.224,0.3457,0.44086,0.084871,0.90588,0.61523
16.232,0.32031,0.44868,0.081181,0.87059,0.61914
16.24,0.2793,0.46139,0.078721,0.85098,0.63477
16.248,0.30078,0.47898,0.076261,0.86078,0.625
16.256,0.27539,0.50147,0.073801,0.86078,0.64453
16.264,0.23438,0.52786,0.072571,0.8451,0.68555
16.272,0.19531,0.55621,0.072571,0.83529,0.70898
16.28,0.17969,0.58749,0.071341,0.83137,0.7207
16.288,0.16992,0.61877,0.071341,0.84118,0.72461
16.296,0.16992,0.65494,0.071341,0.83529,0.72461
16.304,0.16602,0.68524,0.071341,0.83529,0.73047
16.312,0.16016,0.70577,0.072571,0.83529,0.73438
16.32,0.16992,0.72141,0.073801,0.83529,0.72461
16.328,0.16992,0.73412,0.075031,0.83529,0.72461
16.336,0.16602,0.74682,0.077491,0.84118,0.73047
16.344,0.16602,0.75758,0.078721,0.8451,0.73438
16.352,0.16992,0.76637,0.081181,0.84118,0.72461
16.36,0.19531,0.77322,0.082411,0.87059,0.7207
16.368,0.29492,0.7781,0.084871,0.92549,0.67969
16.376,0.41992,0.78006,0.086101,0.8902,0.56445
16.384,0.5,0.78006,0.088561,0.81176,0.44922
16.392,0.52539,0.77713,0.091021,0.62941,0.33008
16.4,0.13477,0.77322,0.093481,0.44902,0.45508
16.408,0.041016,0.76735,0.095941,0.71569,0.75391
16.416,0.15039,0.75953,0.099631,0.86667,0.79492
16.424,0.16016,0.75073,0.10209,0.87647,0.75
16.432,0.19531,0.73998,0.10455,0.8902,0.72461
16.44,0.18945,0.72727,0.10824,0.8902,0.72461
16.448,0.20117,0.71261,0.11193,0.8902,0.7207
16.456,0.20117,0.69697,0.11562,0.89608,0.71484
16.464,0.20508,0.6784,0.12054,0.89608,0.70508
16.472,0.21094,0.65885,0.12546,0.89608,0.70508
16.48,0.21484,0.63734,0.13038,0.89608,0.69922
16.488,0.2207,0.61486,0.1353,0.89608,0.69922
16.496,0.22461,0.59238,0.14145,0.89608,0.69922
16.504,0.22461,0.56989,0.14637,0.90196,0.69531
16.512,0.23047,0.54839,0.15129,0.89608,0.68945
16.52,0.23047,0.52884,0.15621,0.89608,0.68945
16.528,0.23438,0.51222,0.16236,0.89608,0.68555
16.536,0.24609,0.49462,0.16851,0.90588,0.67969
16.544,0.24609,0.47801,0.17466,0.89608,0.67969
16.552,0.25586,0.46237,0.18204,0.90588,0.67578
16.56,0.26953,0.4477,0.18942,0.91176,0.66992
16.568,0.26562,0.43402,0.19557,0.90588,0.66992
16.576,0.27539,0.42131,0.20295,0.91176,0.66016
16.584,0.28516,0.41056,0.21033,0.91569,0.6543
16.592,0.28516,0.39883,0.21771,0.91569,0.6543
16.6,0.2793,0.38905,0.22509,0.92549,0.6543
16.608,0.26953,0.37928,0.2337,0.92549,0.66992
16.616,0.25977,0.37146,0.24108,0.93725,0.67578
16.624,0.24023,0.36364,0.24969,0.93725,0.69531
16.632,0.2207,0.35679,0.2583,0.94118,0.70898
16.64,0.19531,0.34897,0.26814,0.92549,0.73047
16.648,0.17969,0.34213,0.27798,0.92157,0.74414
16.656,0.16016,0.33431,0.28659,0.91176,0.74414
16.664,0.16016,0.32747,0.2952,0.89608,0.74023
16.672,0.16602,0.32063,0.30381,0.88039,0.73047
16.68,0.18555,0.31378,0.31242,0.87059,0.71484
16.688,0.19531,0.30792,0.3198,0.86667,0.70508
16.696,0.20508,0.30303,0.32718,0.86078,0.69922
16.704,0.21484,0.29814,0.33456,0.86078,0.69922
16.712,0.2207,0.29423,0.34194,0.86078,0.68945
16.72,0.22461,0.2913,0.34932,0.85098,0.68945
16.728,0.2207,0.28935,0.35547,0.85098,0.68945
16.736,0.22461,0.28641,0.36162,0.85098,0.68555
16.744,0.22461,0.28348,0.36654,0.85686,0.68945
16.752,0.23047,0.28055,0.37146,0.85098,0.67969
16.76,0.2207,0.27761,0.37638,0.85098,0.68945
16.768,0.2207,0.27566,0.3813,0.85686,0.68945
16.776,0.21484,0.27273,0.38499,0.8451,0.69531
16.784,0.22461,0.27077,0.38868,0.85098,0.68555
16.792,0.2207,0.26882,0.39114,0.85686,0.68945
16.8,0.22461,0.26686,0.39483,0.85098,0.68555
16.808,0.22461,0.26491,0.39606,0.85686,0.68555
16.816,0.22461,0.26393,0.39852,0.85686,0.68555
16.824,0.22461,0.26295,0.39975,0.86078,0.68945
16.832,0.25977,0.261,0.40098,0.87647,0.66406
16.84,0.28516,0.25904,0.40221,0.89608,0.65039
16.848,0.29102,0.25709,0.40344,0.90196,0.64453
16.856,0.30469,0.25611,0.4059,0.89608,0.62891
16.864,0.33984,0.25513,0.40713,0.92549,0.60547
16.872,0.36523,0.25709,0.40959,0.93725,0.58398
16.88,0.34961,0.261,0.41205,0.91176,0.59961
16.888,0.33594,0.26979,0.41451,0.88627,0.60547
16.896,0.29102,0.28348,0.41697,0.85098,0.625
16.904,0.27539,0.30205,0.41943,0.83529,0.64062
16.912,0.29102,0.32551,0.42189,0.85098,0.625
16.92,0.25977,0.35093,0.42558,0.8451,0.6543
16.928,0.21094,0.37634,0.42927,0.83529,0.69922
16.936,0.16992,0.40762,0.43419,0.83137,0.71484
16.944,0.16016,0.43988,0.44034,0.83137,0.7207
16.952,0.16016,0.47214,0.44772,0.83137,0.72461
16.96,0.15625,0.50342,0.4551,0.83137,0.74023
16.968,0.15625,0.53079,0.46371,0.83529,0.73047
16.976,0.15625,0.55523,0.47232,0.84118,0.73047
16.984,0.15039,0.57478,0.4797,0.83137,0.73438
16.992,0.14453,0.59238,0.48708,0.84118,0.74023
17,0.15625,0.60606,0.49446,0.83529,0.73438
17.008,0.15039,0.61681,0.50185,0.84118,0.73438
17.016,0.16016,0.62366,0.51046,0.84118,0.73047
17.024,0.20117,0.62854,0.51784,0.87647,0.7207
17.032,0.33594,0.63245,0.52645,0.91176,0.63477
17.04,0.44531,0.63441,0.53506,0.85686,0.51562
17.048,0.56055,0.63636,0.54367,0.76667,0.37109
17.056,0.41992,0.63636,0.55228,0.56471,0.30469
17.064,0.095703,0.63441,0.56089,0.48039,0.55469
17.072,0.085938,0.63148,0.56827,0.82549,0.76953
17.08,0.17969,0.62659,0.57688,0.88039,0.75
17.088,0.16992,0.61975,0.58549,0.87647,0.73438
17.096,0.17969,0.61193,0.59533,0.88039,0.7207
17.104,0.17969,0.60313,0.60517,0.88627,0.7207
17.112,0.17969,0.59335,0.61501,0.88627,0.72461
17.12,0.18945,0.58358,0.62485,0.8902,0.7207
17.128,0.18945,0.57087,0.63469,0.8902,0.71484
17.136,0.18555,0.55816,0.64453,0.88627,0.71484
17.144,0.19531,0.54448,0.65314,0.89608,0.70898
17.152,0.20508,0.52981,0.66298,0.89608,0.70508
17.16,0.20508,0.51613,0.67159,0.89608,0.69922
17.168,0.21484,0.50244,0.68143,0.89608,0.69922
17.176,0.22461,0.48876,0.69127,0.89608,0.69922
17.184,0.23047,0.47605,0.70111,0.90196,0.68945
17.192,0.23047,0.46432,0.71095,0.89608,0.68555
17.2,0.24609,0.45455,0.72202,0.90196,0.67578
17.208,0.25,0.44477,0.73063,0.90196,0.67578
17.216,0.25586,0.43793,0.74047,0.91176,0.67578
17.224,0.25586,0.43109,0.75031,0.91176,0.67578
17.232,0.25586,0.42522,0.75892,0.90588,0.67578
17.24,0.25586,0.41838,0.76999,0.91569,0.66992
17.248,0.26953,0.41251,0.77983,0.92157,0.66406
17.256,0.26562,0.40665,0.79213,0.92157,0.66992
17.264,0.27539,0.40078,0.8032,0.92549,0.66992
17.272,0.25586,0.39589,0.8155,0.93137,0.67969
17.28,0.23438,0.39003,0.8278,0.94118,0.69531
17.288,0.21484,0.38514,0.8401,0.94118,0.71484
17.296,0.19531,0.38025,0.8524,0.94118,0.72461
17.304,0.17578,0.37634,0.86224,0.93725,0.74023
17.312,0.16016,0.37243,0.87331,0.92549,0.75
17.32,0.14453,0.36852,0.88192,0.91569,0.75
17.328,0.14453,0.36364,0.89053,0.90196,0.74414
17.336,0.16016,0.3607,0.90037,0.88627,0.73438
17.344,0.16992,0.35679,0.90898,0.87059,0.7207
17.352,0.18945,0.35288,0.91882,0.87059,0.70508
17.36,0.20508,0.34995,0.92866,0.87059,0.69922
17.368,0.2207,0.34604,0.93604,0.86667,0.68945
17.376,0.2207,0.34213,0.94465,0.86078,0.68555
17.384,0.23047,0.3392,0.95203,0.86078,0.67969
17.392,0.23047,0.33529,0.95818,0.85686,0.67969
17.4,0.22461,0.33138,0.96433,0.85098,0.67578
17.408,0.2207,0.32845,0.97048,0.85098,0.67578
17.416,0.23047,0.32551,0.97663,0.85686,0.67578
17.424,0.23047,0.32356,0.98155,0.85686,0.67578
17.432,0.23438,0.3216,0.98524,0.86078,0.66992
17.44,0.23047,0.31867,0.98893,0.86078,0.67578
17.448,0.23438,0.31574,0.99139,0.86667,0.67578
17.456,0.23438,0.31281,0.99385,0.86667,0.66992
17.464,0.24609,0.31085,0.99508,0.86078,0.66016
17.472,0.24609,0.30694,0.99754,0.85686,0.66016
17.48,0.25,0.30205,0.99754,0.86667,0.66406
17.488,0.25586,0.29814,0.99877,0.87647,0.6543
17.496,0.29492,0.29521,1,0.89608,0.63477
17.504,0.31055,0.29228,1.0012,0.90588,0.625
17.512,0.31055,0.28935,1.0012,0.90588,0.61914
17.52,0.3457,0.28837,1.0025,0.93725,0.60547
17.528,0.37109,0.28739,1.0025,0.95098,0.58984
17.536,0.375,0.28739,1.0037,0.93725,0.58398
17.544,0.3457,0.29032,1.0049,0.91569,0.60547
17.552,0.32422,0.29619,1.0062,0.88627,0.60938
17.56,0.27539,0.30792,1.0074,0.85686,0.63477
17.568,0.30078,0.32454,1.0086,0.87059,0.625
17.576,0.2793,0.34604,1.0098,0.87059,0.62891
17.584,0.24609,0.37243,1.0123,0.86078,0.66992
17.592,0.20117,0.40176,1.016,0.8451,0.69531
17.6,0.17969,0.43206,1.0185,0.84118,0.70508
17.608,0.17578,0.46334,1.0234,0.8451,0.71484
17.616,0.16992,0.48876,1.0271,0.8451,0.7207
17.624,0.16602,0.51026,1.032,0.8451,0.7207
17.632,0.16602,0.53177,1.0357,0.8451,0.7207
17.64,0.16602,0.5523,1.0394,0.8451,0.7207
17.648,0.16992,0.56891,1.0443,0.8451,0.7207
17.656,0.16602,0.58358,1.048,0.8451,0.7207
17.664,0.16992,0.59531,1.0529,0.8451,0.7207
17.672,0.16016,0.60411,1.0566,0.85098,0.72461
17.68,0.18555,0.61095,1.0615,0.86667,0.7207
17.688,0.26953,0.61681,1.0664,0.91569,0.68555
17.696,0.4043,0.6217,1.0701,0.89608,0.57031
17.704,0.53516,0.62561,1.0738,0.83137,0.43555
17.712,0.5957,0.62854,1.0787,0.69608,0.30078
17.72,0.25586,0.6305,1.0836,0.4902,0.39453
17.728,0.12109,0.63343,1.0886,0.72157,0.70508
17.736,0.19531,0.63636,1.0935,0.89608,0.76562
17.744,0.17969,0.63832,1.0996,0.8902,0.74414
17.752,0.17578,0.6393,1.1058,0.89608,0.7207
17.76,0.17969,0.63734,1.1119,0.89608,0.7207
17.768,0.17578,0.63539,1.1193,0.8902,0.7207
17.776,0.17969,0.63148,1.1255,0.8902,0.7207
17.784,0.17578,0.62561,1.1279,0.88627,0.7207
17.792,0.17578,0.61877,1.1292,0.88627,0.7207
17.8,0.17969,0.61095,1.1292,0.8902,0.71484
17.808,0.18555,0.60215,1.1292,0.8902,0.70898
17.816,0.20117,0.59433,1.1292,0.8902,0.70508
17.824,0.20117,0.58553,1.1292,0.8902,0.70898
17.832,0.20508,0.57576,1.1292,0.8902,0.70508
17.84,0.20508,0.565,1.1292,0.8902,0.69922
17.848,0.21094,0.55621,1.1292,0.8902,0.69531
17.856,0.2207,0.54643,1.1292,0.8902,0.68555
17.864,0.23047,0.53861,1.1292,0.88627,0.67578
17.872,0.23047,0.53177,1.1292,0.8902,0.67578
17.88,0.24023,0.52688,1.1292,0.89608,0.67578
17.888,0.23438,0.52199,1.1292,0.89608,0.67578
17.896,0.24023,0.51808,1.1292,0.90196,0.67578
17.904,0.25,0.51417,1.1292,0.90196,0.67578
17.912,0.25,0.51124,1.1292,0.90588,0.67578
17.92,0.25586,0.50733,1.1292,0.91569,0.67578
17.928,0.24023,0.50342,1.1292,0.91569,0.68555
17.936,0.2207,0.49951,1.1292,0.91569,0.69922
17.944,0.20508,0.4956,1.1292,0.92157,0.71484
17.952,0.17969,0.49071,1.1292,0.92157,0.73047
17.96,0.16016,0.48583,1.1292,0.91569,0.74414
17.968,0.14062,0.47996,1.1292,0.90588,0.75977
17.976,0.125,0.47507,1.1292,0.89608,0.76953
17.984,0.12109,0.46823,1.1292,0.88627,0.76562
17.992,0.13477,0.46237,1.1292,0.87059,0.75391
18,0.15039,0.45552,1.1292,0.85686,0.74023
18.008,0.17578,0.44868,1.1292,0.85098,0.7207
18.016,0.18555,0.44184,1.1292,0.8451,0.70898
18.024,0.19531,0.435,1.1292,0.8451,0.70508
18.032,0.20508,0.42717,1.1292,0.8451,0.69922
18.04,0.20508,0.41838,1.1292,0.8451,0.69922
18.048,0.21484,0.4086,1.1292,0.8451,0.69531
18.056,0.2207,0.39785,1.1292,0.8451,0.68945
18.064,0.22461,0.3871,1.1292,0.8451,0.68945
18.072,0.22461,0.37634,1.1292,0.8451,0.68555
18.08,0.23047,0.36657,1.1292,0.8451,0.67969
18.088,0.23047,0.35582,1.1292,0.85098,0.68555
18.096,0.23047,0.34604,1.1292,0.85686,0.68555
18.104,0.23047,0.33627,1.1292,0.85686,0.68555
18.112,0.23438,0.32747,1.1292,0.86078,0.68555
18.12,0.23438,0.32063,1.1292,0.86667,0.67969
18.128,0.24023,0.31281,1.1292,0.85686,0.67578
18.136,0.24609,0.30401,1.1292,0.87059,0.67578
18.144,0.24023,0.29619,1.1292,0.86667,0.67969
18.152,0.25586,0.28739,1.1292,0.87059,0.66992
18.16,0.29102,0.27859,1.1292,0.89608,0.64453
18.168,0.30078,0.27077,1.1292,0.91176,0.63477
18.176,0.30469,0.26295,1.1292,0.91176,0.62891
18.184,0.33984,0.25611,1.1292,0.92549,0.60938
18.192,0.36523,0.25024,1.1292,0.94118,0.59961
18.2,0.37109,0.24829,1.1292,0.92549,0.5957
18.208,0.33594,0.25024,1.1292,0.90196,0.61914
18.216,0.31445,0.25513,1.1205,0.87647,0.61523
18.224,0.26953,0.26491,1.1107,0.85098,0.65039
18.232,0.29492,0.27957,1.0947,0.87059,0.625
18.24,0.26953,0.3001,1.0787,0.86667,0.64453
18.248,0.23438,0.32454,1.0615,0.86078,0.68555
18.256,0.19531,0.35191,1.0455,0.8451,0.70898
18.264,0.17578,0.38025,1.0295,0.8451,0.7207
18.272,0.16992,0.40762,1.0135,0.8451,0.73047
18.28,0.16602,0.43402,0.99877,0.8451,0.73438
18.288,0.16016,0.45846,0.98401,0.8451,0.74414
18.296,0.15625,0.47898,0.96925,0.8451,0.74414
18.304,0.15039,0.49658,0.95449,0.8451,0.74414
18.312,0.15625,0.51026,0.93973,0.8451,0.74414
18.32,0.15039,0.52004,0.92374,0.8451,0.74414
18.328,0.15625,0.52884,0.91021,0.85098,0.74023
18.336,0.16016,0.53568,0.89668,0.85098,0.74023
18.344,0.17578,0.54252,0.88315,0.86667,0.73438
18.352,0.26562,0.54741,0.87085,0.92157,0.69531
18.36,0.40039,0.55034,0.85855,0.93725,0.58984
18.368,0.48438,0.55132,0.84502,0.83529,0.48047
18.376,0.5293,0.55034,0.83272,0.67059,0.33984
18.384,0.21094,0.54936,0.81919,0.4549,0.32422
18.392,0.03125,0.54643,0.80566,0.64118,0.70898
18.4,0.12109,0.5435,0.79213,0.86078,0.79492
18.408,0.14453,0.53763,0.77737,0.88039,0.76953
18.416,0.17578,0.53177,0.76384,0.89608,0.74023
18.424,0.17969,0.5259,0.75154,0.90588,0.73438
18.432,0.17969,0.51711,0.73801,0.91176,0.73047
18.44,0.18945,0.50635,0.72571,0.91176,0.73438
18.448,0.19531,0.49462,0.71464,0.91569,0.73047
18.456,0.18945,0.48192,0.70234,0.91569,0.73047
18.464,0.20117,0.46823,0.69127,0.91569,0.7207
18.472,0.20508,0.45259,0.6802,0.91569,0.7207
18.48,0.20508,0.43793,0.66913,0.91569,0.7207
18.488,0.21484,0.42424,0.65806,0.91569,0.71484
18.496,0.2207,0.41056,0.64822,0.91569,0.69922
18.504,0.23047,0.39883,0.63715,0.92157,0.69922
18.512,0.23047,0.38905,0.62731,0.92549,0.69531
18.52,0.23438,0.38123,0.61747,0.92157,0.68945
18.528,0.24609,0.37341,0.60763,0.92549,0.67969
18.536,0.25,0.36657,0.59902,0.92549,0.67578
18.544,0.25586,0.35973,0.58918,0.93137,0.67578
18.552,0.25977,0.35484,0.57934,0.93137,0.66992
18.56,0.25977,0.34995,0.57073,0.93725,0.67578
18.568,0.26953,0.34506,0.56089,0.94118,0.66992
18.576,0.26953,0.34115,0.55105,0.94118,0.66992
18.584,0.27539,0.33822,0.54244,0.94118,0.66992
18.592,0.26562,0.33333,0.5326,0.95098,0.67578
18.6,0.25586,0.32942,0.52522,0.95098,0.68555
18.608,0.23438,0.32551,0.51661,0.95686,0.69922
18.616,0.2207,0.32258,0.508,0.95098,0.71484
18.624,0.20117,0.32063,0.49938,0.95098,0.73438
18.632,0.17578,0.31769,0.48954,0.94706,0.74414
18.64,0.16016,0.31378,0.48093,0.93137,0.75391
18.648,0.15625,0.31085,0.47109,0.91569,0.75391
18.656,0.15039,0.3089,0.46248,0.90196,0.74414
18.664,0.16016,0.30596,0.45387,0.88627,0.73047
18.672,0.17969,0.30401,0.44403,0.88039,0.7207
18.68,0.19531,0.30205,0.43542,0.87059,0.70508
18.688,0.20117,0.29912,0.42558,0.87059,0.69922
18.696,0.20508,0.29717,0.41574,0.87059,0.69922
18.704,0.20508,0.29423,0.4059,0.87059,0.69922
18.712,0.20508,0.29228,0.39483,0.86667,0.69531
18.72,0.21094,0.2913,0.38253,0.86667,0.69531
18.728,0.21484,0.28935,0.37023,0.86667,0.68945
18.736,0.21484,0.28739,0.35793,0.86667,0.69531
18.744,0.21484,0.28641,0.34563,0.86667,0.69531
18.752,0.2207,0.28446,0.33456,0.86667,0.68945
18.76,0.21484,0.28348,0.32226,0.86667,0.69531
18.768,0.2207,0.2825,0.31119,0.87059,0.69531
18.776,0.21484,0.28055,0.29889,0.87059,0.68945
18.784,0.2207,0.27957,0.28659,0.87059,0.68945
18.792,0.22461,0.27761,0.27183,0.87647,0.68945
18.8,0.23047,0.27664,0.2583,0.88039,0.69531
18.808,0.2207,0.27468,0.24477,0.88039,0.69531
18.816,0.23438,0.27468,0.23124,0.88627,0.67969
18.824,0.26953,0.27273,0.21894,0.90588,0.66016
18.832,0.30078,0.27175,0.20664,0.92157,0.64453
18.84,0.30078,0.26979,0.19311,0.91569,0.64062
18.848,0.32422,0.26882,0.17958,0.92157,0.61914
18.856,0.35547,0.26979,0.16605,0.94118,0.5957
18.864,0.375,0.27273,0.15375,0.95098,0.58008
18.872,0.34961,0.28055,0.14145,0.92157,0.5957
18.88,0.33008,0.29228,0.12915,0.8902,0.60938
18.888,0.2793,0.30987,0.11808,0.86078,0.63477
18.896,0.27539,0.33236,0.10701,0.85686,0.625
18.904,0.29102,0.3607,0.098401,0.86078,0.625
18.912,0.25,0.38905,0.089791,0.86667,0.66016
18.92,0.20117,0.4174,0.083641,0.85098,0.69531
18.928,0.17578,0.45064,0.077491,0.84118,0.71484
18.936,0.16016,0.4868,0.071341,0.84118,0.7207
18.944,0.16016,0.52297,0.066421,0.84118,0.73438
18.952,0.15039,0.55718,0.061501,0.8451,0.73438
18.96,0.14062,0.59042,0.057811,0.84118,0.74414
18.968,0.14453,0.61975,0.054121,0.8451,0.74414
18.976,0.14453,0.64712,0.050431,0.84118,0.74414
18.984,0.15625,0.67155,0.04674,0.85098,0.73438
18.992,0.15625,0.69306,0.04428,0.85098,0.73047
19,0.15625,0.71163,0.04182,0.8451,0.73047
19.008,0.16016,0.72532,0.03936,0.85098,0.73047
19.016,0.21094,0.73607,0.0369,0.8902,0.70898
19.024,0.3457,0.7478,0.03444,0.93725,0.62891
19.032,0.44531,0.75855,0.03198,0.85686,0.50977
19.04,0.50586,0.76735,0.02952,0.74118,0.38477
19.048,0.33008,0.77419,0.02706,0.5098,0.33008
19.056,0.019531,0.7781,0.0246,0.43529,0.59961
19.064,0.080078,0.77908,0.02337,0.81176,0.78906
19.072,0.13477,0.77517,0.02214,0.87059,0.76953
19.08,0.16602,0.76735,0.02214,0.88627,0.74023
19.088,0.17969,0.7566,0.02214,0.89608,0.72461
19.096,0.18945,0.74194,0.02214,0.90196,0.7207
19.104,0.19531,0.7263,0.02214,0.90588,0.71484
19.112,0.20117,0.70968,0.02214,0.90588,0.70898
19.12,0.19531,0.69306,0.02214,0.90196,0.70898
19.128,0.20508,0.67449,0.02214,0.90588,0.70508
19.136,0.21094,0.65591,0.02214,0.91176,0.69922
19.144,0.21484,0.63636,0.02214,0.91176,0.69531
19.152,0.2207,0.61779,0.02214,0.91176,0.69922
19.16,0.22461,0.6002,0.02337,0.91176,0.68945
19.168,0.23047,0.58358,0.02337,0.91176,0.68555
19.176,0.23438,0.56794,0.0246,0.91569,0.67969
19.184,0.24609,0.55425,0.02583,0.91569,0.67578
19.192,0.25,0.54252,0.02829,0.91176,0.66992
19.2,0.25586,0.53177,0.02952,0.91569,0.66406
19.208,0.25586,0.52297,0.03198,0.92157,0.66406
19.216,0.26562,0.51417,0.03444,0.92157,0.66016
19.224,0.26953,0.50635,0.0369,0.92549,0.6543
19.232,0.27539,0.49756,0.03936,0.93137,0.6543
19.24,0.27539,0.48974,0.04182,0.92549,0.66016
19.248,0.27539,0.47996,0.04428,0.93137,0.66016
19.256,0.26953,0.47116,0.04674,0.93725,0.66992
19.264,0.25977,0.46139,0.0492,0.94118,0.67578
19.272,0.24609,0.45161,0.051661,0.94706,0.68945
19.28,0.23047,0.44184,0.052891,0.94706,0.69922
19.288,0.20508,0.43109,0.055351,0.94118,0.7207
19.296,0.18945,0.42131,0.056581,0.94118,0.72461
19.304,0.16602,0.41056,0.057811,0.92157,0.74414
19.312,0.16016,0.40078,0.059041,0.90588,0.74414
19.32,0.16016,0.39296,0.060271,0.89608,0.74414
19.328,0.16016,0.38319,0.061501,0.88627,0.73047
19.336,0.17578,0.37341,0.062731,0.87647,0.7207
19.344,0.18945,0.36364,0.063961,0.87059,0.70898
19.352,0.19531,0.35386,0.065191,0.86667,0.69922
19.36,0.20508,0.34506,0.066421,0.86078,0.69922
19.368,0.20508,0.33431,0.067651,0.85686,0.69922
19.376,0.21484,0.32454,0.067651,0.85686,0.68945
19.384,0.2207,0.31769,0.067651,0.86078,0.68555
19.392,0.21484,0.30987,0.068881,0.85098,0.68945
19.4,0.2207,0.30205,0.067651,0.86078,0.68555
19.408,0.21484,0.29619,0.067651,0.86667,0.68945
19.416,0.2207,0.2913,0.066421,0.86667,0.67969
19.424,0.21484,0.28543,0.065191,0.86667,0.68945
19.432,0.21484,0.27957,0.061501,0.86667,0.69531
19.44,0.2207,0.2737,0.059041,0.87059,0.69531
19.448,0.22461,0.26784,0.056581,0.87059,0.69531
19.456,0.2207,0.26197,0.052891,0.86667,0.69531
19.464,0.2207,0.25611,0.050431,0.87059,0.68945
19.472,0.2207,0.25122,0.04797,0.87647,0.69531
19.48,0.22461,0.24731,0.04428,0.87059,0.68945
19.488,0.25,0.2434,0.04059,0.89608,0.66992
19.496,0.28516,0.24047,0.03567,0.91569,0.65039
19.504,0.29492,0.23656,0.03075,0.91569,0.64453
19.512,0.30469,0.23363,0.02706,0.92157,0.625
19.52,0.33984,0.23851,0.02214,0.94118,0.60938
19.528,0.35938,0.24633,0.01845,0.94706,0.59961
19.536,0.36523,0.25318,0.01476,0.93137,0.60547
19.544,0.32422,0.26197,0.01107,0.90588,0.60938
19.552,0.28516,0.27566,0.0086101,0.87059,0.63477
19.56,0.25977,0.29326,0.0073801,0.85686,0.65039
19.568,0.2793,0.31574,0.0061501,0.87059,0.62891
19.576,0.24609,0.34213,0.0061501,0.85686,0.66016
19.584,0.20508,0.37146,0.0061501,0.85098,0.69531
19.592,0.17578,0.4086,0.0061501,0.8451,0.7207
19.6,0.16016,0.44282,0.0073801,0.84118,0.72461
19.608,0.16016,0.46237,0.0073801,0.8451,0.73047
19.616,0.15039,0.48094,0.0086101,0.84118,0.73438
19.624,0.14062,0.50147,0.0098401,0.83529,0.74414
19.632,0.14453,0.52004,0.0123,0.84118,0.74414
19.64,0.14062,0.53763,0.01353,0.83529,0.74023
19.648,0.15039,0.5523,0.01599,0.84118,0.74023
19.656,0.15039,0.56403,0.01968,0.84118,0.74023
19.664,0.16016,0.5738,0.02214,0.8451,0.73047
19.672,0.16016,0.58162,0.02583,0.85098,0.73047
19.68,0.19531,0.58651,0.02829,0.88039,0.7207
19.688,0.31445,0.5914,0.03198,0.93137,0.66016
19.696,0.42969,0.59433,0.03567,0.88039,0.53906
19.704,0.5,0.59629,0.03813,0.78039,0.41992
19.712,0.41016,0.59531,0.04182,0.58039,0.32031
19.72,0.070312,0.59335,0.04428,0.4549,0.50977
19.728,0.019531,0.58944,0.04797,0.76078,0.7793
19.736,0.13477,0.58651,0.050431,0.86667,0.78906
19.744,0.16016,0.5826,0.052891,0.87647,0.74414
19.752,0.18555,0.57576,0.055351,0.88627,0.7207
19.76,0.19531,0.56794,0.057811,0.89608,0.7207
19.768,0.20117,0.55914,0.060271,0.89608,0.71484
19.776,0.20508,0.54839,0.062731,0.89608,0.7207
19.784,0.20508,0.53568,0.065191,0.89608,0.70508
19.792,0.21094,0.52297,0.067651,0.89608,0.70508
19.8,0.21484,0.50929,0.070111,0.89608,0.69922
19.808,0.2207,0.49756,0.072571,0.90196,0.69922
19.816,0.22461,0.48583,0.075031,0.90588,0.69922
19.824,0.22461,0.4741,0.078721,0.90196,0.69922
19.832,0.23047,0.46237,0.081181,0.90196,0.69531
19.84,0.23438,0.45161,0.084871,0.90588,0.69531
19.848,0.24609,0.43988,0.087331,0.90196,0.68555
19.856,0.25,0.42815,0.091021,0.90588,0.67969
19.864,0.25586,0.42033,0.094711,0.91176,0.67578
19.872,0.26562,0.41544,0.097171,0.91569,0.66992
19.88,0.27539,0.40958,0.10086,0.91569,0.66016
19.888,0.27539,0.40469,0.10455,0.91569,0.66016
19.896,0.2793,0.40078,0.10824,0.91569,0.66016
19.904,0.2793,0.39785,0.11193,0.92157,0.66016
19.912,0.2793,0.39589,0.11562,0.92549,0.66406
19.92,0.2793,0.39492,0.12054,0.93137,0.66406
19.928,0.27539,0.39394,0.12423,0.93725,0.67578
19.936,0.25586,0.39394,0.12669,0.93725,0.68945
19.944,0.23438,0.39492,0.13038,0.94118,0.70508
19.952,0.21484,0.39687,0.13284,0.94118,0.7207
19.96,0.18945,0.3998,0.1353,0.94118,0.74023
19.968,0.17578,0.40665,0.13776,0.93137,0.74414
19.976,0.16602,0.41544,0.14145,0.91569,0.74414
19.984,0.16016,0.42131,0.14391,0.90196,0.74414
19.992,0.16602,0.42522,0.14637,0.88627,0.73047
20,0.18555,0.43011,0.14883,0.87647,0.7207
20.008,0.19531,0.43402,0.15129,0.87059,0.70508
20.016,0.21094,0.43597,0.15498,0.86667,0.69922
20.024,0.21484,0.435,0.15621,0.86667,0.69531
20.032,0.2207,0.43109,0.15744,0.86078,0.68945
20.04,0.21484,0.42522,0.15867,0.85686,0.69531
20.048,0.22461,0.41935,0.15867,0.85686,0.68945
20.056,0.2207,0.41251,0.15867,0.86078,0.69531
20.064,0.22461,0.40371,0.15867,0.86078,0.68945
20.072,0.2207,0.39492,0.15744,0.85686,0.68945
20.08,0.22461,0.38319,0.15621,0.85686,0.68555
20.088,0.22461,0.37146,0.15375,0.85098,0.68945
20.096,0.23047,0.36168,0.15252,0.85686,0.67969
20.104,0.23047,0.35484,0.15129,0.86078,0.68555
20.112,0.23047,0.34995,0.14883,0.86078,0.68945
20.12,0.23047,0.34604,0.14637,0.86667,0.68555
20.128,0.23047,0.34311,0.14268,0.86667,0.68555
20.136,0.23047,0.3392,0.13899,0.86667,0.68945
20.144,0.23047,0.33627,0.13407,0.87059,0.68555
20.152,0.23438,0.33529,0.13038,0.86667,0.67969
20.16,0.26953,0.33333,0.12546,0.8902,0.66016
20.168,0.30078,0.3304,0.12177,0.91176,0.64062
20.176,0.30469,0.32942,0.11808,0.91569,0.62891
20.184,0.32422,0.32942,0.11439,0.92157,0.625
20.192,0.36523,0.33138,0.11193,0.93725,0.60547
20.2,0.38477,0.33529,0.10947,0.94118,0.58008
20.208,0.39062,0.34311,0.10701,0.92549,0.58398
20.216,0.34961,0.35582,0.10455,0.89608,0.59961
20.224,0.30469,0.37341,0.10332,0.86667,0.61914
20.232,0.2793,0.39589,0.10209,0.85686,0.63477
20.24,0.30078,0.42033,0.10086,0.87059,0.625
20.248,0.26562,0.4477,0.10086,0.86667,0.64453
20.256,0.21484,0.47507,0.10086,0.85098,0.68945
20.264,0.17969,0.4956,0.10209,0.84118,0.70898
20.272,0.16992,0.51711,0.10332,0.84118,0.7207
20.28,0.16992,0.5435,0.10578,0.84118,0.7207
20.288,0.16016,0.56403,0.10824,0.8451,0.73047
20.296,0.16016,0.57967,0.1107,0.8451,0.73438
20.304,0.15039,0.59042,0.11316,0.8451,0.74414
20.312,0.15625,0.59726,0.11685,0.8451,0.74023
20.32,0.15625,0.60313,0.12054,0.85098,0.74023
20.328,0.15039,0.60704,0.12423,0.8451,0.74414
20.336,0.15039,0.60997,0.12915,0.8451,0.74023
20.344,0.16016,0.61095,0.13284,0.8451,0.73438
20.352,0.19531,0.61095,0.13653,0.88039,0.7207
20.36,0.32031,0.60997,0.13899,0.93137,0.6543
20.368,0.42969,0.60704,0.14268,0.88039,0.5293
20.376,0.51562,0.60313,0.14637,0.78039,0.41016
20.384,0.41016,0.59726,0.15006,0.57451,0.32031
20.392,0.076172,0.5914,0.15252,0.48039,0.52539
20.4,0.041016,0.58358,0.15621,0.78627,0.7793
20.408,0.15625,0.57576,0.15867,0.88039,0.78516
20.416,0.16992,0.56696,0.16236,0.8902,0.74414
20.424,0.17969,0.55621,0.16482,0.89608,0.72461
20.432,0.18555,0.5435,0.16851,0.90196,0.72461
20.44,0.17969,0.53079,0.1722,0.90196,0.73047
20.448,0.20117,0.51613,0.17589,0.90588,0.7207
20.456,0.20508,0.50147,0.18081,0.90588,0.70898
20.464,0.21094,0.4868,0.18573,0.90588,0.69922
20.472,0.21094,0.47312,0.19065,0.90588,0.70508
20.48,0.21484,0.45943,0.1968,0.90588,0.69922
20.488,0.21484,0.4477,0.20418,0.90588,0.69922
20.496,0.22461,0.43597,0.21033,0.91176,0.69531
20.504,0.2207,0.42717,0.21648,0.90588,0.69922
20.512,0.23047,0.41935,0.22263,0.90588,0.69531
20.52,0.23047,0.41251,0.22878,0.91176,0.68945
20.528,0.23438,0.40567,0.23616,0.91569,0.67969
20.536,0.23438,0.39883,0.24354,0.91569,0.68555
20.544,0.24609,0.39296,0.25215,0.91569,0.67969
20.552,0.24609,0.38807,0.26076,0.91569,0.67969
20.56,0.25586,0.38221,0.2706,0.91569,0.67578
20.568,0.26953,0.37732,0.27921,0.92157,0.66992
20.576,0.27539,0.37243,0.28905,0.93137,0.66406
20.584,0.27539,0.36852,0.29766,0.92549,0.66406
20.592,0.27539,0.36461,0.30627,0.93137,0.66992
20.6,0.25977,0.36168,0.31488,0.93725,0.67578
20.608,0.25586,0.35973,0.32472,0.94118,0.68555
20.616,0.23047,0.35679,0.33456,0.94118,0.69922
20.624,0.20508,0.35386,0.3444,0.94706,0.7207
20.632,0.17969,0.34995,0.35424,0.93725,0.74023
20.64,0.16992,0.34702,0.36408,0.92157,0.75
20.648,0.16016,0.34409,0.37392,0.91176,0.75391
20.656,0.15625,0.34115,0.38376,0.89608,0.74414
20.664,0.16602,0.33822,0.39237,0.88039,0.73438
20.672,0.17578,0.33627,0.40098,0.87059,0.7207
20.68,0.18945,0.33333,0.40836,0.86667,0.70898
20.688,0.20508,0.33138,0.41574,0.86667,0.69922
20.696,0.2207,0.32942,0.42312,0.86078,0.68945
20.704,0.21484,0.32845,0.43173,0.85098,0.68945
20.712,0.2207,0.32649,0.43911,0.85098,0.68945
20.72,0.2207,0.32454,0.44772,0.85098,0.68945
20.728,0.22461,0.32258,0.45387,0.85098,0.68555
20.736,0.22461,0.31965,0.46125,0.85098,0.68555
20.744,0.23047,0.31769,0.46617,0.85098,0.67969
20.752,0.22461,0.31574,0.47232,0.85098,0.68555
20.76,0.23047,0.31378,0.47724,0.85098,0.68555
20.768,0.23047,0.31183,0.48339,0.85686,0.68555
20.776,0.23438,0.30987,0.48831,0.86078,0.67969
20.784,0.23047,0.30694,0.49323,0.86078,0.67969
20.792,0.23438,0.30499,0.49692,0.86667,0.67578
20.8,0.24023,0.30401,0.50062,0.86078,0.67578
20.808,0.23047,0.30303,0.50308,0.86078,0.67578
20.816,0.24023,0.30108,0.50554,0.86667,0.67578
20.824,0.25586,0.3001,0.508,0.87059,0.66992
20.832,0.30078,0.29814,0.51046,0.8902,0.64453
20.84,0.30078,0.29717,0.51292,0.89608,0.64062
20.848,0.31445,0.29619,0.51538,0.90196,0.625
20.856,0.3457,0.29717,0.51784,0.92157,0.60938
20.864,0.375,0.3001,0.5203,0.93725,0.58984
20.872,0.38086,0.30694,0.52399,0.92157,0.58008
20.88,0.35938,0.31867,0.52645,0.90196,0.5957
20.888,0.33008,0.33529,0.53014,0.87059,0.60938
20.896,0.29102,0.35386,0.53383,0.8451,0.625
20.904,0.30078,0.37341,0.53752,0.86078,0.61914
20.912,0.28516,0.39883,0.54121,0.85686,0.63477
20.92,0.23438,0.42815,0.54613,0.85098,0.67578
20.928,0.20117,0.45846,0.55228,0.84118,0.69922
20.936,0.17969,0.48974,0.55843,0.83529,0.71484
20.944,0.17578,0.51906,0.56581,0.84118,0.7207
20.952,0.16602,0.54741,0.57319,0.83137,0.7207
20.96,0.16016,0.5738,0.5818,0.83137,0.73047
20.968,0.16016,0.59726,0.59041,0.84118,0.73047
20.976,0.16016,0.61975,0.59902,0.8451,0.73438
20.984,0.16602,0.6393,0.60763,0.8451,0.72461
