Time [s], RESP, PLETH, II, V, AVR
0,0.25806,0.59531,-0.058594,0.72157,0.85938
0.008,0.26393,0.59042,-0.029297,0.69608,0.69531
0.016,0.26979,0.58358,0.17969,0.7,0.45508
0.024,0.27566,0.57771,0.84375,0.32941,0.041016
0.032,0.2825,0.57283,1.3184,0.078431,-0.099609
0.04,0.28837,0.56891,0.85547,0.18431,0.57031
0.048,0.29521,0.56598,0.14453,0.56078,0.99023
0.056,0.30205,0.56207,-0.070312,0.72157,1.0254
0.064,0.3089,0.55718,-0.14453,0.80588,0.96484
0.072,0.31672,0.5523,-0.19336,0.84118,0.98047
0.08,0.32454,0.54643,-0.21484,0.85686,0.98438
0.088,0.33138,0.53959,-0.21484,0.86667,0.98438
0.096,0.33822,0.53079,-0.20898,0.86078,0.97461
0.104,0.34506,0.52102,-0.21484,0.87059,0.98047
0.112,0.35191,0.51222,-0.21484,0.86667,0.96875
0.12,0.35777,0.50342,-0.20508,0.87059,0.95898
0.128,0.36461,0.49462,-0.19922,0.86667,0.94922
0.136,0.37146,0.4868,-0.19922,0.86078,0.94922
0.144,0.3783,0.47898,-0.18945,0.86078,0.93555
0.152,0.38416,0.47312,-0.18359,0.86078,0.93555
0.16,0.39003,0.46628,-0.16992,0.85686,0.91406
0.168,0.39589,0.46139,-0.16406,0.85686,0.91406
0.176,0.40274,0.4565,-0.1543,0.85098,0.89453
0.184,0.40958,0.45259,-0.1543,0.8451,0.89453
0.192,0.41642,0.44868,-0.14453,0.8451,0.87891
0.2,0.42522,0.44673,-0.14453,0.85098,0.88477
0.208,0.43304,0.44477,-0.14453,0.8451,0.86914
0.216,0.44282,0.44282,-0.13477,0.84118,0.85547
0.224,0.45161,0.44086,-0.125,0.8451,0.83984
0.232,0.46139,0.43891,-0.12891,0.85098,0.83008
0.24,0.47116,0.43695,-0.12891,0.8451,0.81445
0.248,0.47996,0.43597,-0.125,0.85686,0.80469
0.256,0.48778,0.43402,-0.12891,0.85686,0.79492
0.264,0.4956,0.43109,-0.11914,0.86078,0.78906
0.272,0.50342,0.42815,-0.125,0.85686,0.79492
0.28,0.51124,0.4262,-0.099609,0.8451,0.78906
0.288,0.51906,0.42424,-0.09375,0.84118,0.79883
0.296,0.52786,0.42131,-0.074219,0.82549,0.79492
0.304,0.53568,0.41838,-0.058594,0.81176,0.80469
0.312,0.5435,0.41544,-0.044922,0.7902,0.81055
0.32,0.55132,0.41349,-0.029297,0.77059,0.82031
0.328,0.55914,0.41056,-0.0097656,0.75098,0.81445
0.336,0.56696,0.4086,-0.0039062,0.7451,0.82031
0.344,0.5738,0.40665,0.0058594,0.74118,0.82031
0.352,0.58162,0.40567,0,0.73529,0.83008
0.36,0.58847,0.40371,0,0.73529,0.82031
0.368,0.59629,0.40078,0,0.73529,0.83008
0.376,0.60411,0.39785,0,0.74118,0.82422
0.384,0.61193,0.39492,0,0.74118,0.83008
0.392,0.61975,0.39296,0,0.7451,0.83008
0.4,0.62757,0.39003,0.0058594,0.7451,0.82031
0.408,0.63441,0.38905,0,0.7451,0.82031
0.416,0.64223,0.38807,-0.0039062,0.7451,0.82422
0.424,0.65005,0.38807,-0.0097656,0.75098,0.82031
0.432,0.65787,0.38807,-0.0039062,0.75098,0.82031
0.44,0.66569,0.3871,-0.0097656,0.7451,0.81445
0.448,0.67449,0.38612,-0.0039062,0.74118,0.81055
0.456,0.68328,0.38514,-0.0097656,0.7451,0.81445
0.464,0.69208,0.38319,0,0.73529,0.79883
0.472,0.6999,0.38221,0,0.73529,0.80469
0.48,0.70772,0.38025,0.0097656,0.72549,0.79492
0.488,0.71457,0.3783,0.0097656,0.72157,0.80469
0.496,0.72239,0.37732,0.0097656,0.72549,0.80469
0.504,0.73021,0.37732,0,0.73529,0.81055
0.512,0.739,0.37928,0.019531,0.72157,0.79492
0.52,0.74878,0.38123,0.015625,0.74118,0.78906
0.528,0.75855,0.3871,0.054688,0.77059,0.75977
0.536,0.76931,0.39785,0.070312,0.78039,0.75
0.544,0.78006,0.41056,0.060547,0.74118,0.75977
0.552,0.79081,0.4262,0.044922,0.70588,0.78906
0.56,0.80254,0.44477,0.070312,0.67059,0.76562
0.568,0.81232,0.46725,0.085938,0.6549,0.75977
0.576,0.82209,0.49071,0.10547,0.63529,0.75
0.584,0.82991,0.5132,0.11133,0.62941,0.75
0.592,0.83871,0.53275,0.099609,0.6451,0.75391
0.6,0.84848,0.54936,0.035156,0.6902,0.80469
0.608,0.85728,0.56109,-0.019531,0.71569,0.84961
0.616,0.86804,0.56891,-0.058594,0.74118,0.87891
0.624,0.87781,0.5738,-0.074219,0.74118,0.88867
0.632,0.88759,0.57576,-0.074219,0.7451,0.88867
0.64,0.89638,0.57576,-0.080078,0.7451,0.88867
0.648,0.90518,0.5738,-0.070312,0.73529,0.88477
0.656,0.91496,0.57087,-0.054688,0.7098,0.85547
0.664,0.92473,0.56696,-0.029297,0.68627,0.69922
0.672,0.93548,0.56207,0.17578,0.69608,0.48047
0.68,0.94624,0.55621,0.82422,0.3549,0.11133
0.688,0.95797,0.55034,1.3438,0.07451,-0.025391
0.696,0.97067,0.54448,0.89453,0.16471,0.55078
0.704,0.98338,0.53959,0.18945,0.52549,0.95898
0.712,0.99218,0.53372,-0.039062,0.70588,0.99023
0.72,1,0.52786,-0.12891,0.78039,0.95898
0.728,1,0.52199,-0.16992,0.81569,0.95508
0.736,1,0.51515,-0.19336,0.83137,0.96875
0.744,1,0.50929,-0.19922,0.84118,0.96875
0.752,1,0.5044,-0.20898,0.84118,0.97461
0.76,1,0.49951,-0.20898,0.84118,0.95898
0.768,1,0.49365,-0.20898,0.84118,0.95898
0.776,1,0.4868,-0.20508,0.84118,0.95508
0.784,1,0.48094,-0.19922,0.84118,0.94922
0.792,1,0.47507,-0.18945,0.84118,0.93555
0.8,1,0.46921,-0.18945,0.84118,0.93555
0.808,1,0.46432,-0.17969,0.83529,0.92969
0.816,1,0.46041,-0.16992,0.83137,0.91992
0.824,1,0.4565,-0.16406,0.82549,0.91406
0.832,1,0.45161,-0.16406,0.83137,0.91016
0.84,1,0.4477,-0.16406,0.82549,0.89453
0.848,1,0.44477,-0.1543,0.82157,0.88867
0.856,1,0.44184,-0.1543,0.82549,0.88867
0.864,1,0.43891,-0.14453,0.82157,0.86523
0.872,1,0.43695,-0.13867,0.82157,0.85938
0.88,1,0.435,-0.13477,0.82157,0.84375
0.888,1,0.43304,-0.13477,0.82549,0.83984
0.896,1,0.43109,-0.125,0.82549,0.82031
0.904,1,0.42913,-0.12891,0.83529,0.81055
0.912,1,0.42717,-0.12891,0.84118,0.79492
0.92,1,0.42522,-0.13867,0.8451,0.79883
0.928,1,0.42229,-0.125,0.84118,0.79492
0.936,1,0.42033,-0.125,0.84118,0.79883
0.944,1,0.41838,-0.11523,0.83137,0.81055
0.952,1,0.41642,-0.10352,0.81569,0.82031
0.96,1,0.41447,-0.089844,0.80588,0.82031
0.968,1,0.41056,-0.070312,0.78627,0.82422
0.976,1,0.40762,-0.044922,0.76667,0.82031
0.984,1,0.40469,-0.025391,0.7451,0.82031
0.992,1,0.40176,-0.0097656,0.74118,0.82031
1,1,0.39883,0,0.73137,0.82422
1.008,1,0.39589,0,0.72549,0.82422
1.016,1,0.39296,-0.0039062,0.72549,0.83398
1.024,1,0.39003,-0.0097656,0.72549,0.83984
1.032,1,0.38807,0,0.72549,0.83984
1.04,1,0.3871,-0.0039062,0.73137,0.83984
1.048,1,0.38514,0,0.73529,0.83398
1.056,1,0.38319,-0.0039062,0.74118,0.83984
1.064,1,0.38221,0,0.74118,0.83398
1.072,1,0.38025,-0.013672,0.7451,0.83398
1.08,1,0.3783,-0.0097656,0.7451,0.82422
1.088,1,0.37732,-0.0097656,0.74118,0.82031
1.096,0.99218,0.37732,-0.0039062,0.73529,0.82031
1.104,0.98338,0.37732,-0.0097656,0.73529,0.82031
1.112,0.97067,0.37732,0,0.73137,0.81445
1.12,0.95699,0.37732,-0.0097656,0.73529,0.82031
1.128,0.94526,0.37732,-0.0039062,0.72549,0.81445
1.136,0.93451,0.37732,-0.0097656,0.72157,0.82031
1.144,0.92375,0.37732,0,0.72157,0.81445
1.152,0.91398,0.37732,-0.0039062,0.72157,0.82031
1.16,0.9042,0.37732,-0.0039062,0.72157,0.82031
1.168,0.89541,0.37928,-0.0039062,0.72157,0.82031
1.176,0.88759,0.38319,-0.0039062,0.72157,0.82031
1.184,0.88074,0.39101,-0.0039062,0.73529,0.82031
1.192,0.87488,0.40469,0.03125,0.76667,0.7793
1.2,0.86901,0.42131,0.050781,0.78039,0.76562
1.208,0.86413,0.44282,0.041016,0.73137,0.7793
1.216,0.85924,0.46628,0.03125,0.69608,0.79492
1.224,0.85533,0.49071,0.054688,0.6549,0.7793
1.232,0.85142,0.51613,0.076172,0.64118,0.76562
1.24,0.84751,0.53568,0.089844,0.61961,0.75977
1.248,0.8436,0.55132,0.085938,0.61961,0.75977
1.256,0.83969,0.565,0.089844,0.63529,0.75391
1.264,0.83578,0.57576,0.03125,0.68039,0.80469
1.272,0.83089,0.5826,-0.029297,0.70588,0.84375
1.28,0.82698,0.58553,-0.058594,0.72157,0.86914
1.288,0.82209,0.58456,-0.074219,0.73137,0.88867
1.296,0.8172,0.5826,-0.074219,0.73137,0.88477
1.304,0.81134,0.58065,-0.083984,0.73529,0.88867
1.312,0.80645,0.57674,-0.074219,0.73137,0.87891
1.32,0.79961,0.5738,-0.054688,0.7,0.83984
1.328,0.79374,0.56989,0.0097656,0.68627,0.66016
1.336,0.78592,0.56794,0.24609,0.60588,0.45508
1.344,0.77908,0.565,0.93555,0.25882,0.041016
1.352,0.77028,0.56305,1.3242,-0.031373,-0.058594
1.36,0.76246,0.56012,0.82422,0.11373,0.60938
1.368,0.75464,0.55621,0.13477,0.5451,0.99023
1.376,0.74682,0.55132,-0.064453,0.72549,0.99414
1.384,0.73998,0.54545,-0.1543,0.80588,0.95898
1.392,0.73216,0.53959,-0.18945,0.84118,0.95898
1.4,0.72532,0.53372,-0.21484,0.85098,0.96875
1.408,0.7175,0.52786,-0.21875,0.86078,0.98047
1.416,0.70968,0.52199,-0.22461,0.86667,0.97461
1.424,0.70283,0.51613,-0.22461,0.87059,0.96875
1.432,0.69501,0.51026,-0.21875,0.86667,0.96484
1.44,0.68817,0.50538,-0.21484,0.86667,0.95898
1.448,0.68133,0.50049,-0.20898,0.86667,0.95898
1.456,0.67449,0.49462,-0.20898,0.86667,0.94922
1.464,0.66764,0.48974,-0.20508,0.86667,0.94531
1.472,0.6608,0.48485,-0.19922,0.86078,0.93555
1.48,0.65494,0.48094,-0.19336,0.86078,0.92969
1.488,0.64809,0.47703,-0.18945,0.86667,0.91406
1.496,0.64223,0.47507,-0.17969,0.86078,0.91406
1.504,0.63636,0.47312,-0.17969,0.86078,0.9043
1.512,0.6305,0.46921,-0.16992,0.86078,0.89453
1.52,0.62463,0.4653,-0.16406,0.86078,0.88867
1.528,0.61975,0.46139,-0.16016,0.86078,0.875
1.536,0.61486,0.45748,-0.16016,0.86078,0.86523
1.544,0.60997,0.45455,-0.16016,0.86078,0.84961
1.552,0.60606,0.45064,-0.16016,0.86667,0.83984
1.56,0.60215,0.4477,-0.14844,0.87059,0.82031
1.568,0.59824,0.44379,-0.1543,0.87647,0.80469
1.576,0.59335,0.44184,-0.14844,0.88627,0.79492
1.584,0.58944,0.43891,-0.14844,0.88627,0.79492
1.592,0.58456,0.43695,-0.14453,0.8902,0.78906
1.6,0.58065,0.435,-0.13867,0.88627,0.79492
1.608,0.57674,0.43304,-0.12891,0.87647,0.80469
1.616,0.57283,0.43109,-0.11914,0.86078,0.81445
1.624,0.56696,0.42913,-0.099609,0.83529,0.82031
1.632,0.56109,0.42717,-0.074219,0.81176,0.82031
1.64,0.55523,0.4262,-0.048828,0.78627,0.82422
1.648,0.54839,0.42522,-0.029297,0.7549,0.82031
1.656,0.54057,0.42424,-0.013672,0.74118,0.82422
1.664,0.53275,0.42326,0,0.73529,0.82422
1.672,0.52493,0.42229,0,0.72549,0.82422
1.68,0.51711,0.42033,0,0.72157,0.82422
1.688,0.50929,0.41935,0,0.72157,0.83398
1.696,0.50049,0.4174,0,0.72157,0.82422
1.704,0.49267,0.41642,0,0.72157,0.83398
1.712,0.48485,0.41447,0,0.72157,0.83008
1.72,0.47605,0.41447,-0.0097656,0.73137,0.84375
1.728,0.46725,0.41349,-0.0039062,0.73529,0.83398
1.736,0.45846,0.41349,-0.0097656,0.73529,0.83984
1.744,0.44966,0.41447,-0.0039062,0.73529,0.82422
1.752,0.44086,0.41447,-0.013672,0.74118,0.83398
1.76,0.43206,0.41447,-0.013672,0.74118,0.83008
1.768,0.42424,0.41544,-0.013672,0.73529,0.83398
1.776,0.41544,0.41544,-0.0039062,0.73529,0.82031
1.784,0.40762,0.41544,-0.0097656,0.73529,0.82031
1.792,0.39883,0.41544,-0.0039062,0.73529,0.81445
1.8,0.39101,0.41447,-0.0039062,0.73137,0.82031
1.808,0.38319,0.41349,0,0.73137,0.81055
1.816,0.37439,0.41349,0,0.72549,0.81055
1.824,0.36657,0.41544,0,0.72157,0.81445
1.832,0.35875,0.41838,0.0058594,0.72157,0.81055
1.84,0.35093,0.42424,0,0.72157,0.82031
1.848,0.34506,0.43206,0.025391,0.75098,0.78906
1.856,0.33822,0.44673,0.054688,0.77059,0.75
1.864,0.33236,0.46725,0.044922,0.75098,0.76953
1.872,0.32649,0.49169,0.035156,0.7098,0.78906
1.88,0.32063,0.51808,0.041016,0.67059,0.79492
1.888,0.31574,0.54643,0.064453,0.63529,0.76953
1.896,0.30987,0.57185,0.080078,0.61961,0.76562
1.904,0.30499,0.59531,0.085938,0.61569,0.76953
1.912,0.29912,0.61388,0.089844,0.62549,0.75391
1.92,0.29423,0.62952,0.050781,0.66078,0.78906
1.928,0.28837,0.64027,-0.0097656,0.69608,0.83398
1.936,0.28348,0.64614,-0.054688,0.72549,0.86914
1.944,0.27859,0.64809,-0.074219,0.73529,0.88477
1.952,0.27273,0.64809,-0.080078,0.73529,0.88867
1.96,0.26784,0.64614,-0.074219,0.73137,0.88867
1.968,0.26295,0.64418,-0.080078,0.73529,0.88867
1.976,0.25709,0.64223,-0.070312,0.72157,0.86914
1.984,0.2522,0.64125,-0.044922,0.6902,0.76953
1.992,0.24633,0.64125,0.095703,0.69608,0.55469
2,0.24047,0.64027,0.56055,0.43529,0.23438
2.008,0.23558,0.63832,1.2695,0.039216,-0.10352
2.016,0.22972,0.63441,1.3086,-0.027451,0.33984
2.024,0.22483,0.6305,0.38477,0.38039,0.87891
2.032,0.21994,0.62659,0,0.66471,1
2.04,0.21408,0.62268,-0.11523,0.78039,0.96875
2.048,0.20919,0.61779,-0.18359,0.83137,0.96484
2.056,0.2043,0.6129,-0.21484,0.85098,0.98438
2.064,0.19844,0.60508,-0.22461,0.86078,0.98438
2.072,0.19453,0.59726,-0.22852,0.86667,0.99023
2.08,0.18964,0.58847,-0.21875,0.87059,0.98047
2.088,0.18671,0.57967,-0.21875,0.88039,0.98438
2.096,0.1828,0.56891,-0.21484,0.87647,0.96875
2.104,0.17986,0.55816,-0.21484,0.88039,0.95898
2.112,0.17595,0.54839,-0.20508,0.86667,0.95508
2.12,0.17302,0.53959,-0.20508,0.87059,0.94922
2.128,0.16911,0.53079,-0.19336,0.86078,0.93945
2.136,0.16716,0.52297,-0.19336,0.86078,0.93945
2.144,0.1652,0.51711,-0.18945,0.86078,0.92969
2.152,0.16325,0.5132,-0.17969,0.86078,0.92383
2.16,0.16227,0.50929,-0.17383,0.86078,0.91016
2.168,0.16129,0.50538,-0.16406,0.86078,0.9043
2.176,0.16129,0.50244,-0.16406,0.85686,0.88867
2.184,0.16129,0.50147,-0.16016,0.86078,0.87891
2.192,0.16129,0.49951,-0.14844,0.86078,0.86523
2.2,0.16129,0.49756,-0.14844,0.86078,0.85547
2.208,0.16129,0.49462,-0.14453,0.86078,0.83984
2.216,0.16129,0.49071,-0.14453,0.87059,0.83008
2.224,0.16227,0.48583,-0.14453,0.87647,0.81055
2.232,0.16227,0.48192,-0.14844,0.88039,0.80469
2.24,0.16325,0.47801,-0.14844,0.88627,0.79492
2.248,0.16422,0.4741,-0.14453,0.88627,0.78906
2.256,0.16422,0.47019,-0.14453,0.88627,0.79492
2.264,0.16422,0.46628,-0.13477,0.88039,0.79883
2.272,0.16422,0.46139,-0.125,0.86667,0.82031
2.28,0.16325,0.45748,-0.099609,0.85098,0.82031
2.288,0.16227,0.45259,-0.083984,0.82157,0.83008
2.296,0.16031,0.44673,-0.058594,0.7902,0.82422
2.304,0.15836,0.44282,-0.039062,0.76667,0.83008
2.312,0.1564,0.43793,-0.019531,0.7451,0.82031
2.32,0.15347,0.435,-0.0097656,0.74118,0.83008
2.328,0.15054,0.43206,-0.0039062,0.73137,0.83008
2.336,0.14761,0.43011,0,0.73137,0.83398
2.344,0.14467,0.42815,0,0.72549,0.83008
2.352,0.14174,0.4262,0,0.72549,0.83984
2.36,0.13783,0.42424,0,0.73137,0.83398
2.368,0.13392,0.42229,-0.0039062,0.74118,0.83984
2.376,0.12903,0.42033,0,0.74118,0.83398
2.384,0.12512,0.41935,-0.0097656,0.7451,0.83984
2.392,0.12121,0.41838,-0.013672,0.7451,0.84375
2.4,0.1173,0.41838,-0.025391,0.7451,0.83398
2.408,0.11339,0.41935,-0.025391,0.7451,0.84375
2.416,0.10948,0.42033,-0.025391,0.75098,0.83984
2.424,0.10557,0.41935,-0.025391,0.75098,0.84375
2.432,0.10166,0.41935,-0.025391,0.75098,0.83398
2.44,0.097752,0.41838,-0.019531,0.7451,0.82422
2.448,0.093842,0.4174,-0.013672,0.73529,0.82422
2.456,0.090909,0.41544,-0.013672,0.73137,0.82422
2.464,0.087977,0.41349,-0.0097656,0.72549,0.82031
2.472,0.086022,0.41251,-0.0097656,0.72157,0.82031
2.48,0.084066,0.41349,0,0.72157,0.82031
2.488,0.083089,0.41544,-0.0039062,0.72157,0.82031
2.496,0.082111,0.42131,0,0.72157,0.82031
2.504,0.082111,0.43109,0.0097656,0.74118,0.79883
2.512,0.082111,0.44575,0.054688,0.77059,0.75977
2.52,0.083089,0.46432,0.060547,0.77647,0.75391
2.528,0.083089,0.48876,0.044922,0.72157,0.7793
2.536,0.084066,0.51515,0.041016,0.68627,0.79492
2.544,0.086022,0.53861,0.064453,0.6451,0.76953
2.552,0.086999,0.56012,0.080078,0.62549,0.76562
2.56,0.087977,0.58162,0.085938,0.61569,0.75977
2.568,0.089932,0.60117,0.089844,0.61961,0.75391
2.576,0.090909,0.61779,0.080078,0.64118,0.76562
2.584,0.092864,0.6305,0.0097656,0.68627,0.82031
2.592,0.093842,0.63734,-0.039062,0.7098,0.85938
2.6,0.094819,0.64125,-0.074219,0.72157,0.88477
2.608,0.095797,0.64321,-0.074219,0.72157,0.88867
2.616,0.096774,0.64321,-0.074219,0.72549,0.88867
2.624,0.097752,0.64321,-0.074219,0.73137,0.88867
2.632,0.097752,0.64321,-0.074219,0.72549,0.88477
2.64,0.098729,0.64223,-0.054688,0.69608,0.82422
2.648,0.099707,0.64027,0.019531,0.68039,0.63477
2.656,0.10068,0.63832,0.33594,0.53529,0.375
2.664,0.10166,0.63539,1.0391,0.18431,-0.054688
2.672,0.10264,0.63148,1.2949,0.0078431,-0.080078
2.68,0.10264,0.62659,0.65039,0.21961,0.7207
2.688,0.10362,0.62268,0.070312,0.59608,1.0137
2.696,0.10362,0.61779,-0.083984,0.7451,0.98047
2.704,0.10362,0.61095,-0.16406,0.81176,0.97461
2.712,0.10362,0.60313,-0.19336,0.84118,0.97461
2.72,0.10459,0.59433,-0.21484,0.86078,0.98438
2.728,0.10459,0.58456,-0.21484,0.86667,0.98047
2.736,0.10557,0.57478,-0.21484,0.86667,0.97461
2.744,0.10655,0.56598,-0.21484,0.87059,0.96484
2.752,0.1085,0.55523,-0.20898,0.87059,0.96484
2.76,0.10948,0.54545,-0.20508,0.86667,0.95898
2.768,0.11046,0.53666,-0.20508,0.87059,0.95898
2.776,0.11241,0.52884,-0.19922,0.86078,0.94922
2.784,0.11339,0.52199,-0.18945,0.86667,0.93945
2.792,0.11535,0.51613,-0.18359,0.86078,0.93555
2.8,0.1173,0.51124,-0.17383,0.86078,0.92383
2.808,0.11926,0.50635,-0.16992,0.86078,0.91406
2.816,0.12023,0.50244,-0.16406,0.86078,0.91406
2.824,0.12219,0.49756,-0.16016,0.86078,0.89453
2.832,0.12414,0.49267,-0.1543,0.86078,0.88867
2.84,0.1261,0.48876,-0.14453,0.85686,0.875
2.848,0.12903,0.48583,-0.14453,0.85098,0.86523
2.856,0.13196,0.48094,-0.14453,0.86078,0.85547
2.864,0.13392,0.47703,-0.13867,0.85686,0.84375
2.872,0.13685,0.47312,-0.14453,0.86078,0.83008
2.88,0.13881,0.46823,-0.13477,0.86667,0.81445
2.888,0.14174,0.46432,-0.13867,0.87059,0.79883
2.896,0.1437,0.45943,-0.13867,0.88039,0.78906
2.904,0.14565,0.45552,-0.13477,0.88039,0.7793
2.912,0.14761,0.45064,-0.11914,0.87059,0.77539
2.92,0.14956,0.44673,-0.11914,0.87059,0.78906
2.928,0.15152,0.44379,-0.10352,0.86078,0.79492
2.936,0.15249,0.44184,-0.09375,0.8451,0.80469
2.944,0.15347,0.43988,-0.070312,0.82157,0.81055
2.952,0.15445,0.43793,-0.039062,0.7902,0.80469
2.96,0.15543,0.43597,-0.013672,0.77059,0.80469
2.968,0.1564,0.43402,-0.0039062,0.7549,0.81445
2.976,0.15738,0.43206,0,0.7451,0.82031
2.984,0.15836,0.42913,0,0.74118,0.82422
2.992,0.15934,0.4262,0,0.73137,0.82031
3,0.15934,0.42326,0,0.73137,0.82422
3.008,0.16031,0.42033,0.0058594,0.73137,0.82422
3.016,0.16031,0.41838,0.0058594,0.73529,0.83008
3.024,0.16031,0.41642,0,0.74118,0.82422
3.032,0.16129,0.41447,0.0058594,0.73529,0.83008
3.04,0.16129,0.41251,-0.0039062,0.74118,0.83984
3.048,0.16227,0.41153,-0.0097656,0.7451,0.83398
3.056,0.16325,0.41056,-0.0097656,0.75098,0.83398
3.064,0.1652,0.40958,-0.013672,0.75098,0.83398
3.072,0.16716,0.41056,-0.019531,0.75098,0.83984
3.08,0.17009,0.41153,-0.0097656,0.7451,0.83008
3.088,0.17302,0.41251,-0.013672,0.75098,0.83398
3.096,0.17693,0.41251,-0.013672,0.7451,0.82031
3.104,0.18084,0.41251,-0.0039062,0.74118,0.82031
3.112,0.18573,0.41056,0,0.73529,0.81445
3.12,0.19062,0.4086,0,0.73137,0.82031
3.128,0.1955,0.40665,0,0.73137,0.81445
3.136,0.20039,0.40567,0,0.72549,0.82031
3.144,0.20528,0.40665,0.0097656,0.72157,0.81445
3.152,0.21017,0.40958,-0.0039062,0.72549,0.82031
3.16,0.21603,0.41447,0,0.72549,0.81055
3.168,0.2219,0.42326,0.03125,0.7549,0.78516
3.176,0.22776,0.43793,0.070312,0.77647,0.75
3.184,0.23363,0.45552,0.050781,0.76078,0.76953
3.192,0.23851,0.47801,0.041016,0.71569,0.78906
3.2,0.24438,0.50244,0.044922,0.68039,0.79492
3.208,0.25024,0.52884,0.085938,0.65098,0.75977
3.216,0.25513,0.5523,0.095703,0.64118,0.75977
3.224,0.26197,0.5738,0.095703,0.62941,0.75391
3.232,0.26784,0.59042,0.099609,0.62941,0.75
3.24,0.27566,0.60117,0.064453,0.66471,0.78516
3.248,0.2825,0.60899,0,0.70588,0.83398
3.256,0.28935,0.61388,-0.044922,0.72549,0.86523
3.264,0.29717,0.61584,-0.070312,0.73529,0.88477
3.272,0.30401,0.61681,-0.074219,0.74118,0.88867
3.28,0.31183,0.61681,-0.074219,0.74118,0.88867
3.288,0.31769,0.61388,-0.074219,0.73529,0.88867
3.296,0.32454,0.61095,-0.064453,0.72549,0.87891
3.304,0.3304,0.60606,-0.048828,0.6902,0.78906
3.312,0.33724,0.60117,0.041016,0.69608,0.57031
3.32,0.34311,0.59629,0.48047,0.48039,0.25977
3.328,0.34995,0.5914,1.2402,0.13333,-0.080078
3.336,0.35582,0.58553,1.3242,0.084314,0.30078
3.344,0.36266,0.58065,0.44531,0.38039,0.84961
3.352,0.36852,0.57674,-0.0097656,0.66471,1.0195
3.36,0.37439,0.57283,-0.11523,0.77059,0.97461
3.368,0.38025,0.56696,-0.17383,0.82549,0.96875
3.376,0.3871,0.56109,-0.18945,0.84118,0.97461
3.384,0.39394,0.55327,-0.21484,0.85098,0.98047
3.392,0.40078,0.54545,-0.21875,0.86078,0.98438
3.4,0.40958,0.53568,-0.21875,0.85686,0.98047
3.408,0.4174,0.52493,-0.21484,0.86078,0.96484
3.416,0.42717,0.51613,-0.20898,0.86078,0.95898
3.424,0.43597,0.50635,-0.20508,0.86078,0.96484
3.432,0.44575,0.49756,-0.19336,0.86078,0.95508
3.44,0.45552,0.48974,-0.18945,0.85686,0.93555
3.448,0.46432,0.48387,-0.18359,0.85686,0.93555
3.456,0.4741,0.47801,-0.17969,0.8451,0.91992
3.464,0.48289,0.4741,-0.16406,0.85098,0.91406
3.472,0.49169,0.47214,-0.16016,0.84118,0.9043
3.48,0.50147,0.47019,-0.14844,0.84118,0.89453
3.488,0.51222,0.46823,-0.14844,0.8451,0.89453
3.496,0.52395,0.46432,-0.14453,0.8451,0.88477
3.504,0.53568,0.46139,-0.14453,0.8451,0.875
3.512,0.54643,0.4565,-0.13477,0.84118,0.86523
3.52,0.55718,0.45259,-0.12891,0.8451,0.84961
3.528,0.56696,0.44868,-0.125,0.84118,0.83398
3.536,0.57674,0.44673,-0.11914,0.85098,0.83008
3.544,0.58651,0.44477,-0.125,0.8451,0.81055
3.552,0.59726,0.44282,-0.125,0.85098,0.80469
3.56,0.60802,0.44086,-0.11914,0.85686,0.78516
3.568,0.61779,0.43695,-0.11914,0.86078,0.78906
3.576,0.62854,0.43206,-0.10938,0.85098,0.78516
3.584,0.6393,0.42717,-0.09375,0.8451,0.79492
3.592,0.65005,0.42326,-0.089844,0.83529,0.80469
3.6,0.6608,0.42033,-0.080078,0.82157,0.82031
3.608,0.67058,0.4174,-0.054688,0.8,0.81445
3.616,0.67937,0.41447,-0.029297,0.77647,0.81445
3.624,0.68817,0.41153,-0.013672,0.7549,0.82031
3.632,0.69599,0.40958,-0.0039062,0.7451,0.82031
3.64,0.70381,0.40762,0,0.7451,0.82422
3.648,0.71163,0.40665,0.0058594,0.74118,0.82031
3.656,0.71848,0.40469,0,0.74118,0.83398
3.664,0.72532,0.40274,0.0058594,0.73529,0.83008
3.672,0.73216,0.40078,0,0.74118,0.83984
3.68,0.739,0.39785,0,0.7451,0.83398
3.688,0.74487,0.39589,0.0097656,0.74118,0.83984
3.696,0.75073,0.39394,0.015625,0.74118,0.82031
3.704,0.75758,0.39198,-0.0097656,0.7451,0.83398
3.712,0.76442,0.38905,-0.0097656,0.75098,0.83398
3.72,0.77126,0.3871,-0.013672,0.7451,0.83984
3.728,0.7781,0.38514,-0.0039062,0.7451,0.82031
3.736,0.7869,0.38416,-0.0097656,0.75098,0.82422
3.744,0.79472,0.38416,-0.013672,0.7451,0.82031
3.752,0.80352,0.38416,-0.013672,0.75098,0.82422
3.76,0.81134,0.38319,-0.0097656,0.7451,0.82031
3.768,0.81916,0.38221,-0.0039062,0.73529,0.81445
3.776,0.82698,0.38025,0,0.73529,0.81055
3.784,0.83382,0.3783,0.0058594,0.73529,0.81055
3.792,0.84066,0.37634,0.0058594,0.73529,0.81445
3.8,0.84848,0.37537,0.0058594,0.73137,0.82031
3.808,0.8563,0.37537,0,0.73137,0.82031
3.816,0.86413,0.37537,-0.0039062,0.73137,0.82031
3.824,0.87292,0.3783,0.015625,0.7549,0.80469
3.832,0.88074,0.38514,0.044922,0.78039,0.76953
3.84,0.88856,0.39492,0.054688,0.78627,0.76953
3.848,0.89638,0.40567,0.044922,0.72157,0.78516
3.856,0.9042,0.42229,0.041016,0.69608,0.79492
3.864,0.91202,0.44184,0.070312,0.66078,0.77539
3.872,0.92082,0.46432,0.085938,0.6451,0.76562
3.88,0.92962,0.48778,0.095703,0.62941,0.75391
3.888,0.93842,0.50929,0.099609,0.62549,0.75
3.896,0.94721,0.52981,0.080078,0.65098,0.76562
3.904,0.95699,0.54643,0.015625,0.6902,0.82031
3.912,0.96676,0.55816,-0.035156,0.71569,0.85547
3.92,0.97654,0.56598,-0.070312,0.73137,0.88477
3.928,0.98534,0.57087,-0.074219,0.73137,0.88867
3.936,0.99413,0.5738,-0.074219,0.73529,0.88867
3.944,0.99707,0.57283,-0.080078,0.73137,0.88867
3.952,1,0.57087,-0.074219,0.72157,0.88477
3.96,1,0.56696,-0.048828,0.68039,0.80469
3.968,1,0.56207,0.015625,0.68627,0.61523
3.976,1,0.55718,0.38086,0.51961,0.35938
3.984,1,0.55132,1.1543,0.17843,-0.019531
3.992,1,0.54545,1.3535,0.052941,0.2207
4,1,0.53861,0.58984,0.28431,0.75977
4.008,1,0.53275,0.041016,0.61569,0.99414
4.016,1,0.52688,-0.09375,0.73137,0.96484
4.024,1,0.52102,-0.16406,0.79608,0.95898
4.032,1,0.51515,-0.18945,0.82157,0.96484
4.04,1,0.50929,-0.20898,0.83529,0.97461
4.048,1,0.5044,-0.21484,0.84118,0.97461
4.056,1,0.50049,-0.21484,0.8451,0.96875
4.064,1,0.4956,-0.21484,0.8451,0.96484
4.072,1,0.48974,-0.21484,0.84118,0.95898
4.08,1,0.48289,-0.19922,0.84118,0.94922
4.088,1,0.47703,-0.20508,0.84118,0.95508
4.096,1,0.47116,-0.19336,0.84118,0.93555
4.104,1,0.46628,-0.18945,0.84118,0.93945
4.112,1,0.46139,-0.18359,0.84118,0.92383
4.12,1,0.45748,-0.17969,0.84118,0.91992
4.128,1,0.45357,-0.16992,0.83529,0.91406
4.136,1,0.44966,-0.16992,0.83529,0.91016
4.144,1,0.44673,-0.16016,0.83137,0.88867
4.152,1,0.44282,-0.1543,0.83529,0.88867
4.16,1,0.43988,-0.14844,0.83137,0.875
4.168,1,0.43695,-0.14453,0.82549,0.86914
4.176,1,0.435,-0.14453,0.83529,0.84961
4.184,1,0.43304,-0.13867,0.83137,0.84375
4.192,1,0.43011,-0.13477,0.83529,0.82031
4.2,1,0.42815,-0.12891,0.84118,0.81445
4.208,1,0.4262,-0.13477,0.84118,0.79883
4.216,1,0.42424,-0.13867,0.8451,0.79492
4.224,1,0.42229,-0.13477,0.84118,0.79883
4.232,1,0.42033,-0.125,0.8451,0.79492
4.24,1,0.41935,-0.11914,0.84118,0.79883
4.248,1,0.4174,-0.10352,0.83137,0.80469
4.256,1,0.41544,-0.09375,0.81569,0.81445
4.264,1,0.41251,-0.074219,0.79608,0.82031
4.272,1,0.40958,-0.054688,0.77647,0.82031
4.28,1,0.40665,-0.025391,0.75098,0.81445
4.288,1,0.40469,-0.019531,0.7451,0.82422
4.296,1,0.40274,-0.0039062,0.73137,0.82031
4.304,1,0.3998,-0.0097656,0.73137,0.83398
4.312,1,0.39687,0,0.72549,0.83008
4.32,1,0.39296,0,0.72549,0.83398
4.328,0.99413,0.39003,0,0.72549,0.83008
4.336,0.98729,0.38612,-0.0039062,0.73137,0.83984
4.344,0.97361,0.38416,0,0.73137,0.83398
4.352,0.95992,0.38123,-0.0039062,0.73529,0.83984
4.36,0.94526,0.3783,0,0.73137,0.83008
4.368,0.9306,0.37634,0,0.73529,0.83008
4.376,0.91789,0.37634,0,0.73137,0.82031
4.384,0.9042,0.37634,-0.0097656,0.73529,0.82422
4.392,0.89247,0.37732,-0.0097656,0.74118,0.82031
4.4,0.88074,0.3783,-0.0097656,0.74118,0.82031
4.408,0.87097,0.38025,-0.0097656,0.74118,0.81055
4.416,0.86119,0.38221,-0.0039062,0.73529,0.81445
4.424,0.85435,0.38416,-0.0097656,0.73529,0.81055
4.432,0.84653,0.38514,-0.0039062,0.73137,0.81055
4.44,0.84066,0.38612,-0.0097656,0.72549,0.80469
4.448,0.8348,0.38612,0,0.72549,0.81055
4.456,0.82991,0.38514,-0.0039062,0.72157,0.81445
4.464,0.82502,0.38514,0,0.72157,0.82031
4.472,0.82014,0.38612,0,0.72157,0.82031
4.48,0.81623,0.38905,-0.0039062,0.72157,0.81445
4.488,0.81329,0.39687,-0.0039062,0.73137,0.82031
4.496,0.80938,0.4086,0.019531,0.76078,0.78906
4.504,0.80645,0.4262,0.044922,0.78627,0.76953
4.512,0.80254,0.44575,0.044922,0.7549,0.77539
4.52,0.79961,0.46921,0.025391,0.71569,0.79492
4.528,0.7957,0.49365,0.041016,0.67059,0.78906
4.536,0.79277,0.51417,0.070312,0.65098,0.76953
4.544,0.78886,0.53275,0.089844,0.62549,0.76562
4.552,0.78592,0.55034,0.085938,0.62549,0.76562
4.56,0.78201,0.565,0.089844,0.62549,0.75
4.568,0.7781,0.57576,0.041016,0.67647,0.79492
4.576,0.77419,0.5826,-0.013672,0.70588,0.83984
4.584,0.76931,0.58553,-0.054688,0.72549,0.875
4.592,0.7654,0.58553,-0.074219,0.73529,0.88867
4.6,0.75953,0.58456,-0.080078,0.74118,0.88867
4.608,0.75464,0.58162,-0.083984,0.73529,0.89453
4.616,0.74878,0.57771,-0.080078,0.73529,0.88867
4.624,0.74291,0.57478,-0.070312,0.71569,0.86523
4.632,0.73705,0.57283,-0.013672,0.69608,0.69922
4.64,0.73118,0.56989,0.18555,0.70588,0.49414
4.648,0.72434,0.56696,0.79883,0.33529,0.11133
4.656,0.71848,0.565,1.334,-0.015686,-0.048828
4.664,0.71163,0.56305,0.91992,0.078431,0.53516
4.672,0.70381,0.56109,0.20117,0.50588,0.96484
4.68,0.69599,0.55914,-0.048828,0.7098,1
4.688,0.68817,0.55523,-0.14844,0.8,0.96484
4.696,0.67937,0.55034,-0.18945,0.83529,0.95898
4.704,0.67155,0.5435,-0.21484,0.85098,0.98438
4.712,0.66276,0.53568,-0.21875,0.86078,0.98047
4.72,0.65396,0.5259,-0.21875,0.86667,0.98047
4.728,0.64614,0.51613,-0.21875,0.87059,0.97461
4.736,0.63832,0.50831,-0.21875,0.87059,0.96875
4.744,0.63148,0.50244,-0.21484,0.87059,0.95898
4.752,0.62463,0.49658,-0.20898,0.87647,0.95898
4.76,0.61779,0.49071,-0.21484,0.86667,0.94922
4.768,0.61095,0.4868,-0.20508,0.87059,0.94922
4.776,0.60411,0.48192,-0.19922,0.86667,0.93555
4.784,0.59726,0.47801,-0.18945,0.86667,0.93555
4.792,0.59042,0.4741,-0.18945,0.86667,0.91992
4.8,0.58456,0.46921,-0.17969,0.86078,0.91406
4.808,0.57869,0.4653,-0.16992,0.86078,0.90039
4.816,0.57283,0.46237,-0.16406,0.86667,0.89453
4.824,0.56794,0.45846,-0.16406,0.86667,0.88867
4.832,0.56207,0.4565,-0.16406,0.86667,0.87891
4.84,0.55621,0.45455,-0.16016,0.86078,0.86523
4.848,0.55132,0.45161,-0.1543,0.86078,0.84961
4.856,0.54545,0.44868,-0.1543,0.87059,0.83984
4.864,0.54057,0.44477,-0.14844,0.86667,0.82031
4.872,0.5347,0.44184,-0.1543,0.87647,0.81055
4.88,0.52981,0.43891,-0.14453,0.88627,0.79492
4.888,0.52493,0.43695,-0.14844,0.8902,0.78906
4.896,0.52004,0.435,-0.14453,0.89608,0.78516
4.904,0.51515,0.43206,-0.14453,0.8902,0.79492
4.912,0.51026,0.43109,-0.13477,0.88039,0.79883
4.92,0.50538,0.43011,-0.12891,0.86667,0.81445
4.928,0.49951,0.43011,-0.10352,0.8451,0.82031
4.936,0.49365,0.43011,-0.080078,0.82157,0.82031
4.944,0.48876,0.43011,-0.048828,0.7902,0.81445
4.952,0.48289,0.43011,-0.035156,0.76667,0.82031
4.96,0.47703,0.42913,-0.013672,0.7451,0.82031
4.968,0.47116,0.42913,-0.0039062,0.74118,0.82031
4.976,0.4653,0.42815,0,0.72549,0.82031
4.984,0.45846,0.4262,0.0058594,0.72157,0.82422
4.992,0.45064,0.42522,0,0.72157,0.82031
5,0.44282,0.42326,0.0058594,0.72157,0.82422
5.008,0.43402,0.42229,0,0.72157,0.82422
5.016,0.42424,0.42033,0,0.72157,0.82422
5.024,0.41447,0.41838,0,0.73137,0.82031
5.032,0.40469,0.41642,0,0.73529,0.82422
5.04,0.39492,0.41544,0,0.73529,0.83008
5.048,0.38514,0.41349,-0.0039062,0.7451,0.82422
5.056,0.37634,0.41251,-0.0097656,0.74118,0.83008
5.064,0.36852,0.41153,-0.0039062,0.74118,0.82031
5.072,0.35973,0.41153,-0.0097656,0.74118,0.82422
5.08,0.35093,0.41251,-0.0097656,0.74118,0.82031
5.088,0.34115,0.41447,-0.0097656,0.73137,0.82422
5.096,0.33138,0.41544,0,0.73137,0.81445
5.104,0.32258,0.41544,0,0.72549,0.82031
5.112,0.31378,0.41447,-0.0039062,0.72157,0.81445
5.12,0.30596,0.41447,-0.0039062,0.72157,0.81445
5.128,0.29912,0.41447,0,0.72157,0.82031
5.136,0.29228,0.41544,-0.0039062,0.72157,0.82031
5.144,0.28543,0.41838,-0.0039062,0.72157,0.82031
5.152,0.27859,0.42522,0.0058594,0.74118,0.80469
5.16,0.27175,0.43597,0.050781,0.77059,0.76562
5.168,0.26491,0.45161,0.060547,0.78039,0.75391
5.176,0.25806,0.47214,0.044922,0.73137,0.77539
5.184,0.2522,0.4956,0.035156,0.6902,0.79492
5.192,0.24633,0.52004,0.064453,0.65098,0.76953
5.2,0.24047,0.54448,0.085938,0.62941,0.75977
5.208,0.23558,0.56794,0.085938,0.61961,0.75391
5.216,0.23167,0.58749,0.089844,0.62549,0.75977
5.224,0.22678,0.60411,0.076172,0.6451,0.76953
5.232,0.22287,0.61388,0.0097656,0.68627,0.82422
5.24,0.21994,0.62072,-0.039062,0.7098,0.85938
5.248,0.21603,0.62463,-0.070312,0.72157,0.87891
5.256,0.2131,0.62659,-0.074219,0.73137,0.88867
5.264,0.21017,0.62659,-0.080078,0.73137,0.88867
5.272,0.20723,0.62463,-0.080078,0.73529,0.88867
5.28,0.20528,0.62268,-0.074219,0.72549,0.87891
5.288,0.20235,0.62072,-0.048828,0.69608,0.81055
5.296,0.20039,0.61779,0.041016,0.68627,0.61523
5.304,0.19746,0.61584,0.39062,0.51569,0.3457
5.312,0.1955,0.61193,1.1289,0.12941,-0.083984
5.32,0.19257,0.60802,1.3301,-0.021569,0.18555
5.328,0.18964,0.60411,0.58398,0.24902,0.75391
5.336,0.18671,0.6002,0.050781,0.61569,1.0098
5.344,0.18377,0.59629,-0.09375,0.7549,0.98047
5.352,0.18084,0.59238,-0.16992,0.82157,0.96875
5.36,0.17791,0.58651,-0.19922,0.84118,0.98047
5.368,0.17595,0.57967,-0.21484,0.85686,0.98438
5.376,0.174,0.57185,-0.21484,0.86078,0.98047
5.384,0.17302,0.56207,-0.21875,0.87059,0.98047
5.392,0.17107,0.5523,-0.21484,0.86667,0.95898
5.4,0.16911,0.54448,-0.20898,0.87647,0.95898
5.408,0.16813,0.53568,-0.20508,0.87059,0.95898
5.416,0.16618,0.52786,-0.19922,0.87059,0.94922
5.424,0.16422,0.52004,-0.19922,0.86667,0.93945
5.432,0.16325,0.5132,-0.18945,0.86078,0.93555
5.44,0.16129,0.50733,-0.18945,0.86667,0.93555
5.448,0.16129,0.50244,-0.17969,0.86078,0.92383
5.456,0.16031,0.49853,-0.17969,0.86667,0.91992
5.464,0.15934,0.49365,-0.16406,0.86078,0.9043
5.472,0.15934,0.48974,-0.16406,0.86078,0.90039
5.48,0.15836,0.48583,-0.16016,0.85686,0.88867
5.488,0.15738,0.48192,-0.1543,0.85686,0.875
5.496,0.15738,0.47801,-0.14844,0.85686,0.86523
5.504,0.15738,0.47507,-0.14453,0.86078,0.84961
5.512,0.15738,0.47214,-0.14453,0.86078,0.83984
5.52,0.15836,0.46921,-0.14453,0.86078,0.83008
5.528,0.15836,0.46628,-0.13867,0.86667,0.81055
5.536,0.15934,0.46334,-0.14453,0.87647,0.79492
5.544,0.15934,0.46041,-0.13867,0.88627,0.78516
5.552,0.16031,0.4565,-0.14453,0.88627,0.7793
5.56,0.16031,0.45357,-0.13477,0.88627,0.78516
5.568,0.16129,0.44966,-0.12891,0.88039,0.79492
5.576,0.16129,0.44575,-0.11523,0.86667,0.79492
5.584,0.16129,0.44184,-0.099609,0.85098,0.81055
5.592,0.16129,0.43891,-0.074219,0.83137,0.81445
5.6,0.16031,0.43695,-0.048828,0.8,0.82031
5.608,0.16031,0.43402,-0.029297,0.77059,0.82031
5.616,0.16031,0.43109,-0.013672,0.7549,0.82031
5.624,0.15836,0.42717,-0.0039062,0.7451,0.82031
5.632,0.15738,0.42522,0,0.73137,0.82422
5.64,0.1564,0.42424,0,0.73137,0.83008
5.648,0.15445,0.42229,0,0.72549,0.83398
5.656,0.15249,0.42033,0,0.73137,0.83398
5.664,0.14956,0.41838,0,0.73137,0.83398
5.672,0.14663,0.41642,0,0.73137,0.83984
5.68,0.1437,0.41447,0,0.73529,0.83398
5.688,0.14174,0.41251,-0.0097656,0.74118,0.83984
5.696,0.13881,0.41056,-0.0039062,0.74118,0.83984
5.704,0.13685,0.4086,-0.013672,0.7451,0.83984
5.712,0.1349,0.40665,-0.0097656,0.7451,0.83398
5.72,0.13196,0.40469,-0.019531,0.7451,0.83984
5.728,0.13001,0.40371,-0.013672,0.7451,0.83008
5.736,0.1261,0.40371,-0.019531,0.7451,0.83008
5.744,0.12317,0.40371,-0.0097656,0.74118,0.82031
5.752,0.12121,0.40371,-0.013672,0.73529,0.82422
5.76,0.11926,0.40274,-0.0039062,0.73137,0.82031
5.768,0.11828,0.40176,-0.0039062,0.73137,0.82031
5.776,0.1173,0.40078,0,0.72549,0.81445
5.784,0.11632,0.40176,-0.0039062,0.72549,0.82031
5.792,0.11535,0.40371,0,0.71569,0.81445
5.8,0.11339,0.40762,0,0.72157,0.82031
5.808,0.11241,0.41544,0,0.72157,0.81445
5.816,0.11144,0.42815,0.019531,0.75098,0.78906
5.824,0.11046,0.44379,0.060547,0.77647,0.75977
5.832,0.11046,0.46041,0.054688,0.76078,0.75391
5.84,0.11144,0.47898,0.044922,0.71569,0.78516
5.848,0.11144,0.50049,0.041016,0.68039,0.79492
5.856,0.11241,0.52297,0.064453,0.6451,0.76953
5.864,0.11339,0.54741,0.089844,0.62549,0.76562
5.872,0.11437,0.56794,0.085938,0.62549,0.75977
5.88,0.11535,0.58065,0.089844,0.62549,0.75
5.888,0.11632,0.59042,0.054688,0.66471,0.78516
5.896,0.1173,0.59824,-0.0097656,0.7,0.83984
5.904,0.11926,0.60313,-0.054688,0.72157,0.86914
5.912,0.12023,0.60606,-0.074219,0.73137,0.88477
5.92,0.12219,0.60704,-0.083984,0.73529,0.89453
5.928,0.12317,0.60802,-0.080078,0.73529,0.88867
5.936,0.12512,0.60606,-0.083984,0.73529,0.89453
5.944,0.1261,0.60313,-0.070312,0.72549,0.87891
5.952,0.12708,0.6002,-0.039062,0.6902,0.77539
5.96,0.12805,0.59629,0.095703,0.69608,0.55078
5.968,0.12903,0.59238,0.5293,0.4451,0.24609
5.976,0.12903,0.58847,1.2402,0.068627,-0.09375
5.984,0.13001,0.58456,1.2695,0.013725,0.35938
5.992,0.13001,0.57967,0.39062,0.38039,0.88477
6,0.13001,0.57576,-0.013672,0.67059,1.0195
6.008,0.13001,0.57185,-0.11914,0.78039,0.98047
6.016,0.13001,0.56696,-0.17383,0.83529,0.96875
6.024,0.13001,0.56207,-0.20508,0.85686,0.98438
6.032,0.13001,0.55621,-0.21484,0.86078,0.98438
6.04,0.13099,0.55034,-0.21875,0.87059,0.98047
6.048,0.13099,0.54252,-0.21875,0.87647,0.98047
6.056,0.13196,0.53372,-0.21484,0.88039,0.98438
6.064,0.13294,0.52395,-0.21484,0.87647,0.96875
6.072,0.13294,0.51417,-0.21484,0.87647,0.96484
6.08,0.13392,0.50538,-0.20508,0.87059,0.95898
6.088,0.13392,0.49853,-0.20898,0.87647,0.94922
6.096,0.13392,0.49365,-0.19336,0.86667,0.93945
6.104,0.1349,0.48974,-0.18945,0.87059,0.93555
6.112,0.13685,0.48583,-0.18359,0.86078,0.92383
6.12,0.13783,0.48094,-0.17969,0.86078,0.91406
6.128,0.13978,0.47605,-0.16406,0.86078,0.90039
6.136,0.14174,0.4741,-0.16406,0.86078,0.90039
6.144,0.1437,0.47116,-0.1543,0.86078,0.88477
6.152,0.14467,0.46725,-0.14844,0.86078,0.87891
6.16,0.14663,0.46334,-0.14453,0.86078,0.85938
6.168,0.14858,0.45943,-0.14453,0.86078,0.85547
6.176,0.15054,0.45455,-0.14453,0.86667,0.83984
6.184,0.15152,0.45064,-0.14453,0.87059,0.83008
6.192,0.15347,0.4477,-0.13867,0.87647,0.81055
6.2,0.15445,0.44477,-0.14453,0.88039,0.79883
6.208,0.1564,0.44184,-0.14453,0.88627,0.79492
6.216,0.15738,0.43891,-0.13477,0.88627,0.79492
6.224,0.15934,0.43695,-0.12891,0.88627,0.78906
6.232,0.16031,0.435,-0.11523,0.87647,0.79492
6.24,0.16227,0.43304,-0.10938,0.86078,0.79883
6.248,0.16325,0.43011,-0.089844,0.8451,0.81055
6.256,0.1652,0.42815,-0.074219,0.81569,0.81445
6.264,0.1652,0.4262,-0.048828,0.7902,0.81445
6.272,0.16618,0.42424,-0.025391,0.77059,0.81445
6.28,0.16716,0.42131,-0.0097656,0.7549,0.81055
6.288,0.16716,0.42033,-0.0039062,0.7451,0.82031
6.296,0.16716,0.41838,0,0.74118,0.82031
6.304,0.16716,0.41544,-0.0039062,0.73529,0.83008
6.312,0.16716,0.41447,0.0058594,0.73529,0.82031
6.32,0.16716,0.41251,0,0.73137,0.83008
6.328,0.16618,0.41056,0,0.73137,0.82422
6.336,0.16618,0.4086,-0.0039062,0.74118,0.83008
6.344,0.16618,0.40762,-0.0097656,0.74118,0.83398
6.352,0.1652,0.40762,-0.013672,0.7451,0.83984
6.36,0.1652,0.4086,-0.013672,0.7451,0.83984
6.368,0.1652,0.41056,-0.025391,0.75098,0.84375
6.376,0.1652,0.41056,-0.025391,0.75098,0.83398
6.384,0.16618,0.41056,-0.019531,0.75098,0.83008
6.392,0.16716,0.41056,-0.025391,0.75098,0.83398
6.4,0.16813,0.4086,-0.019531,0.75098,0.82422
6.408,0.16911,0.40762,-0.025391,0.7451,0.82031
6.416,0.17107,0.40567,-0.013672,0.7451,0.82422
6.424,0.174,0.40371,-0.019531,0.74118,0.82031
6.432,0.17791,0.40274,-0.0097656,0.73529,0.82031
6.44,0.18182,0.40078,-0.0039062,0.72549,0.81445
6.448,0.18671,0.40078,0,0.72549,0.81055
6.456,0.19159,0.40176,0,0.73137,0.82031
6.464,0.19746,0.40567,0.0097656,0.74118,0.79883
6.472,0.2043,0.41544,0.041016,0.77059,0.77539
6.48,0.21017,0.42815,0.054688,0.78627,0.75391
6.488,0.21701,0.44575,0.041016,0.75098,0.7793
6.496,0.22385,0.46725,0.035156,0.70588,0.78906
6.504,0.23069,0.48876,0.050781,0.67059,0.77539
6.512,0.23851,0.51124,0.089844,0.65098,0.75
6.52,0.24536,0.53079,0.089844,0.62941,0.75977
6.528,0.25318,0.54741,0.095703,0.62549,0.75391
6.536,0.261,0.56207,0.099609,0.64118,0.75
6.544,0.26882,0.57478,0.041016,0.68627,0.79883
6.552,0.27664,0.58358,-0.029297,0.72157,0.85938
6.56,0.28348,0.58944,-0.064453,0.73529,0.87891
6.568,0.29032,0.59238,-0.074219,0.73529,0.88867
6.576,0.29717,0.59238,-0.074219,0.74118,0.88867
6.584,0.30401,0.59042,-0.080078,0.7451,0.88867
6.592,0.31085,0.58749,-0.074219,0.74118,0.88867
6.6,0.31769,0.58358,-0.064453,0.72549,0.86523
6.608,0.32454,0.57771,-0.029297,0.6902,0.70898
6.616,0.33138,0.57283,0.125,0.69608,0.48047
6.624,0.33724,0.56794,0.71484,0.38431,0.11133
6.632,0.34311,0.56403,1.3145,0.098039,-0.074219
6.64,0.34995,0.56109,0.95508,0.1549,0.49023
6.648,0.35484,0.55718,0.22461,0.5098,0.95508
6.656,0.3607,0.55327,-0.054688,0.7098,1.0137
6.664,0.36657,0.54839,-0.13477,0.79608,0.96484
6.672,0.37146,0.5435,-0.18359,0.83137,0.96875
6.68,0.3783,0.53763,-0.19922,0.85098,0.98047
6.688,0.38416,0.53177,-0.21484,0.86078,0.98047
6.696,0.39101,0.52395,-0.21484,0.86667,0.98047
6.704,0.39785,0.51515,-0.21484,0.87059,0.98438
6.712,0.40469,0.50635,-0.21484,0.87059,0.96875
6.72,0.41153,0.49951,-0.21484,0.86667,0.95898
6.728,0.4174,0.49267,-0.19922,0.86667,0.95508
6.736,0.42326,0.48485,-0.19336,0.86667,0.94922
6.744,0.43109,0.47801,-0.18945,0.86667,0.93555
6.752,0.43891,0.47116,-0.18945,0.86078,0.93555
6.76,0.44673,0.4653,-0.17969,0.86078,0.91992
6.768,0.45552,0.46041,-0.17969,0.85686,0.92383
6.776,0.4653,0.4565,-0.16406,0.85686,0.91016
6.784,0.47507,0.45259,-0.16406,0.86078,0.90039
6.792,0.48583,0.44868,-0.16016,0.85098,0.88867
6.8,0.49658,0.44575,-0.1543,0.8451,0.88477
6.808,0.50635,0.44282,-0.14844,0.84118,0.86523
6.816,0.51613,0.43988,-0.13867,0.84118,0.86523
6.824,0.5259,0.43793,-0.13477,0.8451,0.84375
6.832,0.5347,0.43695,-0.12891,0.85098,0.83984
6.84,0.54545,0.435,-0.13867,0.85098,0.82031
6.848,0.55523,0.43304,-0.13477,0.86078,0.81055
6.856,0.56696,0.43109,-0.13477,0.86078,0.79883
6.864,0.57771,0.42913,-0.125,0.86078,0.78516
6.872,0.58749,0.42717,-0.11914,0.85686,0.7793
6.88,0.59824,0.42522,-0.10938,0.85098,0.78516
6.888,0.60704,0.42229,-0.099609,0.84118,0.79492
6.896,0.61681,0.41838,-0.083984,0.83137,0.79883
6.904,0.62659,0.41544,-0.070312,0.80588,0.81055
6.912,0.63539,0.41153,-0.048828,0.7902,0.80469
6.92,0.64516,0.40762,-0.035156,0.77647,0.81445
6.928,0.65396,0.40469,-0.019531,0.76078,0.81445
6.936,0.66276,0.40274,0,0.7451,0.82031
6.944,0.67253,0.3998,0,0.7451,0.82031
6.952,0.68133,0.39785,-0.0097656,0.75098,0.83398
6.96,0.69013,0.39589,0,0.7451,0.83008
6.968,0.69892,0.39394,-0.0039062,0.7451,0.83398
6.976,0.70674,0.39198,0,0.7451,0.83398
6.984,0.71554,0.39003,-0.0097656,0.75098,0.83398
6.992,0.72336,0.38807,0,0.7549,0.83008
7,0.73216,0.38612,-0.013672,0.75098,0.83398
7.008,0.74096,0.38416,-0.0097656,0.7549,0.83008
7.016,0.74976,0.38221,-0.013672,0.75098,0.83008
7.024,0.75953,0.38123,-0.0039062,0.75098,0.82031
7.032,0.76735,0.38123,0,0.76078,0.82031
7.04,0.77517,0.38123,-0.013672,0.76667,0.82031
7.048,0.78299,0.38025,-0.0097656,0.76078,0.82031
7.056,0.78983,0.37928,-0.013672,0.7549,0.81445
7.064,0.79765,0.37732,0,0.7451,0.81055
7.072,0.80645,0.37634,-0.0039062,0.7451,0.80469
7.08,0.81427,0.37537,0,0.73529,0.79883
7.088,0.82307,0.37537,0,0.73137,0.80469
7.096,0.83284,0.37537,0,0.73137,0.79883
7.104,0.84164,0.37537,0,0.73137,0.80469
7.112,0.85142,0.37732,0.0058594,0.73137,0.81055
7.12,0.86119,0.38025,0,0.73137,0.81445
7.128,0.86999,0.38514,0.025391,0.76078,0.78906
7.136,0.87879,0.39492,0.060547,0.78039,0.75391
7.144,0.88759,0.4086,0.054688,0.78627,0.75977
7.152,0.89541,0.42522,0.041016,0.71569,0.78516
7.16,0.9042,0.44477,0.035156,0.6902,0.79492
7.168,0.913,0.4653,0.070312,0.67059,0.76953
7.176,0.92278,0.48583,0.089844,0.65098,0.75391
7.184,0.93157,0.50538,0.095703,0.6451,0.75391
7.192,0.94037,0.52297,0.089844,0.6451,0.75
7.2,0.94917,0.53763,0.064453,0.68039,0.77539
7.208,0.95699,0.55034,0.0058594,0.7098,0.83008
7.216,0.96481,0.55816,-0.048828,0.73529,0.86914
7.224,0.97361,0.56207,-0.074219,0.7451,0.88867
7.232,0.9824,0.56403,-0.080078,0.7451,0.88867
7.24,0.9912,0.56403,-0.080078,0.7451,0.88867
7.248,1,0.56207,-0.074219,0.7451,0.88477
7.256,1,0.56012,-0.080078,0.73529,0.88867
7.264,1,0.55718,-0.048828,0.6902,0.77539
7.272,1,0.55327,0.041016,0.69608,0.58008
7.28,1,0.54839,0.49414,0.49412,0.29492
7.288,1,0.5435,1.2539,0.13922,-0.025391
7.296,1,0.53763,1.3438,0.062745,0.32422
7.304,1,0.53177,0.43945,0.37451,0.83984
7.312,1,0.5259,0,0.6549,0.99414
7.32,1,0.52004,-0.11523,0.76078,0.96484
7.328,1,0.5132,-0.17383,0.81176,0.95898
7.336,1,0.50635,-0.19922,0.83529,0.96875
7.344,1,0.49951,-0.20898,0.84118,0.97461
7.352,1,0.49169,-0.21875,0.8451,0.97461
7.36,1,0.48387,-0.21484,0.85098,0.96484
7.368,1,0.47703,-0.21484,0.8451,0.95898
7.376,1,0.47116,-0.20898,0.85098,0.96484
7.384,1,0.4653,-0.20508,0.8451,0.95898
7.392,1,0.45943,-0.19922,0.84118,0.94531
7.4,1,0.45455,-0.19336,0.84118,0.94531
7.408,1,0.45064,-0.18945,0.84118,0.92969
7.416,1,0.44575,-0.18359,0.84118,0.92969
7.424,1,0.44282,-0.18359,0.83529,0.91406
7.432,1,0.43988,-0.17383,0.83529,0.91406
7.44,1,0.43695,-0.16406,0.83137,0.9043
7.448,1,0.43402,-0.16406,0.83137,0.89453
7.456,1,0.43206,-0.1543,0.82549,0.88477
7.464,1,0.42913,-0.14453,0.82549,0.86914
7.472,1,0.42717,-0.14453,0.83137,0.86523
7.48,1,0.42522,-0.13867,0.83529,0.84961
7.488,1,0.42326,-0.14453,0.83137,0.84375
7.496,1,0.42131,-0.13867,0.83529,0.83008
7.504,1,0.41935,-0.13867,0.84118,0.82031
7.512,1,0.4174,-0.13477,0.84118,0.80469
7.52,1,0.41642,-0.13867,0.85098,0.79883
7.528,1,0.41447,-0.13477,0.85098,0.79492
7.536,1,0.41349,-0.13477,0.8451,0.79883
7.544,1,0.41153,-0.11914,0.84118,0.80469
7.552,1,0.40958,-0.11914,0.83529,0.82031
7.56,1,0.40665,-0.09375,0.81569,0.82031
7.568,1,0.40469,-0.083984,0.79608,0.83008
7.576,1,0.40078,-0.054688,0.77059,0.82031
7.584,1,0.39687,-0.039062,0.7549,0.82422
7.592,1,0.39296,-0.025391,0.74118,0.82422
7.6,1,0.38905,-0.019531,0.73137,0.83008
7.608,1,0.38612,-0.0097656,0.72549,0.83398
7.616,1,0.38416,0,0.72549,0.83008
7.624,1,0.38221,0,0.72549,0.83398
7.632,1,0.38123,0,0.72549,0.83398
7.64,1,0.37928,0,0.73137,0.83984
7.648,1,0.37732,0,0.73137,0.83398
7.656,1,0.37634,0,0.73529,0.83984
7.664,1,0.37537,0,0.73529,0.83398
7.672,1,0.37537,-0.0039062,0.73529,0.83984
7.68,1,0.37537,-0.0039062,0.73529,0.83008
7.688,1,0.37537,-0.013672,0.74118,0.83008
7.696,1,0.37537,-0.0039062,0.73529,0.82031
7.704,1,0.37537,-0.0097656,0.74118,0.82422
7.712,1,0.37537,-0.0097656,0.73529,0.82031
7.72,0.99316,0.37537,-0.013672,0.73529,0.82031
7.728,0.98631,0.37537,-0.0097656,0.73137,0.82031
7.736,0.97458,0.37537,-0.013672,0.72549,0.82031
7.744,0.96285,0.37537,-0.0097656,0.72549,0.82031
7.752,0.9521,0.37537,-0.013672,0.72549,0.82031
7.76,0.94135,0.37537,-0.0039062,0.72157,0.82031
7.768,0.93255,0.37634,-0.0097656,0.72157,0.82031
7.776,0.92375,0.37928,-0.0097656,0.72157,0.82031
7.784,0.91691,0.38612,0,0.74118,0.81445
7.792,0.91007,0.39883,0.035156,0.76667,0.7793
7.8,0.9042,0.41544,0.050781,0.78039,0.76953
7.808,0.89834,0.43695,0.044922,0.73137,0.7793
7.816,0.89443,0.46041,0.03125,0.6902,0.79492
7.824,0.88954,0.48192,0.060547,0.6549,0.7793
7.832,0.88563,0.49951,0.080078,0.63529,0.76953
7.84,0.88172,0.52004,0.085938,0.61961,0.76562
7.848,0.87879,0.53763,0.089844,0.61569,0.75977
7.856,0.87488,0.5523,0.095703,0.63529,0.75391
7.864,0.87097,0.56305,0.025391,0.68039,0.81055
7.872,0.86706,0.56989,-0.029297,0.70588,0.85547
7.88,0.86315,0.5738,-0.064453,0.72549,0.875
7.888,0.85826,0.5738,-0.074219,0.72549,0.88867
7.896,0.85337,0.57283,-0.074219,0.73137,0.88867
7.904,0.84751,0.56989,-0.074219,0.73137,0.88867
7.912,0.84164,0.56696,-0.070312,0.72157,0.87891
7.92,0.83578,0.56305,-0.054688,0.7,0.83398
7.928,0.82991,0.56305,0.015625,0.68627,0.6543
7.936,0.82405,0.565,0.29492,0.58039,0.42969
7.944,0.8172,0.565,0.98438,0.23922,0.019531
7.952,0.81134,0.56207,1.3184,-0.037255,-0.048828
7.96,0.8045,0.55914,0.75977,0.14902,0.6543
7.968,0.79668,0.55425,0.12109,0.56078,0.99414
7.976,0.78886,0.54839,-0.064453,0.72549,0.97461
7.984,0.78104,0.54252,-0.16016,0.80588,0.96484
7.992,0.77322,0.53666,-0.19336,0.83529,0.96875
8,0.76637,0.53079,-0.21484,0.8451,0.98047
8.008,0.75855,0.52395,-0.21484,0.86078,0.96875
8.016,0.75171,0.51711,-0.21875,0.86667,0.97461
8.024,0.74487,0.51026,-0.22461,0.86667,0.96875
8.032,0.73803,0.5044,-0.21484,0.86667,0.96484
8.04,0.73118,0.49756,-0.21484,0.86078,0.95898
8.048,0.72434,0.49071,-0.20508,0.86078,0.94922
8.056,0.7175,0.48583,-0.20508,0.86078,0.93945
8.064,0.71065,0.48094,-0.19336,0.86078,0.93555
8.072,0.70381,0.47703,-0.18945,0.86078,0.92969
8.08,0.69599,0.47214,-0.18359,0.86078,0.91992
8.088,0.69013,0.46823,-0.17969,0.86078,0.91016
8.096,0.68328,0.46334,-0.16992,0.85686,0.9043
8.104,0.6784,0.45943,-0.16992,0.86078,0.91016
8.112,0.67253,0.45552,-0.16016,0.85686,0.88867
8.12,0.66764,0.45161,-0.16016,0.85686,0.87891
8.128,0.66276,0.44868,-0.14453,0.85686,0.86523
8.136,0.65787,0.44477,-0.14453,0.85686,0.85547
8.144,0.65298,0.44282,-0.14453,0.85686,0.83984
8.152,0.64809,0.44086,-0.14453,0.86078,0.82422
8.16,0.64321,0.43988,-0.14453,0.86078,0.81055
8.168,0.63832,0.43891,-0.14453,0.87647,0.80469
8.176,0.63343,0.43695,-0.14453,0.88039,0.78906
8.184,0.62757,0.435,-0.14453,0.88627,0.78516
8.192,0.62268,0.43304,-0.13867,0.88627,0.7793
8.2,0.61681,0.43109,-0.13477,0.88039,0.79492
8.208,0.61193,0.42913,-0.11914,0.86667,0.79492
8.216,0.60508,0.42717,-0.10938,0.85098,0.81445
8.224,0.59824,0.4262,-0.089844,0.83137,0.82031
8.232,0.5914,0.42424,-0.064453,0.80588,0.82031
8.24,0.58358,0.42229,-0.039062,0.77647,0.82031
8.248,0.57576,0.42033,-0.019531,0.75098,0.82031
8.256,0.56891,0.41838,-0.0039062,0.73529,0.82031
8.264,0.56109,0.4174,0,0.72549,0.82031
8.272,0.55327,0.41642,0,0.72157,0.83008
8.28,0.54448,0.41544,0.0058594,0.72157,0.82422
8.288,0.53568,0.41447,0.0058594,0.71569,0.83008
8.296,0.5259,0.41349,0.0097656,0.72157,0.82422
8.304,0.51613,0.41153,0.0097656,0.72157,0.83008
8.312,0.50733,0.40958,0.0058594,0.72157,0.82422
8.32,0.49853,0.4086,0,0.72549,0.83398
8.328,0.49071,0.40665,0,0.73529,0.83008
8.336,0.48192,0.40567,-0.0039062,0.73529,0.83398
8.344,0.47312,0.40469,-0.0039062,0.73529,0.83008
8.352,0.46432,0.40469,-0.0097656,0.74118,0.83398
8.36,0.45357,0.40567,-0.0039062,0.73529,0.82422
8.368,0.44379,0.40469,-0.0097656,0.73529,0.82422
8.376,0.43402,0.40469,-0.0039062,0.73529,0.82031
8.384,0.42424,0.40274,-0.0097656,0.73137,0.82031
8.392,0.41447,0.40078,0,0.72549,0.82031
8.4,0.40469,0.3998,0,0.72157,0.82031
8.408,0.39589,0.3998,0,0.72157,0.81445
8.416,0.3871,0.40078,0,0.72157,0.82031
8.424,0.3783,0.40274,0,0.71569,0.81445
8.432,0.37048,0.40665,0,0.7098,0.81445
8.44,0.36364,0.41544,0.025391,0.75098,0.78516
8.448,0.35582,0.42913,0.064453,0.77059,0.75391
8.456,0.34897,0.4477,0.054688,0.75098,0.76562
8.464,0.34311,0.47019,0.044922,0.70588,0.78516
8.472,0.33627,0.49462,0.041016,0.67059,0.79492
8.48,0.32942,0.52102,0.070312,0.63529,0.76562
8.488,0.32356,0.54545,0.085938,0.61961,0.75391
8.496,0.31769,0.56794,0.089844,0.61569,0.75391
8.504,0.31281,0.58651,0.095703,0.62549,0.75
8.512,0.30694,0.60117,0.060547,0.6549,0.7793
8.52,0.30205,0.61095,-0.0039062,0.69608,0.83398
8.528,0.29814,0.61681,-0.048828,0.71569,0.86523
8.536,0.29228,0.62072,-0.074219,0.72549,0.88867
8.544,0.28739,0.62268,-0.074219,0.73137,0.88867
8.552,0.28152,0.62268,-0.080078,0.73529,0.88867
8.56,0.27566,0.62072,-0.080078,0.73137,0.88867
8.568,0.27077,0.61975,-0.074219,0.72157,0.87891
8.576,0.26588,0.61681,-0.035156,0.68039,0.76953
8.584,0.26197,0.61486,0.089844,0.6902,0.56445
8.592,0.25709,0.61193,0.56445,0.43529,0.23047
8.6,0.2522,0.60997,1.2539,0.043137,-0.09375
8.608,0.24633,0.60704,1.3086,-0.031373,0.33008
8.616,0.24047,0.60411,0.40039,0.35882,0.86914
8.624,0.2346,0.60117,-0.0039062,0.6549,1.0039
8.632,0.22972,0.59726,-0.125,0.77647,0.97461
8.64,0.22385,0.59238,-0.17969,0.82157,0.96875
8.648,0.21994,0.58651,-0.20508,0.8451,0.98047
8.656,0.21505,0.57967,-0.21484,0.86078,0.98438
8.664,0.21114,0.57283,-0.21875,0.86078,0.98047
8.672,0.20626,0.56696,-0.22461,0.86667,0.98438
8.68,0.20137,0.55914,-0.21484,0.86667,0.96875
8.688,0.19648,0.55034,-0.21484,0.86667,0.96484
8.696,0.19159,0.54057,-0.20898,0.86667,0.95898
8.704,0.18768,0.53079,-0.20508,0.86667,0.95508
8.712,0.1828,0.52199,-0.19336,0.86667,0.94531
8.72,0.17889,0.51417,-0.19922,0.87059,0.93945
8.728,0.17595,0.50831,-0.18359,0.86078,0.92969
8.736,0.17204,0.50244,-0.18945,0.86078,0.92383
8.744,0.16911,0.49853,-0.17383,0.86078,0.91406
8.752,0.16716,0.49365,-0.16992,0.86667,0.91406
8.76,0.1652,0.49071,-0.16406,0.86078,0.89453
8.768,0.16325,0.48778,-0.16406,0.86078,0.89453
8.776,0.16227,0.48387,-0.1543,0.86078,0.87891
8.784,0.16129,0.47996,-0.1543,0.86667,0.86914
8.792,0.16031,0.47605,-0.14844,0.86667,0.85547
8.8,0.15934,0.47214,-0.14453,0.86667,0.83984
8.808,0.15836,0.46823,-0.14453,0.86667,0.82031
8.816,0.15738,0.46432,-0.14453,0.88039,0.81055
8.824,0.15738,0.46041,-0.14844,0.88627,0.79492
8.832,0.1564,0.45748,-0.14844,0.88627,0.79492
8.84,0.1564,0.45455,-0.14453,0.8902,0.79492
8.848,0.1564,0.45064,-0.14453,0.8902,0.79492
8.856,0.1564,0.44673,-0.13477,0.88627,0.80469
8.864,0.15543,0.44282,-0.11914,0.87059,0.82031
8.872,0.15445,0.43988,-0.099609,0.85686,0.82422
8.88,0.15347,0.43695,-0.074219,0.82549,0.82031
8.888,0.15152,0.43402,-0.054688,0.79608,0.83008
8.896,0.15054,0.43109,-0.035156,0.77059,0.82422
8.904,0.14956,0.42913,-0.019531,0.75098,0.82422
8.912,0.14858,0.42717,-0.0039062,0.74118,0.82422
8.92,0.14565,0.42522,-0.0039062,0.73529,0.83398
8.928,0.1437,0.42424,0,0.73137,0.83008
8.936,0.13978,0.42229,0,0.72549,0.83984
8.944,0.13587,0.42033,0,0.72157,0.83008
8.952,0.13294,0.41838,0,0.72549,0.83984
8.96,0.12903,0.41642,0,0.72549,0.83398
8.968,0.1261,0.41447,0,0.73137,0.83984
8.976,0.12317,0.41153,0,0.73529,0.83398
8.984,0.11926,0.40958,-0.0039062,0.73529,0.83984
8.992,0.11535,0.4086,-0.0097656,0.74118,0.83398
9,0.11144,0.40958,-0.0039062,0.7451,0.83398
9.008,0.1085,0.41056,-0.013672,0.7451,0.83008
9.016,0.10459,0.41251,-0.0039062,0.74118,0.83008
9.024,0.10068,0.41349,-0.0097656,0.73529,0.82031
9.032,0.096774,0.41447,0,0.73137,0.82031
9.04,0.092864,0.41349,-0.0039062,0.73529,0.82031
9.048,0.089932,0.41153,0,0.73137,0.81445
9.056,0.087977,0.40958,-0.0039062,0.72549,0.82031
9.064,0.086022,0.4086,-0.0039062,0.72549,0.81445
9.072,0.085044,0.40762,-0.0097656,0.72157,0.82031
9.08,0.084066,0.40958,0,0.72157,0.82031
9.088,0.083089,0.41544,0,0.72157,0.82031
9.096,0.083089,0.4262,0.015625,0.7451,0.79492
9.104,0.083089,0.44282,0.050781,0.77647,0.76953
9.112,0.083089,0.46334,0.064453,0.76667,0.75391
9.12,0.083089,0.48387,0.044922,0.72157,0.7793
9.128,0.084066,0.5044,0.041016,0.68627,0.79492
9.136,0.085044,0.52786,0.064453,0.6451,0.77539
9.144,0.086022,0.55034,0.089844,0.62549,0.75977
9.152,0.086999,0.57185,0.089844,0.61569,0.75977
9.16,0.088954,0.58847,0.099609,0.61961,0.74414
9.168,0.089932,0.60117,0.076172,0.6451,0.76953
9.176,0.090909,0.60997,0.019531,0.6902,0.82031
9.184,0.091887,0.61486,-0.035156,0.72157,0.85938
9.192,0.092864,0.61779,-0.064453,0.72549,0.87891
9.2,0.093842,0.61975,-0.074219,0.72549,0.88477
9.208,0.095797,0.61877,-0.070312,0.73137,0.88867
9.216,0.096774,0.61681,-0.064453,0.72549,0.88477
9.224,0.097752,0.61388,-0.070312,0.73137,0.875
9.232,0.099707,0.61193,-0.039062,0.69608,0.79883
9.24,0.10068,0.60899,0.054688,0.6902,0.59961
9.248,0.10166,0.60508,0.40039,0.50588,0.32422
9.256,0.10264,0.60215,1.1387,0.12353,-0.09375
9.264,0.10362,0.59922,1.3145,0.0039216,0.2207
9.272,0.10362,0.59629,0.56445,0.26471,0.7793
9.28,0.10459,0.59238,0.041016,0.62549,1.0137
9.288,0.10557,0.58847,-0.09375,0.76078,0.98047
9.296,0.10557,0.5826,-0.16016,0.81569,0.96484
9.304,0.10557,0.57576,-0.19336,0.8451,0.98047
9.312,0.10655,0.56794,-0.20508,0.85686,0.98047
9.32,0.10655,0.56012,-0.21484,0.86667,0.98438
9.328,0.10753,0.55132,-0.20898,0.86667,0.97461
9.336,0.10753,0.54252,-0.20898,0.87059,0.96875
9.344,0.1085,0.53177,-0.20508,0.87647,0.95898
9.352,0.10948,0.52199,-0.19922,0.87059,0.95898
9.36,0.11046,0.51222,-0.18945,0.87059,0.94531
9.368,0.11144,0.50342,-0.18945,0.86667,0.94531
9.376,0.11241,0.49658,-0.18359,0.87059,0.93555
9.384,0.11241,0.49071,-0.17969,0.86078,0.93555
9.392,0.11339,0.48583,-0.17383,0.86667,0.92383
9.4,0.11437,0.48094,-0.16992,0.86078,0.91992
9.408,0.11535,0.47703,-0.17383,0.86078,0.91016
9.416,0.11632,0.47312,-0.16406,0.86078,0.90039
9.424,0.1173,0.46921,-0.1543,0.86078,0.88867
9.432,0.11828,0.46628,-0.14453,0.86078,0.875
9.44,0.12023,0.46432,-0.14453,0.86078,0.86523
9.448,0.12121,0.46041,-0.13867,0.86667,0.85547
9.456,0.12317,0.4565,-0.14453,0.86667,0.83984
9.464,0.12512,0.45259,-0.13867,0.87059,0.83008
9.472,0.12708,0.44868,-0.13867,0.87647,0.80469
9.48,0.13001,0.44477,-0.13477,0.88627,0.79492
9.488,0.13196,0.44282,-0.13867,0.88627,0.78516
9.496,0.1349,0.43988,-0.125,0.88627,0.77539
9.504,0.13685,0.43793,-0.12891,0.88627,0.78906
9.512,0.13881,0.435,-0.10938,0.87647,0.78516
9.52,0.14174,0.43402,-0.099609,0.86078,0.79492
9.528,0.14272,0.43402,-0.080078,0.8451,0.79883
9.536,0.14467,0.43206,-0.064453,0.82549,0.81055
9.544,0.14565,0.43109,-0.035156,0.7902,0.80469
9.552,0.14663,0.42913,-0.025391,0.77059,0.81055
9.56,0.14663,0.42717,-0.0039062,0.75098,0.81055
9.568,0.14761,0.42424,0.0058594,0.74118,0.81445
9.576,0.14761,0.42229,0.015625,0.73529,0.81445
9.584,0.14761,0.42033,0.0058594,0.73529,0.82031
9.592,0.14761,0.41838,0.0058594,0.73137,0.82031
9.6,0.14761,0.41642,0,0.73137,0.82031
9.608,0.14761,0.41447,0,0.73529,0.82422
9.616,0.14761,0.41251,0.0058594,0.74118,0.82031
9.624,0.14761,0.41153,0,0.74118,0.83008
9.632,0.14761,0.40958,0,0.7451,0.82422
9.64,0.14663,0.4086,0,0.7451,0.82422
9.648,0.14663,0.40665,-0.0097656,0.75098,0.82031
9.656,0.14663,0.40665,-0.019531,0.75098,0.83008
9.664,0.14663,0.40665,-0.013672,0.7549,0.82422
9.672,0.14761,0.40762,-0.019531,0.7549,0.83398
9.68,0.14858,0.4086,-0.013672,0.75098,0.82422
9.688,0.14956,0.4086,-0.019531,0.75098,0.83008
9.696,0.15054,0.40665,-0.0039062,0.7451,0.82031
9.704,0.15249,0.40567,-0.0039062,0.74118,0.81445
9.712,0.15445,0.40371,0,0.73529,0.81055
9.72,0.15738,0.40176,0,0.73529,0.81445
9.728,0.16129,0.40078,0.0058594,0.73137,0.81055
9.736,0.1652,0.40176,0,0.72549,0.81445
9.744,0.17009,0.40567,0.0058594,0.73137,0.81055
9.752,0.17498,0.41349,0.0058594,0.74118,0.81445
9.76,0.17986,0.4262,0.044922,0.76667,0.76953
9.768,0.18475,0.44379,0.070312,0.78627,0.75
9.776,0.18964,0.46628,0.050781,0.7451,0.76953
9.784,0.1955,0.49267,0.035156,0.70588,0.78906
9.792,0.20137,0.51808,0.050781,0.67059,0.79492
9.8,0.20821,0.54154,0.076172,0.65098,0.76562
9.808,0.21505,0.56109,0.095703,0.62941,0.75391
9.816,0.22287,0.57576,0.10547,0.62549,0.75
9.824,0.23069,0.58651,0.10547,0.63529,0.75
9.832,0.23851,0.59531,0.041016,0.68039,0.80469
9.84,0.24633,0.60117,-0.013672,0.7098,0.84961
9.848,0.25318,0.60411,-0.058594,0.73137,0.87891
9.856,0.261,0.60411,-0.074219,0.74118,0.88867
9.864,0.26784,0.60117,-0.080078,0.74118,0.89453
9.872,0.27468,0.59726,-0.083984,0.7451,0.90039
9.88,0.28152,0.59238,-0.074219,0.73529,0.88867
9.888,0.28837,0.58749,-0.058594,0.71569,0.85938
9.896,0.29521,0.5826,-0.025391,0.69608,0.69922
9.904,0.30205,0.57869,0.16016,0.7,0.46484
9.912,0.30792,0.57478,0.81055,0.3451,0.054688
9.92,0.31476,0.57087,1.334,0.084314,-0.089844
9.928,0.32063,0.56696,0.91992,0.16863,0.52539
9.936,0.32747,0.56109,0.17578,0.5451,0.98047
9.944,0.33333,0.55523,-0.064453,0.72157,1.0137
9.952,0.3392,0.54936,-0.14453,0.80588,0.96875
9.96,0.34604,0.5435,-0.18359,0.84118,0.96875
9.968,0.35288,0.53666,-0.20898,0.86078,0.98438
9.976,0.3607,0.52786,-0.21484,0.86667,0.98438
9.984,0.36852,0.51711,-0.21484,0.87059,0.98438
9.992,0.37732,0.50635,-0.20898,0.87647,0.96875
10,0.38514,0.49658,-0.20508,0.87059,0.96875
10.008,0.39296,0.4868,-0.20898,0.87059,0.95898
10.016,0.40078,0.47898,-0.19922,0.87059,0.95508
10.024,0.4086,0.47116,-0.18945,0.86667,0.93945
10.032,0.41544,0.46334,-0.18359,0.86667,0.93555
10.04,0.42326,0.4565,-0.18945,0.86078,0.92969
10.048,0.43206,0.45064,-0.16992,0.85686,0.91992
10.056,0.44086,0.44575,-0.16016,0.85686,0.91016
10.064,0.44966,0.43988,-0.14844,0.85098,0.90039
10.072,0.45846,0.435,-0.14844,0.85686,0.88867
10.08,0.46628,0.43109,-0.14453,0.8451,0.88867
10.088,0.47507,0.4262,-0.14453,0.85098,0.88477
10.096,0.48289,0.42326,-0.13477,0.8451,0.86523
10.104,0.49169,0.42033,-0.13477,0.8451,0.85938
10.112,0.50147,0.41838,-0.125,0.8451,0.84375
10.12,0.51026,0.4174,-0.12891,0.85098,0.83984
10.128,0.52004,0.41642,-0.11914,0.85686,0.82031
10.136,0.53079,0.41447,-0.11914,0.85686,0.80469
10.144,0.54057,0.41251,-0.11523,0.85686,0.79492
10.152,0.55132,0.41056,-0.11523,0.85686,0.78906
10.16,0.56109,0.40665,-0.10938,0.86078,0.78516
10.168,0.56989,0.40274,-0.10352,0.85098,0.78906
10.176,0.57967,0.39785,-0.09375,0.84118,0.79883
10.184,0.58749,0.39394,-0.089844,0.83137,0.81445
10.192,0.59531,0.39101,-0.070312,0.81569,0.81445
10.2,0.60411,0.38807,-0.048828,0.7902,0.81445
10.208,0.6129,0.38514,-0.029297,0.77647,0.82031
10.216,0.6217,0.38416,-0.019531,0.76078,0.82422
10.224,0.63148,0.38123,-0.0097656,0.7451,0.82422
10.232,0.6393,0.3783,0,0.74118,0.82422
10.24,0.64712,0.37439,0,0.74118,0.82422
10.248,0.65494,0.37146,0,0.74118,0.83398
10.256,0.66178,0.36755,0,0.73529,0.83984
10.264,0.67058,0.36461,0.0058594,0.74118,0.83008
10.272,0.6784,0.36266,0,0.7451,0.83398
10.28,0.68719,0.35973,0,0.74118,0.83008
10.288,0.69599,0.35777,0,0.7451,0.83984
10.296,0.70479,0.35582,-0.0097656,0.7451,0.83398
10.304,0.71359,0.35582,-0.0039062,0.75098,0.83008
10.312,0.72239,0.35582,0,0.75098,0.82422
10.32,0.73216,0.35582,-0.0039062,0.7549,0.82422
10.328,0.73998,0.35386,-0.0039062,0.75098,0.82031
10.336,0.7478,0.35191,-0.013672,0.7451,0.82031
10.344,0.7566,0.35093,0,0.7451,0.81055
10.352,0.76442,0.34995,0.0058594,0.7451,0.81055
10.36,0.77322,0.34995,0.0058594,0.74118,0.79883
10.368,0.78299,0.34897,0,0.74118,0.81055
10.376,0.79277,0.34897,0,0.73529,0.81055
10.384,0.80254,0.34897,0.0058594,0.74118,0.81055
10.392,0.81232,0.34897,0.0058594,0.73137,0.81055
10.4,0.82111,0.34995,0,0.72549,0.81445
10.408,0.82991,0.35191,-0.0039062,0.74118,0.82031
10.416,0.83871,0.35679,0.03125,0.76667,0.7793
10.424,0.84848,0.36559,0.060547,0.78627,0.75391
10.432,0.85728,0.38123,0.054688,0.76078,0.76953
10.44,0.86706,0.40078,0.044922,0.7098,0.7793
10.448,0.87683,0.42522,0.041016,0.68627,0.78906
10.456,0.88759,0.45161,0.070312,0.66078,0.76953
10.464,0.89736,0.47801,0.089844,0.6451,0.76562
10.472,0.90811,0.50244,0.099609,0.62941,0.75391
10.48,0.91984,0.52297,0.11133,0.62549,0.75
10.488,0.92864,0.54057,0.076172,0.66471,0.77539
10.496,0.93842,0.55327,0.0058594,0.7,0.83008
10.504,0.94624,0.56207,-0.048828,0.72549,0.86523
10.512,0.95503,0.56598,-0.064453,0.73137,0.87891
10.52,0.96383,0.56696,-0.074219,0.73529,0.88477
10.528,0.97361,0.56598,-0.074219,0.73137,0.88477
10.536,0.98338,0.56403,-0.074219,0.73137,0.88867
10.544,0.99316,0.56109,-0.054688,0.71569,0.86523
10.552,0.99707,0.55621,-0.035156,0.67647,0.75
10.56,1,0.55034,0.089844,0.68627,0.53906
10.568,1,0.54448,0.61914,0.42549,0.2207
10.576,1,0.53861,1.3086,0.094118,-0.029297
10.584,1,0.53372,1.0703,0.058824,0.40039
10.592,1,0.52786,0.33984,0.43529,0.88867
10.6,1,0.52199,-0.019531,0.66471,0.99023
10.608,1,0.51515,-0.11914,0.76667,0.95898
10.616,1,0.50929,-0.17383,0.81176,0.96875
10.624,1,0.50342,-0.19922,0.83137,0.97461
10.632,1,0.49658,-0.21484,0.84118,0.98047
10.64,1,0.48778,-0.21484,0.84118,0.97461
10.648,1,0.47898,-0.21484,0.8451,0.96484
10.656,1,0.47019,-0.21484,0.84118,0.96875
10.664,1,0.46139,-0.20898,0.84118,0.95898
10.672,1,0.45259,-0.21484,0.84118,0.95508
10.68,1,0.44575,-0.19922,0.84118,0.94531
10.688,1,0.43891,-0.19336,0.83529,0.94922
10.696,1,0.43206,-0.18945,0.83137,0.93555
10.704,1,0.42717,-0.18945,0.83529,0.92969
10.712,1,0.42424,-0.17969,0.83137,0.91992
10.72,1,0.42229,-0.17383,0.83529,0.91406
10.728,1,0.42033,-0.16406,0.83529,0.9043
10.736,1,0.41838,-0.16406,0.83137,0.90039
10.744,1,0.41544,-0.1543,0.82549,0.88867
10.752,1,0.41349,-0.16016,0.83137,0.87891
10.76,1,0.41153,-0.14453,0.82549,0.86523
10.768,1,0.4086,-0.14453,0.83137,0.85547
10.776,1,0.40665,-0.14453,0.82549,0.83984
10.784,1,0.40371,-0.13867,0.83137,0.83008
10.792,1,0.40176,-0.13867,0.84118,0.81445
10.8,1,0.3998,-0.13867,0.84118,0.80469
10.808,1,0.39687,-0.13477,0.84118,0.79492
10.816,1,0.39492,-0.13477,0.84118,0.79492
10.824,1,0.39394,-0.12891,0.84118,0.79492
10.832,1,0.39198,-0.11914,0.83529,0.80469
10.84,1,0.39003,-0.10938,0.82157,0.81445
10.848,1,0.3871,-0.089844,0.80588,0.82031
10.856,1,0.38319,-0.064453,0.78627,0.82031
10.864,1,0.37928,-0.044922,0.77059,0.81445
10.872,1,0.37634,-0.025391,0.7451,0.82031
10.88,1,0.37341,-0.013672,0.74118,0.82031
10.888,1,0.37048,-0.0039062,0.73529,0.83008
10.896,1,0.36755,0,0.72157,0.83008
10.904,1,0.36364,0,0.72157,0.83398
10.912,1,0.36168,0,0.72157,0.83398
10.92,1,0.35973,-0.0097656,0.72157,0.83984
10.928,1,0.35679,0,0.72157,0.83008
10.936,1,0.35484,-0.0039062,0.73137,0.83984
10.944,1,0.35288,-0.0097656,0.73137,0.83398
10.952,0.99804,0.35093,-0.0097656,0.74118,0.83984
10.96,0.99707,0.34995,-0.0097656,0.73529,0.83008
10.968,0.98143,0.34995,-0.0097656,0.73529,0.83398
10.976,0.96676,0.34897,-0.0097656,0.73529,0.82031
10.984,0.95406,0.34995,-0.0097656,0.73529,0.82031
10.992,0.94037,0.35093,-0.0039062,0.73137,0.82031
11,0.92962,0.35288,0,0.73137,0.82031
11.008,0.91789,0.35386,0,0.72549,0.81055
11.016,0.90811,0.35386,0,0.73137,0.81055
11.024,0.89834,0.35386,0,0.73137,0.81055
11.032,0.88954,0.35288,0,0.73137,0.81055
11.04,0.88172,0.35288,0,0.72549,0.81445
11.048,0.87488,0.35386,0,0.72549,0.81445
11.056,0.86901,0.35679,0,0.72157,0.82031
11.064,0.86413,0.36266,0,0.72157,0.81055
11.072,0.85826,0.37341,0,0.72549,0.82031
11.08,0.85435,0.38905,0.019531,0.75098,0.78906
11.088,0.85044,0.40762,0.050781,0.78039,0.76953
11.096,0.84653,0.42913,0.050781,0.7549,0.76953
11.104,0.8436,0.45455,0.035156,0.71569,0.79492
11.112,0.83969,0.47703,0.044922,0.68039,0.78906
11.12,0.83675,0.49756,0.070312,0.65098,0.76953
11.128,0.8348,0.52004,0.089844,0.62941,0.75977
11.136,0.83187,0.53959,0.089844,0.62549,0.76562
11.144,0.82991,0.55523,0.099609,0.62549,0.75
11.152,0.82698,0.56696,0.054688,0.66078,0.7793
11.16,0.82307,0.5738,0,0.69608,0.83008
11.168,0.82014,0.57674,-0.048828,0.72157,0.86523
11.176,0.81525,0.57869,-0.074219,0.73529,0.87891
11.184,0.81036,0.57869,-0.074219,0.73529,0.88867
11.192,0.80547,0.57576,-0.074219,0.74118,0.88867
11.2,0.80156,0.57185,-0.074219,0.73529,0.88867
11.208,0.79668,0.56891,-0.058594,0.71569,0.85938
11.216,0.79179,0.56598,-0.025391,0.6902,0.72461
11.224,0.78592,0.56305,0.16602,0.7,0.50977
11.232,0.77908,0.55914,0.70508,0.38039,0.16992
11.24,0.77126,0.55425,1.3301,0.0039216,-0.025391
11.248,0.76344,0.54839,1.0039,-0.021569,0.4707
11.256,0.75464,0.54154,0.27539,0.44902,0.93555
11.264,0.74585,0.53568,-0.029297,0.6902,1
11.272,0.73705,0.52981,-0.12891,0.78627,0.96484
11.28,0.72825,0.52395,-0.17969,0.83529,0.95898
11.288,0.71945,0.51808,-0.20508,0.85098,0.98047
11.296,0.71163,0.51124,-0.21484,0.86078,0.98047
11.304,0.70381,0.5044,-0.21875,0.86667,0.98438
11.312,0.69599,0.49853,-0.21484,0.87059,0.96484
11.32,0.68817,0.49365,-0.21484,0.87647,0.95898
11.328,0.68035,0.48876,-0.20508,0.86667,0.95898
11.336,0.67253,0.48289,-0.20508,0.87059,0.95898
11.344,0.66471,0.47703,-0.19922,0.86667,0.94922
11.352,0.65787,0.47019,-0.19336,0.86667,0.94531
11.36,0.65103,0.46334,-0.18945,0.86078,0.93555
11.368,0.64516,0.45748,-0.18359,0.86667,0.93555
11.376,0.6393,0.45259,-0.17383,0.86078,0.91992
11.384,0.63343,0.4477,-0.16992,0.86667,0.91406
11.392,0.62854,0.44379,-0.16406,0.86078,0.9043
11.4,0.62366,0.44086,-0.16016,0.86078,0.89453
11.408,0.61877,0.43793,-0.14844,0.86078,0.875
11.416,0.61388,0.435,-0.14453,0.86078,0.86523
11.424,0.60899,0.43109,-0.14453,0.86667,0.85547
11.432,0.60313,0.42717,-0.13867,0.86078,0.84961
11.44,0.59824,0.42424,-0.14453,0.86078,0.83008
11.448,0.59433,0.42131,-0.13867,0.86667,0.82031
11.456,0.58944,0.41838,-0.14453,0.87647,0.80469
11.464,0.58456,0.41544,-0.14844,0.88627,0.79883
11.472,0.58065,0.41349,-0.14844,0.89608,0.79492
11.48,0.57576,0.41153,-0.14453,0.8902,0.78906
11.488,0.57185,0.4086,-0.14453,0.89608,0.79492
11.496,0.56696,0.40665,-0.125,0.88627,0.79492
11.504,0.56207,0.40371,-0.11914,0.87059,0.81055
11.512,0.55718,0.40274,-0.099609,0.85098,0.81445
11.52,0.5523,0.40176,-0.074219,0.82549,0.82422
11.528,0.54643,0.40078,-0.048828,0.7902,0.82031
11.536,0.54154,0.3998,-0.029297,0.77059,0.82422
11.544,0.5347,0.3998,-0.013672,0.7451,0.82031
11.552,0.52884,0.39883,0,0.74118,0.82422
11.56,0.52102,0.39687,0.0058594,0.72549,0.82031
11.568,0.51417,0.39492,0.0097656,0.72157,0.82031
11.576,0.50538,0.39198,0.015625,0.72157,0.82031
11.584,0.49658,0.39003,0.0097656,0.72157,0.82031
11.592,0.48778,0.38807,0.0058594,0.72549,0.82422
11.6,0.47801,0.3871,0.0058594,0.73137,0.82422
11.608,0.47019,0.38612,0,0.73137,0.83008
11.616,0.46139,0.38612,0,0.73529,0.83398
11.624,0.45357,0.38612,0,0.74118,0.83984
11.632,0.44477,0.38514,0,0.74118,0.83008
11.64,0.43695,0.38416,0,0.74118,0.83398
11.648,0.42815,0.38416,-0.0097656,0.7451,0.83008
11.656,0.41935,0.38319,-0.013672,0.7451,0.83008
11.664,0.41056,0.38221,-0.0097656,0.74118,0.82422
11.672,0.40274,0.38025,-0.013672,0.74118,0.83008
11.68,0.39492,0.37928,-0.0039062,0.73137,0.82031
11.688,0.38807,0.37732,-0.0097656,0.72549,0.82031
11.696,0.38025,0.37634,0,0.72549,0.81445
11.704,0.37341,0.37634,0,0.72549,0.82031
11.712,0.36559,0.37732,0,0.72549,0.82031
11.72,0.35875,0.38025,0,0.72157,0.82031
11.728,0.35093,0.38807,0.0097656,0.73529,0.80469
11.736,0.34409,0.3998,0.041016,0.77059,0.77539
11.744,0.33724,0.4174,0.064453,0.78039,0.75391
11.752,0.33138,0.43891,0.054688,0.74118,0.76953
11.76,0.32454,0.4653,0.044922,0.69608,0.78516
11.768,0.31867,0.49169,0.060547,0.6549,0.77539
11.776,0.31378,0.51808,0.085938,0.62941,0.75977
11.784,0.3089,0.54252,0.089844,0.61961,0.76562
11.792,0.30401,0.56207,0.095703,0.61961,0.75391
11.8,0.29717,0.57869,0.099609,0.63529,0.75
11.808,0.2913,0.59042,0.035156,0.68039,0.81055
11.816,0.28446,0.59824,-0.019531,0.70588,0.84961
11.824,0.27859,0.60411,-0.054688,0.72157,0.86914
11.832,0.27273,0.60899,-0.074219,0.73137,0.88867
11.84,0.26686,0.61095,-0.074219,0.73529,0.88867
11.848,0.261,0.61193,-0.074219,0.73529,0.88867
11.856,0.25611,0.6129,-0.070312,0.72549,0.87891
11.864,0.25122,0.61193,-0.048828,0.70588,0.83984
11.872,0.24633,0.60997,0.0058594,0.68627,0.66992
11.88,0.24047,0.60704,0.24609,0.59608,0.43945
11.888,0.2346,0.60313,0.93555,0.23922,0.015625
11.896,0.22874,0.59824,1.3047,-0.027451,-0.089844
11.904,0.22287,0.59433,0.81055,0.12941,0.61523
11.912,0.21701,0.58944,0.13477,0.55098,0.99023
11.92,0.21212,0.58456,-0.064453,0.73137,1
11.928,0.20723,0.58065,-0.14844,0.80588,0.96484
11.936,0.20235,0.57478,-0.19336,0.84118,0.98047
11.944,0.19844,0.56891,-0.20898,0.85686,0.98047
11.952,0.19453,0.56207,-0.21484,0.86078,0.98438
11.96,0.19062,0.55523,-0.21484,0.86667,0.98047
11.968,0.18671,0.54839,-0.21484,0.87059,0.98047
11.976,0.18377,0.53959,-0.20898,0.87647,0.96875
11.984,0.17986,0.53079,-0.20898,0.87647,0.96484
11.992,0.17693,0.52102,-0.20508,0.86667,0.95898
12,0.174,0.51124,-0.19922,0.87059,0.94922
12.008,0.17107,0.50342,-0.18945,0.86667,0.93945
12.016,0.16911,0.49658,-0.18945,0.86667,0.93555
12.024,0.16716,0.4956,-0.18945,0.86078,0.93555
12.032,0.16618,0.49658,-0.17383,0.86078,0.91992
12.04,0.1652,0.4956,-0.16992,0.85686,0.91406
12.048,0.16422,0.49267,-0.16406,0.85686,0.9043
12.056,0.16325,0.48876,-0.16016,0.86078,0.89453
12.064,0.16227,0.48485,-0.1543,0.86078,0.88477
12.072,0.16129,0.48094,-0.14844,0.85686,0.875
12.08,0.16129,0.47605,-0.14453,0.86078,0.86523
12.088,0.16031,0.47214,-0.14453,0.86078,0.84375
12.096,0.16031,0.46921,-0.13867,0.86078,0.83398
12.104,0.16031,0.46628,-0.14453,0.86667,0.81445
12.112,0.16031,0.46432,-0.13867,0.87059,0.79883
12.12,0.16031,0.46139,-0.14453,0.88039,0.79492
12.128,0.16031,0.45748,-0.14453,0.88627,0.79492
12.136,0.15934,0.45357,-0.14453,0.88627,0.79492
12.144,0.15934,0.44966,-0.12891,0.87647,0.79492
12.152,0.15934,0.44575,-0.11914,0.87059,0.80469
12.16,0.15836,0.44282,-0.10352,0.85686,0.81055
12.168,0.15738,0.43891,-0.09375,0.84118,0.82031
12.176,0.15738,0.43402,-0.058594,0.80588,0.82031
12.184,0.1564,0.43011,-0.039062,0.77647,0.82031
12.192,0.15543,0.4262,-0.025391,0.7549,0.82031
12.2,0.15347,0.42326,-0.0039062,0.74118,0.82031
12.208,0.15152,0.42131,0,0.73137,0.82031
12.216,0.14956,0.41935,0.0058594,0.72549,0.82031
12.224,0.14663,0.4174,0.015625,0.72157,0.82422
12.232,0.1437,0.41544,0.0097656,0.72549,0.82031
12.24,0.14076,0.41349,0.0058594,0.72549,0.82422
12.248,0.13881,0.41153,0,0.72549,0.83398
12.256,0.13587,0.4086,0,0.73137,0.83008
12.264,0.13392,0.40665,0,0.73137,0.83008
12.272,0.13196,0.40567,0,0.73529,0.83984
12.28,0.12903,0.40665,0,0.73529,0.83008
12.288,0.12708,0.40762,0,0.74118,0.83008
12.296,0.12317,0.4086,-0.0039062,0.7451,0.82422
12.304,0.12023,0.40762,-0.0039062,0.7451,0.83008
12.312,0.1173,0.40665,-0.0039062,0.74118,0.82031
12.32,0.11437,0.40567,-0.0039062,0.73529,0.82031
12.328,0.11144,0.40371,-0.0039062,0.73137,0.82031
12.336,0.1085,0.40176,-0.0039062,0.73137,0.82031
12.344,0.10655,0.40078,0,0.72549,0.81055
12.352,0.10362,0.3998,0,0.72549,0.81055
12.36,0.10068,0.40078,0.0058594,0.72157,0.81055
12.368,0.098729,0.40371,0,0.72157,0.81055
12.376,0.096774,0.40762,0.0058594,0.72157,0.79883
12.384,0.094819,0.41642,0.035156,0.76078,0.77539
12.392,0.093842,0.43011,0.070312,0.77647,0.75
12.4,0.091887,0.44868,0.060547,0.74118,0.76562
12.408,0.090909,0.46628,0.044922,0.7,0.7793
12.416,0.089932,0.4868,0.054688,0.66078,0.78516
12.424,0.089932,0.51026,0.085938,0.63529,0.75977
12.432,0.088954,0.53666,0.095703,0.61569,0.75391
12.44,0.088954,0.56109,0.099609,0.6098,0.75
12.448,0.088954,0.5826,0.095703,0.62549,0.75
12.456,0.089932,0.59922,0.054688,0.66471,0.78906
12.464,0.090909,0.61095,-0.0097656,0.69608,0.83984
12.472,0.091887,0.61975,-0.054688,0.72157,0.86914
12.48,0.092864,0.62463,-0.064453,0.72157,0.875
12.488,0.093842,0.62659,-0.074219,0.73137,0.88477
12.496,0.095797,0.62561,-0.074219,0.73529,0.87891
12.504,0.096774,0.62268,-0.074219,0.74118,0.88867
12.512,0.098729,0.61975,-0.058594,0.71569,0.85938
12.52,0.10068,0.61584,-0.019531,0.6902,0.72461
12.528,0.10264,0.61095,0.16992,0.69608,0.48438
12.536,0.10362,0.60704,0.73047,0.35882,0.11133
12.544,0.10459,0.60411,1.3086,0.023529,-0.089844
12.552,0.10557,0.60117,0.93945,0.017647,0.49414
12.56,0.10655,0.59922,0.23047,0.4902,0.95508
12.568,0.1085,0.59629,-0.044922,0.7098,1.0098
12.576,0.10948,0.59335,-0.13477,0.8,0.96875
12.584,0.11046,0.58847,-0.18359,0.84118,0.97461
12.592,0.11241,0.5826,-0.20508,0.86078,0.98047
12.6,0.11339,0.57576,-0.21484,0.86667,0.98438
12.608,0.11437,0.56696,-0.21484,0.87647,0.97461
12.616,0.11535,0.55914,-0.21484,0.87059,0.98047
12.624,0.11535,0.54936,-0.21484,0.88039,0.96875
12.632,0.11632,0.53861,-0.20508,0.87647,0.96484
12.64,0.1173,0.52786,-0.19922,0.87647,0.95898
12.648,0.11926,0.51808,-0.19336,0.88039,0.95508
12.656,0.12023,0.50831,-0.18945,0.87647,0.94922
12.664,0.12121,0.49951,-0.18359,0.87059,0.93555
12.672,0.12317,0.49267,-0.18945,0.87059,0.93945
12.68,0.12414,0.48583,-0.17969,0.86667,0.92383
12.688,0.1261,0.47996,-0.17383,0.86667,0.91406
12.696,0.12805,0.47507,-0.16406,0.86667,0.9043
12.704,0.13001,0.47019,-0.16016,0.86078,0.90039
12.712,0.13294,0.46628,-0.14844,0.86667,0.87891
12.72,0.1349,0.46237,-0.14453,0.86667,0.87891
12.728,0.13783,0.45846,-0.14453,0.86078,0.85938
12.736,0.13978,0.45455,-0.14453,0.86078,0.84375
12.744,0.14174,0.45064,-0.13867,0.86078,0.83398
12.752,0.14467,0.4477,-0.13867,0.87059,0.82031
12.76,0.14761,0.44477,-0.13477,0.88039,0.79883
12.768,0.15054,0.44282,-0.14453,0.88627,0.79492
12.776,0.15445,0.44184,-0.13867,0.8902,0.78906
12.784,0.15836,0.43988,-0.13867,0.88627,0.78906
12.792,0.16129,0.43793,-0.125,0.8902,0.78516
12.8,0.1652,0.435,-0.11914,0.88039,0.80469
12.808,0.16911,0.43402,-0.099609,0.86078,0.81055
12.816,0.17302,0.43206,-0.083984,0.8451,0.82031
12.824,0.17595,0.43011,-0.064453,0.82157,0.82031
12.832,0.17986,0.42717,-0.039062,0.7902,0.82031
12.84,0.1828,0.42522,-0.013672,0.76667,0.81445
12.848,0.18671,0.42229,0,0.75098,0.81445
12.856,0.18964,0.42033,0,0.7451,0.82422
12.864,0.19257,0.41838,0,0.7451,0.82422
12.872,0.19648,0.41544,0.0097656,0.74118,0.82031
12.88,0.19941,0.41349,0.0097656,0.73529,0.82031
12.888,0.20235,0.41153,0,0.74118,0.83008
12.896,0.20528,0.40958,0,0.74118,0.82422
12.904,0.20821,0.40665,-0.0097656,0.7451,0.83984
12.912,0.21212,0.40469,-0.0039062,0.7451,0.83398
12.92,0.21505,0.40371,-0.0097656,0.75098,0.83398
12.928,0.21896,0.40176,-0.0039062,0.75098,0.83398
12.936,0.22287,0.40078,-0.0097656,0.75098,0.83398
12.944,0.22581,0.40078,-0.013672,0.7549,0.83008
12.952,0.22972,0.40078,-0.019531,0.7549,0.83984
12.96,0.23265,0.40078,-0.013672,0.75098,0.83008
12.968,0.23656,0.39883,-0.019531,0.7549,0.83398
12.976,0.23949,0.39785,-0.013672,0.7451,0.83008
12.984,0.2434,0.39589,-0.0097656,0.7451,0.83008
12.992,0.24633,0.39296,-0.0039062,0.74118,0.82031
13,0.25024,0.39101,0,0.73529,0.82031
13.008,0.25513,0.39003,0,0.73529,0.81445
13.016,0.25904,0.38905,0.0058594,0.73137,0.82031
13.024,0.26393,0.39003,0,0.7451,0.81055
13.032,0.26882,0.39296,0.035156,0.77647,0.7793
13.04,0.27468,0.40176,0.064453,0.78627,0.75391
13.048,0.27957,0.41544,0.054688,0.75098,0.76562
13.056,0.28446,0.435,0.035156,0.71569,0.78906
13.064,0.29032,0.45748,0.054688,0.67647,0.7793
13.072,0.29521,0.48192,0.085938,0.6549,0.75977
13.08,0.30108,0.50635,0.099609,0.63529,0.75
13.088,0.30792,0.52981,0.099609,0.62941,0.75391
13.096,0.31476,0.55132,0.10547,0.64118,0.75
13.104,0.3216,0.56794,0.044922,0.68039,0.79492
13.112,0.32747,0.57967,-0.0097656,0.7098,0.83984
13.12,0.33431,0.58651,-0.058594,0.73529,0.87891
13.128,0.34018,0.5914,-0.074219,0.7451,0.88867
13.136,0.34604,0.59335,-0.074219,0.73529,0.88867
13.144,0.35288,0.59238,-0.074219,0.7451,0.88867
13.152,0.35875,0.58944,-0.080078,0.7451,0.88867
13.16,0.36559,0.58651,-0.058594,0.72157,0.85938
13.168,0.37146,0.5826,-0.035156,0.6902,0.71484
13.176,0.37928,0.57967,0.15039,0.7,0.47461
13.184,0.38612,0.57771,0.76562,0.37059,0.099609
13.192,0.39394,0.57478,1.334,0.094118,-0.064453
13.2,0.40176,0.57283,0.91992,0.16471,0.52539
13.208,0.4086,0.56989,0.21094,0.51961,0.95898
13.216,0.41544,0.56598,-0.054688,0.71569,1.0039
13.224,0.42229,0.56012,-0.13867,0.80588,0.96484
13.232,0.42913,0.55425,-0.17969,0.84118,0.95898
13.24,0.43597,0.54839,-0.20898,0.86078,0.98047
13.248,0.44379,0.54154,-0.21484,0.86667,0.98047
13.256,0.45259,0.5347,-0.21484,0.87059,0.97461
13.264,0.46139,0.52786,-0.20898,0.86667,0.96875
13.272,0.46921,0.52199,-0.20508,0.87059,0.95898
13.28,0.47703,0.51417,-0.19336,0.86078,0.95898
13.288,0.48583,0.50635,-0.18945,0.86078,0.94531
13.296,0.49365,0.49951,-0.17969,0.86078,0.93555
13.304,0.50244,0.49365,-0.17969,0.85686,0.93555
13.312,0.51124,0.48778,-0.17383,0.85686,0.91992
13.32,0.52102,0.48289,-0.16992,0.86078,0.91406
13.328,0.52981,0.47801,-0.16406,0.86078,0.91406
13.336,0.54057,0.47312,-0.16406,0.85686,0.91016
13.344,0.55132,0.46823,-0.16016,0.85686,0.89453
13.352,0.56207,0.46334,-0.14844,0.85686,0.88867
13.36,0.5738,0.45846,-0.14453,0.84118,0.875
13.368,0.58358,0.45455,-0.13477,0.8451,0.86523
13.376,0.59433,0.44966,-0.125,0.8451,0.84375
13.384,0.60411,0.44575,-0.11914,0.8451,0.83984
13.392,0.61388,0.44282,-0.11914,0.8451,0.82031
13.4,0.62463,0.43988,-0.11523,0.85098,0.81445
13.408,0.63441,0.43695,-0.11914,0.85098,0.79492
13.416,0.64614,0.435,-0.11914,0.86078,0.79492
13.424,0.65689,0.43206,-0.11523,0.85686,0.7793
13.432,0.66667,0.42913,-0.10352,0.85686,0.77539
13.44,0.67644,0.42717,-0.099609,0.8451,0.78906
13.448,0.68426,0.42424,-0.089844,0.84118,0.79492
13.456,0.69306,0.42229,-0.074219,0.82549,0.79883
13.464,0.70186,0.42033,-0.064453,0.81176,0.81055
13.472,0.71065,0.41838,-0.048828,0.7902,0.81445
13.48,0.72043,0.41544,-0.025391,0.77059,0.81055
13.488,0.73021,0.41349,-0.0039062,0.76078,0.81055
13.496,0.73803,0.41056,0,0.7549,0.82031
13.504,0.74682,0.40665,-0.0039062,0.75098,0.83008
13.512,0.75562,0.40371,0.0058594,0.75098,0.82422
13.52,0.76344,0.40078,0,0.75098,0.83984
13.528,0.77028,0.39785,0.0058594,0.7451,0.83008
13.536,0.7781,0.39492,0,0.75098,0.83398
13.544,0.78397,0.39198,0,0.7549,0.83008
13.552,0.79081,0.38905,-0.013672,0.76078,0.84375
13.56,0.79668,0.3871,-0.0039062,0.76078,0.83398
13.568,0.80352,0.38514,-0.0097656,0.76667,0.83984
13.576,0.80938,0.38416,-0.013672,0.76667,0.83398
13.584,0.81623,0.38221,-0.019531,0.76667,0.83984
13.592,0.82111,0.38221,-0.013672,0.76667,0.83008
13.6,0.82698,0.38123,-0.013672,0.76078,0.82422
13.608,0.83284,0.38025,-0.0097656,0.7549,0.82031
13.616,0.83871,0.38025,-0.013672,0.75098,0.82031
13.624,0.84457,0.38025,-0.0039062,0.7451,0.82031
13.632,0.85142,0.37928,0,0.74118,0.81445
13.64,0.85924,0.37732,-0.0039062,0.73529,0.82031
13.648,0.86706,0.37537,0.0058594,0.73137,0.81055
13.656,0.87488,0.37439,0,0.72549,0.81055
13.664,0.88368,0.37341,0.0058594,0.72549,0.81055
13.672,0.89247,0.37341,0.015625,0.74118,0.79883
13.68,0.90127,0.37537,0.050781,0.77059,0.76562
13.688,0.91007,0.38221,0.064453,0.77647,0.75977
13.696,0.91789,0.39296,0.050781,0.72549,0.76953
13.704,0.92571,0.40567,0.044922,0.6902,0.79492
13.712,0.93451,0.42131,0.064453,0.6549,0.76953
13.72,0.94233,0.44282,0.089844,0.64118,0.76562
13.728,0.95112,0.46628,0.099609,0.62549,0.75977
13.736,0.95992,0.49071,0.095703,0.61961,0.76562
13.744,0.96872,0.51515,0.11133,0.63529,0.75
13.752,0.97654,0.53763,0.041016,0.67647,0.80469
13.76,0.98436,0.55621,-0.019531,0.7,0.84961
13.768,0.9912,0.56989,-0.058594,0.72157,0.87891
13.776,0.99804,0.57869,-0.070312,0.72549,0.88867
13.784,0.99902,0.5826,-0.074219,0.72157,0.88867
13.792,1,0.5826,-0.070312,0.72157,0.88867
13.8,1,0.58065,-0.074219,0.72157,0.88867
13.808,1,0.57674,-0.054688,0.68627,0.82422
13.816,1,0.57283,-0.0039062,0.67059,0.65039
13.824,1,0.56891,0.29492,0.56078,0.41602
13.832,1,0.565,1.0547,0.21961,0.019531
13.84,1,0.56207,1.334,0.023529,-0.019531
13.848,1,0.56012,0.74023,0.20392,0.67578
13.856,1,0.55621,0.089844,0.58039,0.99414
13.864,1,0.55132,-0.083984,0.72549,0.98047
13.872,1,0.54545,-0.16016,0.79608,0.96875
13.88,1,0.53861,-0.19922,0.82157,0.98047
13.888,1,0.53177,-0.21484,0.84118,0.98438
13.896,1,0.52297,-0.21875,0.8451,0.98438
13.904,1,0.51711,-0.22461,0.85098,0.98047
13.912,1,0.51124,-0.21875,0.8451,0.97461
13.92,1,0.50342,-0.21875,0.85098,0.97461
13.928,1,0.49658,-0.21484,0.8451,0.95898
13.936,1,0.48876,-0.20898,0.8451,0.95508
13.944,1,0.48192,-0.19336,0.84118,0.93945
13.952,1,0.4741,-0.18945,0.84118,0.93555
13.96,1,0.46921,-0.18945,0.84118,0.92969
13.968,1,0.46334,-0.18359,0.84118,0.91992
13.976,1,0.45943,-0.17383,0.84118,0.91406
13.984,1,0.45455,-0.16992,0.84118,0.91016
13.992,1,0.44966,-0.16406,0.83137,0.89453
14,1,0.44575,-0.16016,0.83137,0.88867
14.008,1,0.44379,-0.14844,0.83137,0.87891
14.016,1,0.44184,-0.14453,0.82549,0.86523
14.024,1,0.43988,-0.13867,0.83137,0.84961
14.032,1,0.43793,-0.13477,0.82549,0.83984
14.04,1,0.435,-0.12891,0.83137,0.82422
14.048,1,0.43304,-0.125,0.83529,0.82031
14.056,1,0.43011,-0.13477,0.84118,0.79883
14.064,1,0.4262,-0.12891,0.84118,0.79492
14.072,1,0.42229,-0.13867,0.8451,0.79883
14.08,1,0.41838,-0.13477,0.8451,0.79883
14.088,1,0.41447,-0.11914,0.84118,0.80469
14.096,1,0.41153,-0.10938,0.83529,0.81055
14.104,1,0.40958,-0.099609,0.82157,0.82031
14.112,1,0.40762,-0.080078,0.8,0.82031
14.12,0.99511,0.40567,-0.058594,0.77647,0.82422
14.128,0.98925,0.40371,-0.029297,0.7549,0.82031
14.136,0.97947,0.40176,-0.025391,0.7451,0.82422
14.144,0.96872,0.3998,-0.0097656,0.73137,0.82031
14.152,0.95797,0.39687,-0.0039062,0.73137,0.83008
14.16,0.94721,0.39492,0,0.72157,0.82422
14.168,0.93744,0.39394,0,0.73137,0.83398
14.176,0.92766,0.39296,0.0058594,0.72549,0.83008
14.184,0.91789,0.39296,0,0.73137,0.83398
14.192,0.90909,0.39198,0,0.73137,0.83984
14.2,0.90029,0.39198,-0.0039062,0.73137,0.83398
14.208,0.89052,0.39198,-0.0039062,0.74118,0.83398
14.216,0.88172,0.39198,-0.0039062,0.74118,0.83398
14.224,0.87292,0.39198,-0.0039062,0.74118,0.82422
14.232,0.8651,0.39003,-0.0097656,0.74118,0.82422
14.24,0.85728,0.38807,-0.0039062,0.7451,0.82031
14.248,0.84946,0.38612,-0.0097656,0.74118,0.82031
14.256,0.84164,0.38514,-0.0097656,0.74118,0.82031
14.264,0.83382,0.38416,-0.0039062,0.73529,0.82031
14.272,0.826,0.38416,-0.0097656,0.73137,0.81445
14.28,0.8172,0.38319,-0.0039062,0.73137,0.81445
14.288,0.80938,0.38319,-0.0039062,0.72549,0.82031
14.296,0.80156,0.38319,0,0.72549,0.81445
14.304,0.79374,0.38416,-0.0039062,0.72549,0.82031
14.312,0.78495,0.38514,0,0.72549,0.81445
14.32,0.77713,0.38807,0.015625,0.76078,0.78906
14.328,0.77028,0.39394,0.054688,0.78627,0.75977
14.336,0.76344,0.40371,0.044922,0.76078,0.76953
14.344,0.7566,0.41838,0.041016,0.71569,0.7793
14.352,0.75073,0.43695,0.041016,0.68039,0.78906
14.36,0.74487,0.45943,0.070312,0.65098,0.76562
14.368,0.73803,0.48387,0.085938,0.62549,0.75977
14.376,0.73216,0.50831,0.089844,0.61961,0.75977
14.384,0.7263,0.53177,0.095703,0.62549,0.75391
14.392,0.72043,0.55327,0.060547,0.66471,0.78516
14.4,0.71554,0.56989,0,0.69608,0.83398
14.408,0.71065,0.58162,-0.044922,0.72157,0.86523
14.416,0.70479,0.58944,-0.070312,0.73137,0.88477
14.424,0.6999,0.59433,-0.074219,0.72549,0.88867
14.432,0.69404,0.59629,-0.080078,0.73137,0.88477
14.44,0.68719,0.59629,-0.080078,0.73529,0.88867
14.448,0.68133,0.59433,-0.070312,0.72157,0.86914
14.456,0.67449,0.5914,-0.035156,0.6902,0.74414
14.464,0.66764,0.58749,0.12109,0.69608,0.53906
14.472,0.6608,0.58358,0.62891,0.41569,0.21484
14.48,0.65396,0.57967,1.3086,0.0039216,-0.054688
14.488,0.64712,0.57674,1.0742,-0.05098,0.39453
14.496,0.64027,0.57478,0.3457,0.4,0.88867
14.504,0.63343,0.57185,-0.013672,0.67647,0.99414
14.512,0.62757,0.56794,-0.11914,0.78039,0.95898
14.52,0.62072,0.56403,-0.17383,0.83137,0.96484
14.528,0.61388,0.55816,-0.19922,0.8451,0.96875
14.536,0.60606,0.5523,-0.21484,0.86078,0.98047
14.544,0.59922,0.54545,-0.21875,0.86667,0.98047
14.552,0.59335,0.53861,-0.22461,0.87647,0.98047
14.56,0.58749,0.53079,-0.21484,0.87059,0.96484
14.568,0.58162,0.52199,-0.21484,0.87647,0.96875
14.576,0.57674,0.51515,-0.21484,0.87059,0.95898
14.584,0.57087,0.50733,-0.20898,0.87647,0.95508
14.592,0.56598,0.50049,-0.21484,0.86667,0.94531
14.6,0.56012,0.49462,-0.19922,0.87059,0.93945
14.608,0.55425,0.48974,-0.18945,0.86667,0.93555
14.616,0.54936,0.48583,-0.18945,0.86667,0.92969
14.624,0.5435,0.48192,-0.17969,0.86078,0.91406
14.632,0.53861,0.47801,-0.17383,0.86078,0.91016
14.64,0.53275,0.4741,-0.16406,0.86078,0.89453
14.648,0.52786,0.47116,-0.16406,0.86078,0.88867
14.656,0.52297,0.46921,-0.16016,0.86078,0.87891
14.664,0.51808,0.46628,-0.1543,0.86078,0.86523
14.672,0.51417,0.46237,-0.1543,0.86667,0.84961
14.68,0.50929,0.45846,-0.14844,0.86667,0.84375
14.688,0.5044,0.45455,-0.1543,0.87647,0.83008
14.696,0.49951,0.44966,-0.14844,0.88039,0.81055
14.704,0.4956,0.44673,-0.14844,0.88627,0.79492
14.712,0.49071,0.44477,-0.14844,0.88627,0.78906
14.72,0.4868,0.44282,-0.1543,0.8902,0.79492
14.728,0.48192,0.44086,-0.14453,0.88627,0.79492
14.736,0.47801,0.43793,-0.13477,0.88039,0.80469
14.744,0.47214,0.43597,-0.11914,0.86667,0.81055
14.752,0.46725,0.43402,-0.099609,0.8451,0.82031
14.76,0.46041,0.43206,-0.080078,0.82157,0.82031
14.768,0.45357,0.43011,-0.054688,0.7902,0.82422
14.776,0.44673,0.42815,-0.025391,0.76667,0.82031
14.784,0.43891,0.42717,-0.0097656,0.7451,0.83008
14.792,0.43109,0.42522,0,0.73529,0.82422
14.8,0.42326,0.42326,-0.0039062,0.73137,0.83008
14.808,0.41544,0.42131,0,0.72549,0.83398
14.816,0.4086,0.42033,0,0.72157,0.83398
14.824,0.40078,0.41838,0.0058594,0.72157,0.83398
14.832,0.39394,0.4174,0,0.72157,0.83398
14.84,0.38514,0.41642,0.0058594,0.72157,0.83398
14.848,0.37732,0.41447,0,0.72549,0.83984
14.856,0.36852,0.41349,0,0.73529,0.83984
14.864,0.35973,0.41251,0,0.74118,0.83398
14.872,0.35191,0.41251,-0.0097656,0.7451,0.84375
14.88,0.34409,0.41153,-0.013672,0.7451,0.84375
14.888,0.33724,0.41153,-0.013672,0.7451,0.83984
14.896,0.3304,0.41251,-0.013672,0.74118,0.83398
14.904,0.32356,0.41251,-0.013672,0.74118,0.83398
14.912,0.31574,0.41251,-0.0097656,0.73529,0.83008
14.92,0.30792,0.41153,-0.0097656,0.73529,0.82422
14.928,0.3001,0.40958,0,0.72549,0.82031
14.936,0.29228,0.40762,0,0.72157,0.82031
14.944,0.28543,0.40665,0,0.72157,0.82031
14.952,0.27761,0.40665,0,0.72157,0.82031
14.96,0.27077,0.4086,0.025391,0.74118,0.78906
14.968,0.26393,0.41642,0.060547,0.77059,0.75977
14.976,0.25806,0.42815,0.064453,0.76078,0.75391
14.984,0.2522,0.44575,0.050781,0.71569,0.7793
14.992,0.24731,0.46823,0.041016,0.68039,0.78906
15,0.24145,0.49462,0.070312,0.6451,0.76953
15.008,0.23656,0.51711,0.089844,0.62549,0.75391
15.016,0.23069,0.53959,0.095703,0.6098,0.75977
15.024,0.22483,0.56305,0.099609,0.61569,0.75
15.032,0.22092,0.58358,0.076172,0.64118,0.76953
15.04,0.21603,0.60215,0.0097656,0.6902,0.82422
15.048,0.21212,0.61584,-0.039062,0.71569,0.86523
15.056,0.20821,0.62561,-0.064453,0.72549,0.88477
15.064,0.2043,0.63245,-0.074219,0.73137,0.88867
15.072,0.20039,0.63636,-0.074219,0.73137,0.88867
15.08,0.19648,0.63832,-0.070312,0.72549,0.88477
15.088,0.19257,0.6393,-0.064453,0.73137,0.87891
15.096,0.18866,0.63832,-0.035156,0.6902,0.79492
15.104,0.18377,0.63636,0.060547,0.69608,0.59961
15.112,0.17986,0.63441,0.45508,0.4902,0.31055
15.12,0.17498,0.63245,1.1699,0.10392,-0.089844
15.128,0.17204,0.6305,1.3242,-0.015686,0.23438
15.136,0.16813,0.62854,0.50977,0.29412,0.80469
15.144,0.1652,0.62757,0.035156,0.62941,1.0039
15.152,0.16129,0.62561,-0.10352,0.76667,0.98047
15.16,0.15836,0.62268,-0.16406,0.82157,0.96484
15.168,0.15445,0.61975,-0.19922,0.8451,0.98438
15.176,0.15054,0.61486,-0.20898,0.86078,0.98438
15.184,0.14663,0.60899,-0.21484,0.86667,0.98438
15.192,0.1437,0.60215,-0.21484,0.87059,0.97461
15.2,0.14076,0.59433,-0.20898,0.87059,0.97461
15.208,0.13881,0.58651,-0.20508,0.87059,0.95898
15.216,0.13587,0.57771,-0.19922,0.86667,0.95898
15.224,0.13392,0.56891,-0.19336,0.86667,0.95508
15.232,0.13099,0.55816,-0.18945,0.86078,0.94922
15.24,0.12903,0.54839,-0.18359,0.86667,0.93555
15.248,0.1261,0.53763,-0.17383,0.86078,0.93555
15.256,0.12512,0.52688,-0.17383,0.86667,0.91992
15.264,0.12317,0.51613,-0.16992,0.86078,0.91406
15.272,0.12317,0.50831,-0.16992,0.86078,0.91016
15.28,0.12219,0.50147,-0.16016,0.86078,0.90039
15.288,0.12317,0.49658,-0.16406,0.86078,0.88867
15.296,0.12317,0.49267,-0.14844,0.86078,0.875
15.304,0.12512,0.49071,-0.14844,0.86078,0.86914
15.312,0.1261,0.48876,-0.14453,0.86078,0.85547
15.32,0.12805,0.48583,-0.14453,0.86667,0.84375
15.328,0.13099,0.48387,-0.14453,0.87059,0.83008
15.336,0.13294,0.48094,-0.14453,0.87647,0.81445
15.344,0.13587,0.47703,-0.14453,0.88039,0.79883
15.352,0.13783,0.47312,-0.14453,0.88627,0.79492
15.36,0.13978,0.46921,-0.13867,0.8902,0.78906
15.368,0.14174,0.4653,-0.13867,0.88627,0.79492
15.376,0.14467,0.46041,-0.125,0.88627,0.79492
15.384,0.14565,0.45552,-0.11914,0.87059,0.81445
15.392,0.14761,0.45064,-0.099609,0.85098,0.82031
15.4,0.14761,0.44673,-0.083984,0.83137,0.83008
15.408,0.14858,0.44379,-0.054688,0.79608,0.82422
15.416,0.14761,0.44086,-0.029297,0.77059,0.82031
15.424,0.14761,0.43695,-0.013672,0.75098,0.82422
15.432,0.14565,0.43304,0,0.74118,0.82422
15.44,0.14467,0.43011,0,0.73529,0.82422
15.448,0.14272,0.42815,0.0058594,0.73137,0.83008
15.456,0.14076,0.42522,0.0058594,0.72549,0.83398
15.464,0.13783,0.42424,0.0097656,0.73137,0.83008
15.472,0.13587,0.42424,0,0.73137,0.83398
15.48,0.13196,0.42424,0,0.73137,0.83398
15.488,0.12903,0.42424,0,0.73529,0.83984
15.496,0.12512,0.42229,0,0.74118,0.83398
15.504,0.12121,0.42131,-0.0039062,0.7451,0.83984
15.512,0.1173,0.42131,-0.0097656,0.7451,0.83398
15.52,0.11437,0.42033,-0.013672,0.7451,0.84375
15.528,0.11144,0.42033,-0.0097656,0.7451,0.83008
15.536,0.10948,0.42033,-0.013672,0.7451,0.83398
15.544,0.10655,0.42131,-0.013672,0.74118,0.83008
15.552,0.10362,0.42033,-0.013672,0.73529,0.83008
15.56,0.10068,0.41935,-0.0039062,0.73137,0.82031
15.568,0.096774,0.41838,-0.0039062,0.73137,0.82422
15.576,0.094819,0.41642,0,0.72549,0.82031
15.584,0.091887,0.41544,-0.0039062,0.73137,0.82031
15.592,0.089932,0.41447,0,0.72157,0.82031
15.6,0.088954,0.41642,0,0.7451,0.80469
15.608,0.086999,0.42033,0.044922,0.77059,0.76562
15.616,0.086022,0.42815,0.064453,0.78039,0.75
15.624,0.085044,0.44086,0.044922,0.74118,0.76953
15.632,0.084066,0.45846,0.041016,0.7,0.79492
15.64,0.085044,0.48094,0.064453,0.6549,0.76953
15.648,0.085044,0.50538,0.089844,0.63529,0.76562
15.656,0.086999,0.53079,0.089844,0.61961,0.75977
15.664,0.087977,0.55523,0.089844,0.62549,0.75391
15.672,0.089932,0.57674,0.095703,0.6451,0.75
15.68,0.091887,0.59531,0.03125,0.6902,0.80469
15.688,0.093842,0.60899,-0.025391,0.71569,0.84961
15.696,0.095797,0.61877,-0.064453,0.73137,0.875
15.704,0.097752,0.62463,-0.074219,0.73529,0.88867
15.712,0.099707,0.62659,-0.074219,0.73529,0.88867
15.72,0.10166,0.62854,-0.074219,0.73137,0.88867
15.728,0.10362,0.62854,-0.070312,0.72549,0.88477
15.736,0.10557,0.62757,-0.054688,0.70588,0.84375
15.744,0.10753,0.62659,0.0058594,0.68627,0.67578
15.752,0.10948,0.62366,0.23047,0.6,0.43945
15.76,0.11144,0.61975,0.91992,0.25882,0.0058594
15.768,0.11339,0.61584,1.2988,0.0078431,-0.099609
15.776,0.11437,0.61193,0.79883,0.14314,0.60938
15.784,0.11535,0.60802,0.12109,0.56078,1
15.792,0.1173,0.60313,-0.064453,0.73137,1.0098
15.8,0.1173,0.59922,-0.14844,0.80588,0.96875
15.808,0.11828,0.59433,-0.18945,0.84118,0.97461
15.816,0.11926,0.58944,-0.21484,0.85686,0.98438
15.824,0.11926,0.58456,-0.21484,0.86078,0.98438
15.832,0.11926,0.57771,-0.21484,0.86667,0.98047
15.84,0.12023,0.57087,-0.21484,0.87059,0.97461
15.848,0.12023,0.56207,-0.20898,0.86667,0.96875
15.856,0.12023,0.55132,-0.20508,0.87059,0.96484
15.864,0.12121,0.54154,-0.19922,0.86667,0.95898
15.872,0.12121,0.53079,-0.19336,0.87059,0.94922
15.88,0.12219,0.52102,-0.18945,0.86667,0.94531
15.888,0.12317,0.51124,-0.18945,0.86078,0.93555
15.896,0.12414,0.50342,-0.17969,0.86078,0.93555
15.904,0.1261,0.49756,-0.17383,0.86078,0.91992
15.912,0.12708,0.49365,-0.16992,0.86078,0.91406
15.92,0.12805,0.48876,-0.16406,0.86078,0.9043
15.928,0.13001,0.48485,-0.16016,0.85686,0.88867
15.936,0.13099,0.47996,-0.1543,0.86078,0.88477
15.944,0.13294,0.47605,-0.14453,0.86078,0.86914
15.952,0.1349,0.47116,-0.14453,0.86078,0.86523
15.96,0.13685,0.46725,-0.13477,0.86078,0.83984
15.968,0.13881,0.46334,-0.13867,0.86078,0.83008
15.976,0.14076,0.45943,-0.13477,0.87059,0.81445
15.984,0.1437,0.45552,-0.13477,0.87059,0.80469
15.992,0.14565,0.45259,-0.12891,0.87647,0.78906
16,0.14761,0.44966,-0.12891,0.88039,0.78906
16.008,0.14956,0.44673,-0.11914,0.87647,0.7793
16.016,0.15249,0.44477,-0.11914,0.87647,0.79492
16.024,0.15445,0.44282,-0.10352,0.86078,0.79492
16.032,0.1564,0.44086,-0.09375,0.8451,0.80469
16.04,0.15738,0.43793,-0.070312,0.82157,0.81055
16.048,0.15934,0.43597,-0.044922,0.7902,0.81445
16.056,0.16031,0.43402,-0.025391,0.77059,0.81445
16.064,0.16129,0.43206,0,0.7451,0.81055
16.072,0.16227,0.43011,0,0.74118,0.82031
16.08,0.16325,0.42717,0,0.73137,0.82031
16.088,0.16422,0.42522,0,0.72549,0.82422
16.096,0.16422,0.42326,0,0.72549,0.82422
16.104,0.1652,0.42131,0,0.72549,0.83008
16.112,0.16618,0.41935,0,0.73137,0.82422
16.12,0.16716,0.41447,0,0.73529,0.83398
16.128,0.16813,0.4086,0,0.74118,0.82422
16.136,0.16911,0.40469,0,0.7451,0.83398
16.144,0.17009,0.40274,-0.0039062,0.7451,0.83398
16.152,0.17302,0.40176,-0.0039062,0.7451,0.83398
16.16,0.17498,0.40078,-0.0097656,0.7451,0.83398
16.168,0.17791,0.40078,-0.013672,0.75098,0.83984
16.176,0.18084,0.40078,-0.019531,0.75098,0.83008
16.184,0.18475,0.40078,-0.013672,0.75098,0.83398
16.192,0.18866,0.3998,-0.013672,0.7451,0.82422
16.2,0.19453,0.39883,-0.0097656,0.7451,0.82422
16.208,0.19941,0.39785,-0.0039062,0.73529,0.82031
16.216,0.20528,0.39589,-0.0039062,0.73529,0.82031
16.224,0.21212,0.39394,0,0.72549,0.81445
16.232,0.21994,0.39296,0,0.72549,0.82031
16.24,0.22776,0.39296,0.015625,0.73529,0.80469
16.248,0.2346,0.39492,0.041016,0.76667,0.76953
16.256,0.24145,0.40078,0.070312,0.78039,0.75
16.264,0.24829,0.41153,0.054688,0.74118,0.76562
16.272,0.25513,0.42717,0.035156,0.70588,0.79492
16.28,0.26295,0.44673,0.060547,0.66471,0.7793
16.288,0.26979,0.47019,0.085938,0.6451,0.75977
16.296,0.27761,0.49462,0.095703,0.62549,0.75391
16.304,0.28543,0.51515,0.099609,0.61961,0.75391
16.312,0.29228,0.53275,0.095703,0.63529,0.75
16.32,0.29912,0.55132,0.050781,0.68039,0.78906
16.328,0.30401,0.56598,-0.0097656,0.70588,0.84375
16.336,0.30987,0.57771,-0.058594,0.73137,0.875
16.344,0.31574,0.58651,-0.070312,0.73137,0.88867
16.352,0.3216,0.59238,-0.074219,0.74118,0.88867
16.36,0.32845,0.59629,-0.074219,0.74118,0.88867
16.368,0.33431,0.59629,-0.074219,0.7451,0.88867
16.376,0.34018,0.59531,-0.058594,0.72549,0.86914
16.384,0.34604,0.59238,-0.035156,0.68627,0.72461
16.392,0.35093,0.58847,0.13086,0.69608,0.48438
16.4,0.35679,0.58456,0.70508,0.39412,0.125
16.408,0.36266,0.58065,1.3242,0.094118,-0.054688
16.416,0.36755,0.57576,0.95898,0.14902,0.48438
16.424,0.37243,0.57185,0.25,0.48431,0.94922
16.432,0.3783,0.56794,-0.048828,0.7,1.0098
16.44,0.38319,0.565,-0.13477,0.78627,0.96875
16.448,0.38905,0.56109,-0.18945,0.83137,0.97461
16.456,0.39492,0.55523,-0.20898,0.8451,0.98438
16.464,0.40078,0.54936,-0.21484,0.86078,0.98047
16.472,0.40665,0.5435,-0.21875,0.86078,0.98438
16.48,0.41251,0.53763,-0.21484,0.86078,0.98047
16.488,0.4174,0.53079,-0.20898,0.86667,0.96875
16.496,0.42326,0.52297,-0.20508,0.86078,0.95898
16.504,0.43011,0.51515,-0.20508,0.86667,0.95898
16.512,0.43695,0.50831,-0.18945,0.86078,0.94531
16.52,0.44477,0.50049,-0.18945,0.86078,0.93555
16.528,0.45357,0.49169,-0.18359,0.85686,0.93555
16.536,0.46237,0.48387,-0.18359,0.86078,0.92969
16.544,0.47116,0.47801,-0.16992,0.85098,0.91406
16.552,0.48094,0.47214,-0.17383,0.85098,0.91406
16.56,0.48974,0.46725,-0.16016,0.8451,0.90039
16.568,0.49853,0.46334,-0.1543,0.85098,0.88867
16.576,0.50831,0.45846,-0.14844,0.84118,0.88477
16.584,0.51613,0.45455,-0.14453,0.8451,0.875
16.592,0.52493,0.45064,-0.13867,0.84118,0.85547
16.6,0.5347,0.44673,-0.13867,0.8451,0.84961
16.608,0.54448,0.44282,-0.13477,0.85098,0.83398
16.616,0.55523,0.43891,-0.12891,0.85686,0.82422
16.624,0.56598,0.43597,-0.13867,0.85686,0.81055
16.632,0.57478,0.43304,-0.12891,0.86078,0.79883
16.64,0.58456,0.43109,-0.13477,0.86078,0.79492
16.648,0.59238,0.42815,-0.125,0.85098,0.79883
16.656,0.6002,0.4262,-0.11523,0.85098,0.79492
16.664,0.60899,0.42424,-0.09375,0.84118,0.79883
16.672,0.61681,0.42131,-0.09375,0.83529,0.81445
16.68,0.62561,0.41838,-0.074219,0.81569,0.82031
16.688,0.63343,0.41447,-0.054688,0.8,0.82422
16.696,0.64125,0.41056,-0.035156,0.77647,0.82031
16.704,0.65005,0.40762,-0.025391,0.7549,0.82031
16.712,0.65689,0.40469,-0.0097656,0.7451,0.82031
16.72,0.66471,0.40274,0,0.74118,0.82422
16.728,0.67155,0.40078,0.0058594,0.73529,0.82422
16.736,0.6784,0.39785,0,0.73529,0.83008
16.744,0.68524,0.39492,-0.0039062,0.73529,0.83984
16.752,0.6911,0.39296,-0.0039062,0.74118,0.83984
16.76,0.69795,0.39101,-0.0097656,0.7451,0.84375
16.768,0.70479,0.38807,-0.013672,0.7451,0.83984
16.776,0.71163,0.38612,-0.0097656,0.7451,0.84375
16.784,0.71848,0.38416,-0.013672,0.75098,0.83398
16.792,0.72532,0.38319,-0.019531,0.75098,0.83984
16.8,0.73216,0.38319,-0.0097656,0.75098,0.83008
16.808,0.73803,0.38416,-0.0097656,0.75098,0.82422
16.816,0.74389,0.38319,-0.019531,0.7549,0.83008
16.824,0.75073,0.38319,-0.019531,0.76078,0.82422
16.832,0.7566,0.38221,-0.0097656,0.75098,0.82031
16.84,0.76442,0.38123,-0.0039062,0.75098,0.82031
16.848,0.77126,0.37928,-0.0097656,0.7451,0.82031
16.856,0.77908,0.37732,-0.0039062,0.7451,0.82031
16.864,0.78788,0.37537,-0.0039062,0.74118,0.82031
16.872,0.7957,0.37341,-0.0097656,0.74118,0.82031
16.88,0.8045,0.37146,-0.0039062,0.7451,0.82031
16.888,0.81232,0.37048,0.025391,0.78039,0.78516
16.896,0.82014,0.37243,0.050781,0.7902,0.76562
16.904,0.82698,0.37634,0.044922,0.75098,0.76953
16.912,0.83382,0.38319,0.035156,0.71569,0.78906
16.92,0.84066,0.39589,0.050781,0.67647,0.79492
16.928,0.84848,0.41349,0.080078,0.6549,0.76953
16.936,0.85728,0.43402,0.095703,0.64118,0.75391
16.944,0.8651,0.45748,0.099609,0.62941,0.75
16.952,0.87292,0.48289,0.095703,0.63529,0.75
16.96,0.88172,0.50635,0.050781,0.68039,0.78906
16.968,0.88856,0.52786,-0.019531,0.70588,0.84961
16.976,0.89638,0.54448,-0.058594,0.72157,0.875
16.984,0.90518,0.55718,-0.074219,0.73137,0.88867
16.992,0.913,0.56403,-0.074219,0.73529,0.88867
17,0.92278,0.56794,-0.080078,0.73529,0.89453
17.008,0.93157,0.56794,-0.083984,0.73137,0.88477
17.016,0.94135,0.56696,-0.064453,0.7098,0.86523
17.024,0.95112,0.565,-0.035156,0.67647,0.71484
17.032,0.96188,0.56207,0.12109,0.69608,0.51562
17.04,0.97263,0.55816,0.7207,0.39412,0.17578
17.048,0.9824,0.55327,1.3496,0.068627,0
17.056,0.9912,0.54936,1.0039,0.04902,0.4707
17.064,0.99609,0.54448,0.25977,0.47059,0.92383
17.072,1,0.54057,-0.039062,0.68627,0.99023
17.08,1,0.53568,-0.13477,0.77647,0.96484
17.088,1,0.53079,-0.18945,0.81569,0.96875
17.096,1,0.5259,-0.20508,0.83137,0.97461
17.104,1,0.52102,-0.21484,0.84118,0.98047
17.112,1,0.51515,-0.21875,0.84118,0.97461
17.12,1,0.50929,-0.21875,0.8451,0.97461
17.128,1,0.50147,-0.21484,0.8451,0.96484
17.136,1,0.49365,-0.21484,0.85098,0.95898
17.144,1,0.48583,-0.20508,0.84118,0.95508
17.152,1,0.47703,-0.19922,0.8451,0.94531
17.16,1,0.47019,-0.18945,0.84118,0.93555
17.168,1,0.46334,-0.18945,0.84118,0.93555
17.176,1,0.4565,-0.18359,0.83529,0.91992
17.184,1,0.45161,-0.17969,0.83529,0.92383
17.192,1,0.44673,-0.16992,0.83529,0.91016
17.2,1,0.44282,-0.16992,0.83529,0.91016
17.208,1,0.43891,-0.16406,0.83529,0.89453
17.216,1,0.43597,-0.16016,0.83137,0.88477
17.224,1,0.43304,-0.14844,0.82549,0.86914
17.232,1,0.43109,-0.14453,0.83137,0.85938
17.24,1,0.42815,-0.14453,0.83529,0.84961
17.248,1,0.4262,-0.13867,0.83137,0.83984
17.256,1,0.42424,-0.13867,0.84118,0.82422
17.264,1,0.42229,-0.13867,0.84118,0.82031
17.272,1,0.42033,-0.14453,0.8451,0.80469
17.28,1,0.4174,-0.14453,0.85098,0.79883
17.288,1,0.41544,-0.13867,0.8451,0.79883
17.296,1,0.41447,-0.11914,0.84118,0.79883
17.304,1,0.41153,-0.125,0.83529,0.81445
17.312,1,0.40762,-0.10352,0.82549,0.82031
17.32,1,0.40274,-0.09375,0.80588,0.82422
17.328,1,0.3998,-0.064453,0.78039,0.82031
17.336,1,0.39589,-0.048828,0.76078,0.82422
17.344,1,0.39296,-0.025391,0.7451,0.82031
17.352,1,0.39101,-0.019531,0.73137,0.83008
17.36,1,0.38905,-0.0039062,0.72549,0.82422
17.368,1,0.38612,-0.0039062,0.72157,0.83008
17.376,1,0.38416,0,0.72157,0.83008
17.384,1,0.38221,0,0.72549,0.83398
17.392,1,0.38025,0,0.72549,0.83398
17.4,1,0.3783,-0.0097656,0.73137,0.83984
17.408,1,0.37732,-0.0039062,0.73137,0.83398
17.416,1,0.37537,-0.0039062,0.73137,0.83398
17.424,1,0.37341,-0.0097656,0.73529,0.83008
17.432,1,0.37146,0,0.73529,0.83398
17.44,1,0.37048,-0.013672,0.74118,0.83008
17.448,0.98925,0.3695,-0.0097656,0.74118,0.82422
17.456,0.97849,0.36852,-0.013672,0.74118,0.82031
17.464,0.96872,0.36852,-0.0097656,0.73529,0.82031
17.472,0.95797,0.3695,-0.013672,0.72549,0.82031
17.48,0.94917,0.37048,-0.0039062,0.72549,0.81445
17.488,0.93939,0.37243,-0.0097656,0.72157,0.82031
17.496,0.93157,0.37439,-0.0039062,0.72157,0.81445
17.504,0.92375,0.37537,-0.0097656,0.72157,0.81445
17.512,0.91593,0.37537,-0.0039062,0.72157,0.81055
17.52,0.90909,0.37634,-0.0097656,0.72157,0.81445
17.528,0.90323,0.3783,0.0097656,0.75098,0.79492
17.536,0.89638,0.38123,0.041016,0.77647,0.76562
17.544,0.8915,0.3871,0.050781,0.78039,0.76953
17.552,0.88563,0.39785,0.035156,0.71569,0.7793
17.56,0.88074,0.41251,0.041016,0.67647,0.78906
17.568,0.87683,0.43109,0.064453,0.65098,0.76953
17.576,0.87292,0.45357,0.080078,0.62549,0.76562
17.584,0.86901,0.47801,0.089844,0.61961,0.76562
17.592,0.8651,0.50244,0.085938,0.61961,0.75
17.6,0.86119,0.52297,0.060547,0.6549,0.7793
17.608,0.85728,0.53861,0,0.6902,0.83398
17.616,0.85435,0.55425,-0.054688,0.72157,0.86523
17.624,0.84946,0.56598,-0.074219,0.73137,0.88477
17.632,0.84555,0.5738,-0.080078,0.73137,0.88867
17.64,0.84066,0.57771,-0.083984,0.73137,0.88867
17.648,0.83578,0.57967,-0.080078,0.73529,0.88867
17.656,0.82991,0.57771,-0.074219,0.72157,0.87891
17.664,0.82307,0.57478,-0.048828,0.68627,0.78906
17.672,0.81623,0.57185,0.076172,0.6902,0.58398
17.68,0.80938,0.56794,0.52539,0.46471,0.28516
17.688,0.80254,0.565,1.2285,0.07451,-0.058594
17.696,0.7957,0.56305,1.3242,-0.027451,0.32422
17.704,0.78886,0.56109,0.44531,0.32353,0.84375
17.712,0.78201,0.55816,0.0058594,0.6451,1.0039
17.72,0.77419,0.55621,-0.125,0.77059,0.98047
17.728,0.76735,0.55425,-0.18359,0.82157,0.96875
17.736,0.76051,0.55132,-0.21484,0.8451,0.98438
17.744,0.75269,0.54643,-0.22461,0.86078,0.98438
17.752,0.74585,0.54057,-0.22852,0.87059,0.98438
17.76,0.739,0.5347,-0.21875,0.86667,0.97461
17.768,0.73216,0.52786,-0.21875,0.87059,0.97461
17.776,0.72532,0.52004,-0.21484,0.87059,0.95898
17.784,0.7175,0.51222,-0.21484,0.87059,0.96875
17.792,0.70968,0.5044,-0.21484,0.87059,0.95898
17.8,0.70088,0.49658,-0.20508,0.86667,0.95508
17.808,0.69306,0.49071,-0.19336,0.86667,0.93945
17.816,0.68426,0.48387,-0.19336,0.86667,0.93945
17.824,0.67644,0.47898,-0.18945,0.86078,0.92969
17.832,0.66764,0.4741,-0.18359,0.86078,0.91992
17.84,0.65982,0.46921,-0.17969,0.86078,0.91016
17.848,0.65298,0.4653,-0.16406,0.86078,0.90039
17.856,0.64614,0.46139,-0.16406,0.85686,0.88867
17.864,0.6393,0.45943,-0.16016,0.86078,0.87891
17.872,0.63343,0.4565,-0.16016,0.86078,0.86914
17.88,0.62757,0.45455,-0.1543,0.86078,0.86523
17.888,0.62268,0.45161,-0.16016,0.86667,0.84375
17.896,0.61681,0.4477,-0.14844,0.87647,0.82422
17.904,0.61193,0.44477,-0.1543,0.88039,0.81055
17.912,0.60704,0.44086,-0.1543,0.88627,0.80469
17.92,0.60215,0.43793,-0.16016,0.90196,0.79492
17.928,0.59726,0.435,-0.1543,0.89608,0.79492
17.936,0.59238,0.43304,-0.14844,0.8902,0.79883
17.944,0.58651,0.43011,-0.13867,0.88627,0.80469
17.952,0.58162,0.42815,-0.13477,0.87059,0.82031
17.96,0.57576,0.42717,-0.10938,0.85098,0.82422
17.968,0.57087,0.4262,-0.09375,0.82549,0.83398
17.976,0.56403,0.42522,-0.070312,0.7902,0.83398
17.984,0.55718,0.42522,-0.044922,0.76667,0.83398
17.992,0.55034,0.42326,-0.025391,0.7451,0.83008
18,0.54252,0.42229,-0.013672,0.74118,0.83008
18.008,0.53568,0.42131,-0.0039062,0.73137,0.83398
18.016,0.52884,0.41838,0,0.72549,0.83008
18.024,0.52199,0.41642,0,0.72549,0.83008
18.032,0.51515,0.41349,0,0.72157,0.83398
18.04,0.50733,0.41153,0,0.72157,0.83398
18.048,0.49853,0.40958,0,0.72549,0.83984
18.056,0.48974,0.40958,0,0.73137,0.83984
18.064,0.48094,0.4086,-0.0097656,0.74118,0.84375
18.072,0.47214,0.4086,-0.013672,0.7451,0.84375
18.08,0.46334,0.40762,-0.0097656,0.7451,0.83984
18.088,0.45455,0.40762,-0.013672,0.7451,0.83398
18.096,0.44575,0.40762,-0.019531,0.7451,0.83398
18.104,0.43695,0.4086,-0.025391,0.7451,0.83984
18.112,0.42815,0.40762,-0.019531,0.74118,0.83008
18.12,0.41838,0.40665,-0.025391,0.74118,0.83398
18.128,0.40958,0.40469,-0.019531,0.73529,0.82422
18.136,0.40078,0.40274,-0.025391,0.73137,0.83008
18.144,0.39198,0.40078,-0.013672,0.72549,0.82422
18.152,0.38319,0.39883,-0.013672,0.72157,0.82422
18.16,0.37439,0.39785,-0.0039062,0.72549,0.81445
18.168,0.36657,0.40176,0.025391,0.76667,0.78516
18.176,0.35973,0.41056,0.054688,0.78039,0.76562
18.184,0.35191,0.42229,0.044922,0.74118,0.77539
18.192,0.34506,0.43891,0.041016,0.7,0.79492
18.2,0.33822,0.4565,0.050781,0.66471,0.78906
18.208,0.33138,0.47703,0.076172,0.63529,0.76953
18.216,0.32551,0.50244,0.085938,0.61961,0.76562
18.224,0.31867,0.52981,0.089844,0.61569,0.75977
18.232,0.31378,0.55718,0.095703,0.62549,0.75391
18.24,0.30792,0.58162,0.035156,0.66471,0.79883
18.248,0.30303,0.60215,-0.019531,0.7,0.84961
18.256,0.29912,0.61779,-0.054688,0.72157,0.875
18.264,0.29423,0.62952,-0.074219,0.72549,0.88867
18.272,0.28935,0.63636,-0.080078,0.73137,0.90039
18.28,0.28446,0.6393,-0.074219,0.72549,0.88867
18.288,0.27957,0.64125,-0.074219,0.72549,0.89453
18.296,0.27566,0.64125,-0.064453,0.71569,0.86914
18.304,0.27077,0.64027,-0.029297,0.68627,0.73438
18.312,0.26588,0.63832,0.14062,0.69608,0.52539
18.32,0.261,0.63539,0.68945,0.37059,0.15625
18.328,0.25709,0.63245,1.3086,-0.0058823,-0.058594
18.336,0.2522,0.62952,0.98438,-0.031373,0.45508
18.344,0.24731,0.62659,0.26953,0.44902,0.93555
18.352,0.24242,0.6217,-0.035156,0.6902,1.0039
18.36,0.23754,0.61779,-0.13477,0.78627,0.97461
18.368,0.23265,0.6129,-0.18945,0.83137,0.98047
18.376,0.22776,0.60899,-0.20508,0.8451,0.98438
18.384,0.2219,0.60411,-0.22461,0.86078,0.99023
18.392,0.21799,0.6002,-0.21875,0.86078,0.98438
18.4,0.2131,0.59433,-0.22461,0.86667,0.98438
18.408,0.20919,0.58847,-0.21875,0.87059,0.97461
18.416,0.20626,0.58162,-0.21484,0.86667,0.97461
18.424,0.20235,0.57185,-0.21484,0.87059,0.96484
18.432,0.19844,0.56109,-0.20508,0.87059,0.95898
18.44,0.1955,0.55034,-0.19922,0.86667,0.94922
18.448,0.19159,0.53959,-0.18945,0.86667,0.93945
18.456,0.18964,0.52884,-0.18945,0.86078,0.93555
18.464,0.18671,0.52102,-0.18359,0.86078,0.92969
18.472,0.18475,0.51515,-0.17969,0.86078,0.91992
18.48,0.18377,0.50929,-0.17383,0.86078,0.91406
18.488,0.1828,0.5044,-0.16992,0.86078,0.9043
18.496,0.18182,0.50049,-0.16406,0.85686,0.88867
18.504,0.18182,0.49756,-0.16016,0.86078,0.88477
18.512,0.18084,0.49462,-0.14453,0.86078,0.86523
18.52,0.18084,0.49267,-0.14453,0.86078,0.85547
18.528,0.18084,0.49071,-0.14453,0.86667,0.83984
18.536,0.18084,0.48778,-0.14453,0.87059,0.82422
18.544,0.18182,0.48485,-0.14453,0.88039,0.81055
18.552,0.18182,0.48094,-0.14453,0.88627,0.80469
18.56,0.18182,0.47703,-0.14453,0.88627,0.79492
18.568,0.1828,0.47214,-0.14453,0.88627,0.79883
18.576,0.1828,0.46725,-0.13867,0.88039,0.79883
18.584,0.1828,0.46139,-0.125,0.87059,0.81055
18.592,0.18377,0.4565,-0.10938,0.85686,0.82031
18.6,0.1828,0.45259,-0.09375,0.84118,0.82422
18.608,0.1828,0.44966,-0.074219,0.81176,0.83008
18.616,0.18084,0.44673,-0.048828,0.78627,0.83398
18.624,0.17986,0.44477,-0.025391,0.7549,0.83008
18.632,0.17693,0.44184,-0.013672,0.7451,0.83398
18.64,0.17498,0.43891,-0.0039062,0.73529,0.83398
18.648,0.17302,0.43597,0,0.73137,0.83398
18.656,0.17009,0.43304,0,0.72549,0.83984
18.664,0.16813,0.42913,0,0.72157,0.83398
18.672,0.16618,0.4262,-0.0039062,0.72549,0.84375
18.68,0.16422,0.42229,-0.0039062,0.73137,0.83984
18.688,0.16129,0.41935,-0.0097656,0.73137,0.84375
18.696,0.15738,0.4174,-0.0097656,0.73529,0.83984
18.704,0.15445,0.41642,-0.013672,0.73529,0.83984
18.712,0.15152,0.41447,-0.013672,0.74118,0.84375
18.72,0.14858,0.41349,-0.025391,0.7451,0.84375
18.728,0.14467,0.41251,-0.025391,0.7451,0.84375
18.736,0.14174,0.41153,-0.025391,0.7451,0.83984
18.744,0.13881,0.41056,-0.013672,0.7451,0.83008
18.752,0.13587,0.40958,-0.019531,0.74118,0.83398
18.76,0.13294,0.4086,-0.013672,0.73529,0.82422
18.768,0.13001,0.40762,-0.019531,0.73137,0.83008
18.776,0.12708,0.40665,-0.0097656,0.72157,0.82031
18.784,0.12414,0.40567,-0.0039062,0.72157,0.82031
18.792,0.12219,0.40665,0,0.72157,0.82031
18.8,0.11926,0.4086,0,0.72549,0.82031
18.808,0.1173,0.41153,0.025391,0.7549,0.78516
18.816,0.11632,0.41838,0.054688,0.77647,0.75977
18.824,0.11535,0.42913,0.050781,0.7451,0.76953
18.832,0.11437,0.44379,0.035156,0.7098,0.78906
18.84,0.11437,0.46237,0.041016,0.66471,0.79492
18.848,0.11437,0.48583,0.070312,0.63529,0.76953
18.856,0.11535,0.51124,0.089844,0.61569,0.75977
18.864,0.11632,0.53763,0.089844,0.6098,0.75977
18.872,0.11632,0.56305,0.095703,0.61961,0.75
18.88,0.1173,0.58651,0.060547,0.66078,0.78516
18.888,0.11926,0.60508,-0.0039062,0.69608,0.83984
18.896,0.12023,0.61779,-0.048828,0.72157,0.86914
18.904,0.12121,0.62659,-0.070312,0.72157,0.88867
18.912,0.12317,0.63245,-0.074219,0.72157,0.88867
18.92,0.12414,0.63539,-0.074219,0.72549,0.88867
18.928,0.12512,0.63734,-0.070312,0.73137,0.88867
18.936,0.1261,0.63636,-0.064453,0.72157,0.87891
18.944,0.12805,0.63441,-0.029297,0.68627,0.77539
18.952,0.12805,0.6305,0.085938,0.6902,0.57031
18.96,0.12903,0.62659,0.55469,0.43529,0.23438
18.968,0.12903,0.62268,1.2344,0.068627,-0.09375
18.976,0.13001,0.61779,1.2852,0.0078431,0.33984
18.984,0.13001,0.6129,0.375,0.38431,0.88867
18.992,0.13001,0.60899,-0.0039062,0.66471,1.0137
19,0.13001,0.60411,-0.11914,0.77647,0.98047
19.008,0.13001,0.6002,-0.16992,0.82549,0.97461
19.016,0.13001,0.59531,-0.20508,0.85098,0.98438
19.024,0.13001,0.59042,-0.21484,0.85686,0.98438
19.032,0.13001,0.58553,-0.21875,0.86667,0.98438
19.04,0.13099,0.57967,-0.21484,0.86667,0.98047
19.048,0.13196,0.57283,-0.21875,0.87059,0.98047
19.056,0.13196,0.565,-0.21484,0.87059,0.96875
19.064,0.13294,0.55621,-0.20898,0.87059,0.96484
19.072,0.13294,0.54545,-0.20508,0.86667,0.95898
19.08,0.13392,0.5347,-0.19922,0.86078,0.95508
19.088,0.13392,0.52395,-0.18945,0.86667,0.94531
19.096,0.13392,0.51515,-0.18359,0.86078,0.93555
19.104,0.1349,0.50733,-0.17969,0.86667,0.92383
19.112,0.13587,0.50049,-0.16992,0.86078,0.91406
19.12,0.13685,0.49462,-0.16406,0.86078,0.91016
19.128,0.13783,0.48876,-0.16406,0.86078,0.90039
19.136,0.13881,0.48387,-0.16016,0.86078,0.88867
19.144,0.13978,0.47898,-0.1543,0.86078,0.87891
19.152,0.14174,0.47507,-0.14844,0.86078,0.875
19.16,0.14272,0.47019,-0.1543,0.86667,0.85547
19.168,0.1437,0.4653,-0.14453,0.86078,0.84375
19.176,0.14565,0.46139,-0.13867,0.86667,0.82031
19.184,0.14663,0.4565,-0.14453,0.87647,0.81445
19.192,0.14858,0.45259,-0.13867,0.88039,0.79492
19.2,0.14956,0.44966,-0.14453,0.88627,0.79492
19.208,0.15152,0.44673,-0.13477,0.88627,0.79492
19.216,0.15249,0.44379,-0.13477,0.88627,0.80469
19.224,0.15347,0.44282,-0.11914,0.87059,0.81055
19.232,0.15543,0.44086,-0.10352,0.86078,0.81445
19.24,0.1564,0.43988,-0.083984,0.84118,0.82031
19.248,0.15836,0.43891,-0.070312,0.81176,0.82422
19.256,0.15836,0.43695,-0.044922,0.78627,0.82031
19.264,0.15934,0.435,-0.025391,0.76667,0.82031
19.272,0.16031,0.43304,-0.013672,0.7451,0.82031
19.28,0.16031,0.43011,0,0.74118,0.82031
19.288,0.16129,0.42717,0.0058594,0.73529,0.82031
19.296,0.16227,0.42424,0.0097656,0.73137,0.82031
19.304,0.16227,0.42131,0,0.73137,0.82422
19.312,0.16325,0.41935,0.0058594,0.73137,0.82422
19.32,0.16422,0.41642,0,0.72549,0.83398
19.328,0.1652,0.41447,0,0.73529,0.83008
19.336,0.16618,0.41349,0,0.7451,0.83008
19.344,0.16716,0.41251,0,0.7451,0.83008
19.352,0.16813,0.41153,-0.0039062,0.7451,0.83398
19.36,0.16911,0.40958,-0.0039062,0.7451,0.83008
19.368,0.17009,0.40762,-0.013672,0.75098,0.83398
19.376,0.17204,0.40567,-0.013672,0.7451,0.83398
19.384,0.174,0.40274,-0.019531,0.7451,0.83398
19.392,0.17595,0.40176,-0.013672,0.7451,0.82422
19.4,0.17889,0.40078,-0.013672,0.74118,0.82422
19.408,0.1828,0.3998,-0.0039062,0.73529,0.82031
19.416,0.18671,0.39785,-0.0097656,0.73529,0.82031
19.424,0.19159,0.39589,-0.0039062,0.73529,0.82031
19.432,0.19746,0.39394,0,0.73137,0.82031
19.44,0.20332,0.39296,0,0.72549,0.81445
19.448,0.20919,0.39394,0.015625,0.7549,0.79492
19.456,0.21408,0.39785,0.054688,0.78039,0.75977
19.464,0.21994,0.40665,0.064453,0.78627,0.75391
19.472,0.22581,0.42131,0.044922,0.72549,0.77539
19.48,0.23167,0.43988,0.041016,0.68627,0.78906
19.488,0.23851,0.46334,0.076172,0.65098,0.76562
19.496,0.24536,0.48583,0.089844,0.63529,0.75
19.504,0.2522,0.50733,0.10547,0.61961,0.75391
19.512,0.25806,0.52981,0.10547,0.61961,0.74414
19.52,0.26491,0.55327,0.080078,0.6549,0.76562
19.528,0.26979,0.57283,0.0097656,0.69608,0.82422
19.536,0.27566,0.58847,-0.035156,0.71569,0.86523
19.544,0.28055,0.59824,-0.058594,0.72549,0.875
19.552,0.28641,0.60313,-0.070312,0.73529,0.88477
19.56,0.29326,0.60606,-0.074219,0.73529,0.88477
19.568,0.29912,0.60508,-0.074219,0.74118,0.88867
19.576,0.30499,0.60215,-0.070312,0.73137,0.875
19.584,0.31183,0.59922,-0.054688,0.7,0.83398
19.592,0.31769,0.59433,0,0.68627,0.63477
19.6,0.32454,0.5914,0.28516,0.57059,0.38477
19.608,0.3304,0.58749,1.0488,0.22941,-0.048828
19.616,0.33529,0.58358,1.3086,0.078431,-0.070312
19.624,0.34018,0.57869,0.69531,0.24902,0.68945
19.632,0.34506,0.57478,0.060547,0.61569,1.0098
19.64,0.35093,0.57185,-0.083984,0.75098,0.98047
19.648,0.35582,0.56794,-0.1543,0.81176,0.95898
19.656,0.36168,0.56305,-0.19336,0.84118,0.97461
19.664,0.36755,0.55718,-0.20898,0.85686,0.98047
19.672,0.37243,0.55034,-0.20898,0.86078,0.97461
19.68,0.3783,0.54252,-0.21484,0.86667,0.97461
19.688,0.38319,0.53275,-0.20898,0.86667,0.95898
19.696,0.38905,0.52395,-0.20508,0.86667,0.95898
19.704,0.39589,0.51613,-0.20898,0.87059,0.95898
19.712,0.40274,0.50831,-0.18945,0.86667,0.94531
19.72,0.41056,0.49951,-0.18945,0.86078,0.93945
19.728,0.41838,0.49169,-0.17969,0.86078,0.92969
19.736,0.42717,0.48485,-0.17969,0.86078,0.92383
19.744,0.43597,0.47898,-0.17969,0.85686,0.91406
19.752,0.44575,0.47312,-0.16992,0.85098,0.91016
19.76,0.45552,0.46823,-0.16016,0.85686,0.89453
19.768,0.46432,0.46334,-0.1543,0.85098,0.88867
19.776,0.47312,0.45943,-0.14844,0.8451,0.88477
19.784,0.48192,0.4565,-0.13867,0.85098,0.875
19.792,0.49071,0.45357,-0.13477,0.8451,0.85938
19.8,0.49951,0.45161,-0.13867,0.85686,0.85938
19.808,0.50929,0.44966,-0.12891,0.85686,0.84375
19.816,0.51808,0.4477,-0.125,0.85686,0.82422
19.824,0.52786,0.44575,-0.11914,0.85686,0.80469
19.832,0.53763,0.44379,-0.11914,0.85686,0.79492
19.84,0.54643,0.44184,-0.11914,0.86078,0.78516
19.848,0.55523,0.43988,-0.10938,0.85686,0.78516
19.856,0.56403,0.43695,-0.11523,0.86078,0.79492
19.864,0.57283,0.43402,-0.09375,0.85098,0.79492
19.872,0.5826,0.43011,-0.080078,0.83529,0.79883
19.88,0.59238,0.42522,-0.070312,0.82549,0.79492
19.888,0.60215,0.42131,-0.048828,0.81176,0.80469
19.896,0.61095,0.41838,-0.039062,0.78627,0.81055
19.904,0.62072,0.41642,-0.025391,0.76667,0.82031
19.912,0.6305,0.41447,0,0.75098,0.80469
19.92,0.6393,0.41251,0,0.7451,0.82031
19.928,0.64809,0.40958,0,0.74118,0.82031
19.936,0.65591,0.40762,0,0.7451,0.82422
19.944,0.66373,0.40567,0,0.7451,0.82422
19.952,0.67058,0.40371,-0.0039062,0.7451,0.83398
19.96,0.6784,0.40078,0,0.74118,0.82422
19.968,0.68622,0.39883,-0.0039062,0.7451,0.83008
19.976,0.69404,0.39687,0,0.7451,0.82422
19.984,0.70186,0.39394,-0.0097656,0.75098,0.83398
19.992,0.70968,0.39198,-0.0039062,0.75098,0.82422
20,0.71652,0.39101,0,0.75098,0.82031
20.008,0.72434,0.38905,-0.0039062,0.75098,0.82031
20.016,0.73118,0.3871,-0.0097656,0.75098,0.82031
20.024,0.739,0.38514,-0.013672,0.7549,0.82031
20.032,0.74682,0.38319,-0.0039062,0.7549,0.81445
20.04,0.75464,0.38221,0,0.75098,0.80469
20.048,0.76344,0.38123,-0.0039062,0.7451,0.81055
20.056,0.77224,0.38025,-0.0097656,0.74118,0.81445
20.064,0.78201,0.3783,0,0.73529,0.81055
20.072,0.79179,0.37634,0,0.74118,0.81445
20.08,0.80156,0.37537,0.0097656,0.73137,0.79883
20.088,0.81134,0.37537,0.0058594,0.76078,0.80469
20.096,0.82014,0.37537,0.050781,0.78627,0.76562
20.104,0.82893,0.37634,0.064453,0.7902,0.75391
20.112,0.83773,0.38025,0.054688,0.73529,0.76953
20.12,0.84653,0.38905,0.044922,0.69608,0.78906
20.128,0.8563,0.40371,0.064453,0.67059,0.76953
20.136,0.86608,0.42326,0.076172,0.66078,0.76562
20.144,0.87488,0.44673,0.089844,0.6451,0.75391
20.152,0.88465,0.4741,0.095703,0.63529,0.75391
20.16,0.89345,0.50147,0.10547,0.65098,0.75
20.168,0.90323,0.52688,0.03125,0.6902,0.81055
20.176,0.91202,0.54936,-0.019531,0.72157,0.84961
20.184,0.9218,0.56794,-0.064453,0.73529,0.87891
20.192,0.93157,0.57967,-0.074219,0.73529,0.88867
20.2,0.94135,0.58553,-0.074219,0.74118,0.88867
20.208,0.95112,0.58944,-0.074219,0.73529,0.88867
20.216,0.96188,0.58651,-0.074219,0.73529,0.88477
20.224,0.97263,0.57967,-0.054688,0.7098,0.84961
20.232,0.98338,0.5738,-0.029297,0.68627,0.68945
20.24,0.99511,0.56891,0.20117,0.69608,0.46484
20.248,0.99804,0.56403,0.86523,0.33922,0.095703
20.256,1,0.55914,1.3438,0.068627,-0.019531
20.264,1,0.55523,0.85938,0.16863,0.58008
20.272,1,0.55034,0.17578,0.52941,0.95508
20.28,1,0.54643,-0.054688,0.70588,0.98438
20.288,1,0.54154,-0.13867,0.78627,0.95508
20.296,1,0.53666,-0.17969,0.81569,0.94922
20.304,1,0.53177,-0.20508,0.83529,0.97461
20.312,1,0.5259,-0.21484,0.84118,0.97461
20.32,1,0.51906,-0.21484,0.8451,0.96875
20.328,1,0.51026,-0.20898,0.84118,0.95898
20.336,1,0.50147,-0.20898,0.8451,0.96484
20.344,1,0.49365,-0.20508,0.84118,0.95508
20.352,1,0.48485,-0.20898,0.84118,0.94922
20.36,1,0.47605,-0.19922,0.84118,0.93555
20.368,1,0.46921,-0.19336,0.83529,0.93555
20.376,1,0.46237,-0.18945,0.83137,0.92969
20.384,1,0.4565,-0.18359,0.83137,0.92383
20.392,1,0.45064,-0.17383,0.82549,0.91406
20.4,1,0.44673,-0.16992,0.83137,0.9043
20.408,1,0.44282,-0.16406,0.82549,0.89453
20.416,1,0.43988,-0.16016,0.83137,0.88867
20.424,1,0.43793,-0.1543,0.82549,0.87891
20.432,1,0.43695,-0.14844,0.82549,0.875
20.44,1,0.435,-0.14453,0.82549,0.85938
20.448,1,0.43304,-0.14453,0.82549,0.84961
20.456,1,0.43109,-0.13867,0.83137,0.83984
20.464,1,0.42913,-0.14453,0.83529,0.83008
20.472,1,0.42717,-0.14453,0.84118,0.81445
20.48,1,0.42424,-0.13867,0.84118,0.80469
20.488,1,0.42229,-0.14453,0.84118,0.79883
20.496,1,0.42131,-0.13477,0.84118,0.79883
20.504,1,0.41935,-0.13477,0.84118,0.81445
20.512,1,0.41642,-0.11914,0.83137,0.82031
20.52,1,0.41349,-0.11523,0.82549,0.83008
20.528,1,0.41056,-0.09375,0.80588,0.82422
20.536,1,0.4086,-0.070312,0.78039,0.82422
20.544,1,0.40567,-0.039062,0.7549,0.82031
20.552,1,0.40371,-0.025391,0.7451,0.82422
20.56,1,0.40078,-0.0097656,0.73137,0.82031
20.568,1,0.39785,-0.0097656,0.73137,0.83008
20.576,1,0.39589,0,0.73137,0.83008
20.584,1,0.39296,-0.0039062,0.72549,0.83398
20.592,1,0.39003,0,0.72157,0.83398
20.6,1,0.38807,-0.0097656,0.72549,0.84375
20.608,1,0.38612,-0.0039062,0.73137,0.83398
20.616,1,0.38319,-0.0039062,0.73137,0.83398
20.624,1,0.38025,-0.0039062,0.73137,0.83008
20.632,1,0.3783,0,0.73529,0.83398
20.64,1,0.37634,-0.0039062,0.74118,0.83008
20.648,1,0.37537,-0.0097656,0.74118,0.83008
20.656,1,0.37537,-0.0097656,0.74118,0.82031
20.664,0.9912,0.37537,-0.0097656,0.74118,0.82031
20.672,0.98143,0.37634,-0.0097656,0.73529,0.82031
20.68,0.96774,0.37634,-0.0097656,0.73529,0.81445
20.688,0.95503,0.37634,-0.0039062,0.73137,0.82031
20.696,0.9433,0.37537,0,0.72549,0.81055
20.704,0.93255,0.37537,-0.0039062,0.72157,0.81445
20.712,0.92278,0.37537,0,0.72157,0.81445
20.72,0.913,0.37537,-0.0039062,0.72157,0.82031
20.728,0.90518,0.37537,0,0.72157,0.81445
20.736,0.89736,0.37732,-0.0039062,0.73529,0.82031
20.744,0.89052,0.38123,0.035156,0.77059,0.77539
20.752,0.88368,0.38807,0.054688,0.78627,0.76562
20.76,0.87781,0.39883,0.050781,0.74118,0.76953
20.768,0.87292,0.41447,0.03125,0.70588,0.79883
20.776,0.86901,0.43402,0.054688,0.66078,0.7793
20.784,0.8651,0.45748,0.080078,0.64118,0.76562
20.792,0.86217,0.47996,0.089844,0.62549,0.75977
20.8,0.85826,0.49951,0.089844,0.62549,0.76562
20.808,0.85435,0.52102,0.095703,0.62941,0.75391
20.816,0.85044,0.54154,0.035156,0.67647,0.79883
20.824,0.84751,0.55718,-0.019531,0.70588,0.84375
20.832,0.8436,0.56891,-0.070312,0.72549,0.875
20.84,0.83969,0.57576,-0.074219,0.72549,0.88477
20.848,0.83578,0.57771,-0.070312,0.73137,0.88477
20.856,0.83089,0.57674,-0.074219,0.73137,0.87891
20.864,0.82698,0.57478,-0.074219,0.73529,0.88477
20.872,0.82111,0.57283,-0.054688,0.7098,0.85547
20.88,0.81525,0.57087,-0.013672,0.6902,0.70508
20.888,0.80938,0.56891,0.19531,0.69608,0.49414
20.896,0.8045,0.56696,0.82031,0.32353,0.11523
20.904,0.79765,0.56403,1.3496,-0.031373,-0.048828
20.912,0.79179,0.56207,0.93945,-0.037255,0.52539
20.92,0.78495,0.56012,0.20508,0.49412,0.95898
20.928,0.7781,0.55718,-0.039062,0.70588,1
20.936,0.77028,0.55425,-0.13867,0.8,0.96484
20.944,0.76246,0.54936,-0.18359,0.83529,0.95898
20.952,0.75464,0.54448,-0.21484,0.85098,0.98047
20.96,0.74682,0.53861,-0.21484,0.86078,0.98047
20.968,0.739,0.53275,-0.21484,0.86078,0.97461
20.976,0.73021,0.5259,-0.21484,0.86667,0.96484
20.984,0.72239,0.51906,-0.21484,0.87647,0.96875
20.992,0.71457,0.51124,-0.20898,0.87059,0.95898
21,0.70674,0.5044,-0.20508,0.87059,0.95508
