Time [s], RESP, PLETH, CVP, II, V, AVR
0,0.23656,0.2737,2.5033,0.43945,0.62891,0.72549
0.008,0.23754,0.26784,2.6988,0.43945,0.64062,0.73137
0.016,0.23851,0.26295,2.9335,0.43945,0.62891,0.7098
0.024,0.23949,0.26002,3.2073,0.42969,0.64062,0.73137
0.032,0.24047,0.25611,3.4029,0.42578,0.64453,0.74118
0.04,0.24242,0.25318,3.6375,0.43945,0.63477,0.71569
0.048,0.2434,0.24927,4.0287,0.43945,0.62891,0.70588
0.056,0.24536,0.24633,4.3416,0.43945,0.64453,0.72549
0.064,0.24829,0.2434,4.6545,0.45508,0.64062,0.7
0.072,0.25024,0.23949,4.9674,0.44922,0.64062,0.72157
0.08,0.25318,0.23656,5.2412,0.46484,0.64062,0.70588
0.088,0.25611,0.23265,5.5541,0.44531,0.63477,0.71569
0.096,0.25904,0.22972,5.867,0.43945,0.62891,0.72157
0.104,0.261,0.22678,6.1408,0.44922,0.62891,0.70588
0.112,0.26393,0.22287,6.4537,0.46094,0.63477,0.7
0.12,0.26588,0.2219,6.7666,0.46484,0.63477,0.70588
0.128,0.26784,0.21994,7.0795,0.45508,0.64062,0.7098
0.136,0.26979,0.21701,7.3924,0.47461,0.6543,0.6902
0.144,0.27077,0.2131,7.6271,0.4707,0.67578,0.69608
0.152,0.27175,0.21017,7.9009,0.48438,0.67969,0.7
0.16,0.2737,0.20919,8.1356,0.49023,0.64453,0.68039
0.168,0.2737,0.20919,8.3703,0.48438,0.625,0.68039
0.176,0.27468,0.21114,8.5658,0.4707,0.61914,0.69608
0.184,0.27566,0.21701,8.7614,0.43945,0.60938,0.70588
0.192,0.27664,0.22776,8.957,0.42969,0.60547,0.71569
0.2,0.27664,0.24536,9.0743,0.43555,0.60938,0.71569
0.208,0.27664,0.26784,9.1916,0.43945,0.61914,0.71569
0.216,0.27664,0.2913,9.2699,0.44531,0.61523,0.69608
0.224,0.27664,0.31672,9.309,0.46094,0.61914,0.6902
0.232,0.27566,0.34702,9.309,0.44531,0.61523,0.70588
0.24,0.27468,0.38123,9.1916,0.45508,0.61914,0.69608
0.248,0.2737,0.4174,9.1525,0.43945,0.625,0.7
0.256,0.27273,0.45357,9.0743,0.44531,0.63477,0.71569
0.264,0.27077,0.48876,9.0743,0.43555,0.62891,0.72549
0.272,0.26979,0.52297,8.9961,0.43945,0.64062,0.7098
0.28,0.26882,0.55523,8.9961,0.43945,0.64062,0.71569
0.288,0.26686,0.58456,8.9961,0.42969,0.6543,0.72157
0.296,0.26588,0.61193,9.0743,0.46484,0.66406,0.7
0.304,0.26588,0.63441,9.0743,0.58008,0.60938,0.62549
0.312,0.26491,0.65396,9.1525,0.79883,0.49023,0.4902
0.32,0.26491,0.66764,9.1916,0.95898,0.38477,0.37451
0.328,0.26588,0.67742,9.309,0.78906,0.35938,0.47059
0.336,0.26588,0.68719,9.4654,0.57031,0.42969,0.58431
0.344,0.26686,0.69501,9.6219,0.42578,0.51953,0.6902
0.352,0.26784,0.6999,9.8175,0.35938,0.57031,0.74118
0.36,0.26882,0.69697,10.013,0.38086,0.60938,0.75098
0.368,0.27077,0.68817,10.13,0.41992,0.62891,0.7098
0.376,0.2737,0.68231,10.248,0.43945,0.65039,0.7
0.384,0.27761,0.67644,10.326,0.43945,0.66406,0.71569
0.392,0.28152,0.66862,10.404,0.43945,0.67578,0.7098
0.4,0.28641,0.65982,10.443,0.43945,0.6543,0.72157
0.408,0.2913,0.65005,10.443,0.44531,0.6543,0.70588
0.416,0.29619,0.64027,10.404,0.45508,0.66016,0.7098
0.424,0.30108,0.62952,10.404,0.46094,0.6543,0.7
0.432,0.30596,0.61681,10.248,0.45508,0.66406,0.70588
0.44,0.31085,0.60313,10.13,0.46094,0.66016,0.70588
0.448,0.31672,0.58944,10.013,0.46484,0.66016,0.70588
0.456,0.3216,0.57478,9.9348,0.4707,0.65039,0.68039
0.464,0.32747,0.56109,9.8957,0.48438,0.65039,0.68039
0.472,0.33333,0.54643,9.8175,0.48047,0.65039,0.6902
0.48,0.33822,0.53275,9.8175,0.49414,0.6543,0.69608
0.488,0.34409,0.52004,9.8175,0.50977,0.64453,0.66471
0.496,0.34897,0.50831,9.9348,0.50586,0.64062,0.67059
0.504,0.35484,0.49658,10.013,0.50977,0.64062,0.68627
0.512,0.35973,0.48583,10.13,0.5293,0.64453,0.66078
0.52,0.36461,0.47703,10.326,0.54492,0.63477,0.6451
0.528,0.3695,0.46921,10.521,0.54492,0.64062,0.65098
0.536,0.37439,0.46139,10.756,0.56445,0.63477,0.6549
0.544,0.37928,0.45455,10.874,0.58984,0.62891,0.61569
0.552,0.38416,0.4477,10.952,0.61914,0.625,0.6
0.56,0.38905,0.44282,10.952,0.62891,0.625,0.59608
0.568,0.39296,0.43793,10.834,0.65039,0.61914,0.5902
0.576,0.39785,0.43402,10.639,0.6543,0.60547,0.58039
0.584,0.40176,0.42913,10.443,0.66992,0.60547,0.58431
0.592,0.40567,0.42522,10.326,0.67969,0.60547,0.56471
0.6,0.4086,0.42033,10.248,0.67578,0.59961,0.56078
0.608,0.41153,0.41544,10.248,0.6543,0.58984,0.57451
0.616,0.41447,0.41349,10.248,0.66016,0.58398,0.58039
0.624,0.4174,0.41153,10.326,0.625,0.58398,0.6
0.632,0.42033,0.4086,10.404,0.60938,0.59961,0.6098
0.64,0.42229,0.40665,10.404,0.58008,0.60547,0.61961
0.648,0.42424,0.40371,10.443,0.55078,0.60938,0.65098
0.656,0.42522,0.40078,10.443,0.53516,0.61523,0.6549
0.664,0.42717,0.39785,10.443,0.5293,0.60547,0.6451
0.672,0.42913,0.39492,10.443,0.53906,0.61523,0.63529
0.68,0.43109,0.39101,10.443,0.51953,0.61523,0.66471
0.688,0.43304,0.38807,10.521,0.51953,0.61914,0.67647
0.696,0.435,0.38416,10.521,0.50977,0.61914,0.66471
0.704,0.43695,0.37928,10.561,0.5293,0.61523,0.66078
0.712,0.43988,0.37537,10.561,0.53516,0.61914,0.6549
0.72,0.44282,0.37146,10.561,0.51562,0.625,0.67059
0.728,0.44477,0.3695,10.639,0.52539,0.61914,0.6549
0.736,0.44673,0.36559,10.639,0.5293,0.62891,0.66078
0.744,0.44868,0.36266,10.639,0.52539,0.625,0.6549
0.752,0.45064,0.35875,10.717,0.53516,0.62891,0.66471
0.76,0.45259,0.35484,10.717,0.53516,0.62891,0.67059
0.768,0.45455,0.35093,10.756,0.53906,0.62891,0.6549
0.776,0.45748,0.34702,10.756,0.53516,0.62891,0.6549
0.784,0.46041,0.34311,10.756,0.53906,0.63477,0.6549
0.792,0.46237,0.3392,10.717,0.53516,0.64453,0.66471
0.8,0.4653,0.33431,10.639,0.55078,0.6543,0.64118
0.808,0.46823,0.3304,10.561,0.56445,0.66016,0.62941
0.816,0.47019,0.32747,10.521,0.57031,0.62891,0.63529
0.824,0.47214,0.32551,10.521,0.55078,0.625,0.65098
0.832,0.47507,0.32356,10.561,0.53516,0.61914,0.6549
0.84,0.47703,0.32258,10.639,0.50977,0.60938,0.66471
0.848,0.47898,0.32454,10.639,0.48438,0.61523,0.69608
0.856,0.47996,0.32942,10.639,0.48047,0.5957,0.7
0.864,0.48192,0.33822,10.756,0.52539,0.58984,0.62549
0.872,0.48289,0.35191,10.874,0.53516,0.60938,0.64118
0.88,0.48387,0.3695,10.874,0.52539,0.60547,0.6549
0.888,0.48485,0.39003,10.874,0.51953,0.61523,0.66471
0.896,0.48583,0.41447,10.874,0.51953,0.61523,0.66078
0.904,0.48583,0.44086,10.952,0.50977,0.625,0.68039
0.912,0.4868,0.46921,10.952,0.5,0.62891,0.68627
0.92,0.48583,0.49365,10.952,0.49414,0.625,0.68039
0.928,0.48583,0.51711,10.952,0.48047,0.625,0.7
0.936,0.48485,0.54252,11.03,0.49414,0.625,0.67647
0.944,0.48387,0.56794,11.03,0.50586,0.6543,0.66471
0.952,0.48289,0.59238,10.952,0.5,0.66016,0.68039
0.96,0.48289,0.61584,10.952,0.625,0.60547,0.61569
0.968,0.48192,0.63734,10.952,0.85938,0.48438,0.46471
0.976,0.48094,0.65787,10.952,1.0039,0.36523,0.3549
0.984,0.47996,0.67449,11.03,0.81445,0.33984,0.43922
0.992,0.47996,0.69013,11.069,0.55469,0.41602,0.60588
1,0.47898,0.70283,11.186,0.43555,0.49414,0.67647
1.008,0.47801,0.71359,11.343,0.41602,0.55469,0.70588
1.016,0.47801,0.72043,11.499,0.46094,0.5957,0.68039
1.024,0.47703,0.72434,11.656,0.47461,0.63477,0.6902
1.032,0.47703,0.72727,11.812,0.48047,0.6543,0.69608
1.04,0.47605,0.72923,11.969,0.48438,0.67578,0.6902
1.048,0.47605,0.72923,12.008,0.4707,0.66406,0.70588
1.056,0.47605,0.72727,12.008,0.47461,0.66016,0.69608
1.064,0.47605,0.72239,12.008,0.46484,0.66992,0.70588
1.072,0.47703,0.71457,12.008,0.49023,0.67578,0.68627
1.08,0.47801,0.70577,11.969,0.49023,0.66406,0.7
1.088,0.47898,0.69599,11.969,0.49023,0.66016,0.68039
1.096,0.47996,0.68426,11.89,0.48438,0.6543,0.68627
1.104,0.48094,0.67155,11.969,0.49414,0.66992,0.68039
1.112,0.48192,0.65787,11.969,0.49414,0.66406,0.69608
1.12,0.48289,0.64614,11.969,0.49023,0.67578,0.68039
1.128,0.48485,0.63343,11.969,0.51562,0.66406,0.68039
1.136,0.48583,0.61975,11.969,0.51562,0.6543,0.66471
1.144,0.48778,0.60606,11.969,0.51562,0.66016,0.67647
1.152,0.48876,0.59238,12.008,0.51953,0.66992,0.68039
1.16,0.49071,0.57869,12.008,0.53906,0.6543,0.6451
1.168,0.49267,0.56598,12.008,0.54492,0.66016,0.6549
1.176,0.49365,0.5523,11.969,0.55469,0.64453,0.63529
1.184,0.49462,0.53959,11.89,0.56055,0.6543,0.65098
1.192,0.4956,0.52786,11.969,0.58398,0.65039,0.62941
1.2,0.4956,0.51613,12.086,0.60547,0.64062,0.6098
1.208,0.49658,0.5044,12.125,0.61914,0.64453,0.61569
1.216,0.49658,0.4956,12.203,0.64453,0.64062,0.59608
1.224,0.49756,0.48778,12.203,0.6543,0.64062,0.5902
1.232,0.49756,0.48094,12.203,0.66992,0.62891,0.58431
1.24,0.49756,0.47312,12.125,0.67578,0.625,0.56471
1.248,0.49756,0.4653,12.086,0.66992,0.61523,0.56078
1.256,0.49756,0.45748,12.008,0.67578,0.61914,0.58431
1.264,0.49756,0.45161,12.008,0.67578,0.60938,0.57059
1.272,0.49756,0.44575,12.008,0.6543,0.60547,0.58039
1.28,0.49658,0.43988,12.008,0.625,0.60547,0.60588
1.288,0.49658,0.435,12.086,0.59961,0.60547,0.59608
1.296,0.49658,0.43011,12.086,0.57031,0.61914,0.64118
1.304,0.49658,0.42522,12.086,0.54492,0.625,0.6549
1.312,0.4956,0.42033,12.125,0.53516,0.61914,0.6549
1.32,0.4956,0.41544,12.125,0.5293,0.625,0.6549
1.328,0.4956,0.41153,12.125,0.51562,0.61914,0.6549
1.336,0.49462,0.40762,12.125,0.51562,0.625,0.67059
1.344,0.49462,0.40274,12.203,0.51562,0.62891,0.66471
1.352,0.49365,0.39785,12.203,0.51562,0.63477,0.67647
1.36,0.49365,0.39296,12.203,0.5,0.62891,0.68039
1.368,0.49267,0.38807,12.203,0.51562,0.61914,0.6549
1.376,0.49267,0.38319,12.282,0.5293,0.63477,0.6549
1.384,0.49169,0.3783,12.321,0.5293,0.62891,0.66078
1.392,0.49169,0.37341,12.399,0.52539,0.62891,0.6549
1.4,0.49071,0.3695,12.438,0.51562,0.625,0.6549
1.408,0.49071,0.36559,12.516,0.51953,0.63477,0.67059
1.416,0.48974,0.36266,12.595,0.51953,0.63477,0.67647
1.424,0.48974,0.35973,12.634,0.51562,0.64453,0.67059
1.432,0.48876,0.35679,12.712,0.51953,0.63477,0.66078
1.44,0.48876,0.35288,12.751,0.51562,0.64453,0.67059
1.448,0.48778,0.34897,12.751,0.5293,0.64062,0.66471
1.456,0.48778,0.34409,12.712,0.53906,0.6543,0.6549
1.464,0.4868,0.3392,12.634,0.54492,0.67578,0.65098
1.472,0.4868,0.33431,12.516,0.53516,0.66406,0.66078
1.48,0.48583,0.3304,12.438,0.53516,0.62891,0.6549
1.488,0.48583,0.32942,12.516,0.50977,0.60938,0.66471
1.496,0.48583,0.32942,12.516,0.49414,0.61914,0.67647
1.504,0.48583,0.33431,12.634,0.50977,0.59961,0.6451
1.512,0.4868,0.34311,12.712,0.5,0.625,0.67647
1.52,0.4868,0.35386,12.751,0.5,0.61523,0.68039
1.528,0.4868,0.36852,12.712,0.49023,0.61523,0.67059
1.536,0.48778,0.3871,12.712,0.49414,0.60938,0.67647
1.544,0.48778,0.41056,12.595,0.49023,0.61523,0.67647
1.552,0.48778,0.43695,12.516,0.50977,0.60547,0.65098
1.56,0.48778,0.4653,12.438,0.49414,0.625,0.67647
1.568,0.48778,0.49462,12.399,0.49023,0.62891,0.67647
1.576,0.48778,0.52395,12.321,0.49023,0.62891,0.68627
1.584,0.48778,0.5523,12.282,0.47461,0.62891,0.68039
1.592,0.48778,0.57967,12.282,0.46484,0.63477,0.7
1.6,0.48876,0.60508,12.203,0.4707,0.62891,0.69608
1.608,0.48974,0.62952,12.125,0.46094,0.66992,0.7098
1.616,0.48974,0.64809,12.125,0.50586,0.67578,0.68039
1.624,0.49071,0.66373,12.086,0.65039,0.58008,0.58431
1.632,0.49071,0.68035,12.086,0.86914,0.46484,0.4451
1.64,0.49169,0.69501,12.125,0.96484,0.35547,0.36471
1.648,0.49169,0.7087,12.125,0.72461,0.3457,0.4902
1.656,0.49169,0.72043,12.125,0.5,0.42969,0.62549
1.664,0.49267,0.72923,12.125,0.38477,0.50586,0.7
1.672,0.49365,0.73607,12.203,0.38086,0.56055,0.72157
1.68,0.49462,0.74096,12.282,0.44531,0.61523,0.70588
1.688,0.4956,0.74291,12.282,0.46484,0.65039,0.6902
1.696,0.49658,0.74389,12.399,0.45508,0.66406,0.7
1.704,0.49756,0.74194,12.516,0.44922,0.67578,0.72157
1.712,0.49951,0.739,12.634,0.45508,0.67578,0.70588
1.72,0.49951,0.73314,12.751,0.46094,0.66406,0.7
1.728,0.50049,0.72727,12.907,0.44922,0.66992,0.70588
1.736,0.50147,0.71848,12.947,0.46094,0.67969,0.70588
1.744,0.50244,0.70968,13.025,0.4707,0.66992,0.6902
1.752,0.50342,0.69892,13.025,0.4707,0.67578,0.7
1.76,0.5044,0.68719,13.064,0.47461,0.66992,0.70588
1.768,0.50538,0.67449,13.142,0.48438,0.66406,0.68039
1.776,0.50635,0.6608,13.142,0.46484,0.67578,0.70588
1.784,0.50635,0.64614,13.142,0.48047,0.66406,0.68039
1.792,0.50733,0.63148,13.142,0.49414,0.67578,0.68627
1.8,0.50831,0.61681,13.142,0.5,0.66406,0.68039
1.808,0.50831,0.60215,13.142,0.49023,0.66406,0.68627
1.816,0.50831,0.58944,13.181,0.49414,0.66016,0.68039
1.824,0.50929,0.57771,13.181,0.51562,0.66992,0.67059
1.832,0.50929,0.565,13.142,0.52539,0.66016,0.66078
1.84,0.50929,0.5523,13.064,0.5293,0.66016,0.66078
1.848,0.50831,0.54057,13.025,0.53516,0.6543,0.65098
1.856,0.50831,0.53079,13.025,0.56445,0.66016,0.63529
1.864,0.50831,0.52004,13.064,0.58398,0.65039,0.62549
1.872,0.50831,0.50929,13.064,0.59961,0.64453,0.61961
1.88,0.50831,0.50049,13.025,0.60938,0.66016,0.62549
1.888,0.50733,0.49071,12.947,0.625,0.65039,0.6098
1.896,0.50733,0.48289,12.829,0.62891,0.63477,0.60588
1.904,0.50733,0.4741,12.712,0.63477,0.63477,0.6
1.912,0.50733,0.46725,12.595,0.64453,0.62891,0.5902
1.92,0.50733,0.46139,12.516,0.625,0.62891,0.60588
1.928,0.50733,0.45552,12.438,0.62891,0.60547,0.59608
1.936,0.50831,0.44868,12.399,0.59961,0.60938,0.6098
1.944,0.50831,0.44184,12.399,0.58398,0.60547,0.61569
1.952,0.50733,0.43597,12.321,0.55078,0.62891,0.66078
1.96,0.50635,0.43011,12.321,0.5293,0.625,0.66471
1.968,0.50635,0.42424,12.282,0.51562,0.625,0.6549
1.976,0.50538,0.41838,12.321,0.49414,0.62891,0.68039
1.984,0.5044,0.41349,12.321,0.5,0.62891,0.67647
1.992,0.50342,0.40958,12.282,0.48438,0.62891,0.68627
2,0.50342,0.40567,12.282,0.48047,0.62891,0.68039
2.008,0.50244,0.40176,12.321,0.48047,0.63477,0.68627
2.016,0.50147,0.39883,12.321,0.48438,0.62891,0.68039
2.024,0.50049,0.39589,12.399,0.47461,0.63477,0.6902
2.032,0.50049,0.39296,12.438,0.47461,0.64062,0.68039
2.04,0.49951,0.38807,12.438,0.48047,0.62891,0.67647
2.048,0.49951,0.38416,12.516,0.47461,0.64062,0.68627
2.056,0.49853,0.3783,12.516,0.48438,0.65039,0.6902
2.064,0.49756,0.37439,12.595,0.48438,0.64453,0.6902
2.072,0.49658,0.3695,12.634,0.48047,0.64453,0.6902
2.08,0.4956,0.36559,12.634,0.48438,0.65039,0.69608
2.088,0.49462,0.36168,12.712,0.48438,0.64453,0.68039
2.096,0.49267,0.35777,12.712,0.48047,0.65039,0.6902
2.104,0.49169,0.35386,12.712,0.49023,0.64453,0.68039
2.112,0.48974,0.35093,12.712,0.5,0.66016,0.68039
2.12,0.48876,0.348,12.634,0.49414,0.67578,0.68039
2.128,0.48778,0.34506,12.595,0.48438,0.68555,0.69608
2.136,0.4868,0.34213,12.595,0.5,0.67578,0.68039
2.144,0.48583,0.34018,12.516,0.49023,0.64453,0.68627
2.152,0.48485,0.3392,12.516,0.49023,0.64453,0.67647
2.16,0.48387,0.34018,12.399,0.46484,0.63477,0.7
2.168,0.48289,0.34506,12.203,0.45508,0.62891,0.69608
2.176,0.48289,0.35386,12.008,0.44531,0.62891,0.70588
2.184,0.48289,0.36852,11.812,0.44531,0.625,0.7
2.192,0.48289,0.3871,11.578,0.44531,0.62891,0.70588
2.2,0.48289,0.4086,11.343,0.45508,0.64062,0.70588
2.208,0.48192,0.435,11.03,0.44922,0.64453,0.70588
2.216,0.48192,0.45943,10.756,0.45508,0.64062,0.69608
2.224,0.48094,0.48289,10.443,0.42969,0.6543,0.71569
2.232,0.48094,0.51026,10.209,0.41016,0.66016,0.72549
2.24,0.47996,0.53763,10.013,0.41602,0.66406,0.72157
2.248,0.47996,0.565,9.7783,0.41016,0.66406,0.72549
2.256,0.47898,0.5914,9.5046,0.4043,0.67578,0.73529
2.264,0.47801,0.61681,9.1916,0.41992,0.67969,0.71569
2.272,0.47703,0.64027,8.8787,0.39453,0.70898,0.75098
2.28,0.47507,0.66178,8.6441,0.43945,0.68555,0.71569
2.288,0.47312,0.68133,8.3703,0.58008,0.60938,0.62549
2.296,0.47019,0.69795,8.1356,0.79492,0.48438,0.47451
2.304,0.46725,0.71163,7.94,0.875,0.39062,0.41569
2.312,0.46432,0.72141,7.7444,0.60938,0.38477,0.56471
2.32,0.46139,0.72825,7.6271,0.41992,0.49023,0.6902
2.328,0.45748,0.73412,7.5098,0.32422,0.57031,0.7549
2.336,0.45455,0.73803,7.3924,0.31445,0.62891,0.77647
2.344,0.45064,0.74096,7.3142,0.36523,0.66992,0.7451
2.352,0.4477,0.74096,7.2751,0.38477,0.69922,0.74118
2.36,0.44282,0.73998,7.3142,0.36523,0.71484,0.76667
2.368,0.43891,0.73705,7.3924,0.35938,0.7207,0.77059
2.376,0.43304,0.73216,7.4315,0.375,0.71484,0.75098
2.384,0.42815,0.7263,7.5098,0.37109,0.72461,0.7549
2.392,0.42326,0.7175,7.4315,0.37109,0.7207,0.76078
2.4,0.41838,0.70772,7.3924,0.375,0.71484,0.7549
2.408,0.41447,0.69501,7.2751,0.38477,0.72461,0.76078
2.416,0.40958,0.68133,7.1186,0.38477,0.71484,0.75098
2.424,0.40371,0.66667,7.0013,0.39453,0.71484,0.7451
2.432,0.39785,0.65103,6.884,0.38477,0.71484,0.7549
2.44,0.39101,0.63343,6.8057,0.39453,0.70508,0.75098
2.448,0.38416,0.61584,6.8057,0.39062,0.7207,0.74118
2.456,0.37634,0.59824,6.8057,0.41016,0.70898,0.74118
2.464,0.36852,0.58162,6.8057,0.4043,0.70898,0.73529
2.472,0.35973,0.56305,6.9622,0.41992,0.70508,0.73529
2.48,0.35093,0.54545,7.0013,0.42969,0.69922,0.72549
2.488,0.34311,0.52884,7.0795,0.42969,0.69922,0.72549
2.496,0.33529,0.51417,7.0013,0.42578,0.70508,0.73137
2.504,0.32845,0.49951,6.8057,0.46094,0.69531,0.70588
2.512,0.3216,0.4868,6.6884,0.47461,0.68555,0.6902
2.52,0.31476,0.47507,6.571,0.49023,0.69531,0.6902
2.528,0.30792,0.46334,6.3364,0.49023,0.68555,0.69608
2.536,0.30108,0.45259,5.9452,0.51953,0.68945,0.67059
2.544,0.29423,0.44184,5.5541,0.51953,0.67969,0.67059
2.552,0.28837,0.43109,5.0847,0.53906,0.67578,0.6549
2.56,0.28152,0.42131,4.498,0.54492,0.66992,0.65098
2.568,0.27566,0.41153,4.0678,0.55469,0.66406,0.6549
2.576,0.26979,0.40176,3.7158,0.57422,0.6543,0.62941
2.584,0.26393,0.39198,3.4029,0.57422,0.6543,0.62941
2.592,0.25806,0.38416,3.2073,0.55469,0.65039,0.64118
2.6,0.25318,0.37537,3.0117,0.53516,0.64453,0.6549
2.608,0.24829,0.36755,3.0117,0.50977,0.6543,0.67647
2.616,0.2434,0.36168,3.0117,0.4707,0.6543,0.69608
2.624,0.23851,0.35679,3.09,0.46094,0.66016,0.70588
2.632,0.2346,0.35093,3.09,0.43945,0.66016,0.7098
2.64,0.23167,0.34409,3.09,0.41602,0.66406,0.73137
2.648,0.22874,0.33627,3.09,0.41992,0.66406,0.72549
2.656,0.22581,0.32845,3.0117,0.42578,0.66406,0.71569
2.664,0.22385,0.3216,2.9335,0.41992,0.67578,0.73529
2.672,0.2219,0.31574,2.8944,0.41602,0.67578,0.73137
2.68,0.21896,0.30987,2.8944,0.41992,0.66992,0.73137
2.688,0.21701,0.30499,2.8944,0.41602,0.67578,0.72549
2.696,0.21408,0.3001,2.9335,0.41992,0.67578,0.74118
2.704,0.21114,0.29521,3.0117,0.42578,0.66992,0.72549
2.712,0.20919,0.29228,3.0117,0.41992,0.66406,0.72549
2.72,0.20723,0.28935,3.09,0.41992,0.66992,0.73137
2.728,0.20626,0.28446,3.09,0.42578,0.66992,0.72549
2.736,0.20528,0.27859,3.0117,0.42578,0.66992,0.73137
2.744,0.20332,0.27175,2.8944,0.43555,0.66406,0.72549
2.752,0.20235,0.26393,2.777,0.43945,0.66016,0.71569
2.76,0.20137,0.25806,2.6206,0.41992,0.66992,0.74118
2.768,0.19941,0.25122,2.5033,0.42578,0.66992,0.72549
2.776,0.19844,0.24536,2.4641,0.41992,0.66992,0.72157
2.784,0.19648,0.23949,2.4641,0.42969,0.67969,0.74118
2.792,0.1955,0.23265,2.5033,0.43945,0.69922,0.72549
2.8,0.19453,0.22678,2.6206,0.44922,0.7207,0.72157
2.808,0.19355,0.22092,2.8162,0.44922,0.72461,0.72157
2.816,0.19257,0.21799,3.09,0.45508,0.67969,0.70588
2.824,0.19159,0.21701,3.2073,0.43555,0.66016,0.72549
2.832,0.19159,0.21896,3.3246,0.42969,0.65039,0.73137
2.84,0.19062,0.22385,3.4029,0.43555,0.64062,0.72157
2.848,0.19062,0.23558,3.442,0.41992,0.64062,0.72549
2.856,0.18964,0.2522,3.5202,0.41602,0.64453,0.72549
2.864,0.18866,0.2737,3.5202,0.41016,0.64062,0.72549
2.872,0.18866,0.3001,3.442,0.42578,0.65039,0.71569
2.88,0.18866,0.33236,3.4029,0.42969,0.6543,0.72549
2.888,0.18866,0.36755,3.3246,0.41992,0.66016,0.73137
2.896,0.18866,0.40274,3.2073,0.41992,0.6543,0.72549
2.904,0.18768,0.43793,3.09,0.4043,0.66016,0.73529
2.912,0.18768,0.46823,3.0117,0.4043,0.6543,0.73137
2.92,0.18671,0.49658,2.9335,0.41016,0.6543,0.73529
2.928,0.18671,0.5259,2.8162,0.4043,0.66406,0.7451
2.936,0.18573,0.55523,2.6988,0.4043,0.67578,0.73529
2.944,0.18475,0.58358,2.5815,0.39062,0.69922,0.76667
2.952,0.18475,0.60899,2.5815,0.44922,0.67969,0.71569
2.96,0.18377,0.63148,2.6206,0.58008,0.61523,0.64118
2.968,0.1828,0.652,2.777,0.79492,0.50586,0.5
2.976,0.18182,0.66764,3.0117,0.91016,0.41016,0.41569
2.984,0.18084,0.68133,3.2464,0.73047,0.39453,0.52549
2.992,0.17986,0.69208,3.6375,0.5,0.49414,0.67059
3,0.17889,0.69892,3.9505,0.38086,0.57031,0.73529
3.008,0.17791,0.70381,4.2634,0.30078,0.63477,0.81176
3.016,0.17693,0.70479,4.4589,0.33984,0.66016,0.78039
3.024,0.17595,0.70283,4.5763,0.38477,0.67578,0.75098
3.032,0.17498,0.69892,4.5763,0.39453,0.68945,0.75098
3.04,0.17498,0.69404,4.6545,0.39062,0.69922,0.76078
3.048,0.17498,0.68719,4.6936,0.39062,0.69531,0.75098
3.056,0.17498,0.67742,4.7718,0.39453,0.69531,0.7549
3.064,0.174,0.66569,4.7718,0.39062,0.69922,0.76078
3.072,0.174,0.652,4.7718,0.39453,0.69922,0.75098
3.08,0.174,0.63734,4.7718,0.4043,0.67969,0.73529
3.088,0.17302,0.6217,4.7718,0.41602,0.68945,0.74118
3.096,0.17204,0.60411,4.8109,0.41016,0.68945,0.75098
3.104,0.17204,0.58456,4.8109,0.4043,0.68555,0.75098
3.112,0.17107,0.56794,4.7718,0.41992,0.67578,0.73529
3.12,0.17009,0.5523,4.7718,0.42578,0.67969,0.72549
3.128,0.17009,0.5347,4.7718,0.41992,0.68555,0.73137
3.136,0.17009,0.51711,4.7718,0.42578,0.67578,0.73529
3.144,0.17009,0.50049,4.8892,0.43945,0.67578,0.71569
3.152,0.17009,0.48289,5.2021,0.43945,0.67578,0.72549
3.16,0.17107,0.46725,5.515,0.43945,0.67578,0.71569
3.168,0.17204,0.45259,5.8279,0.46484,0.66992,0.70588
3.176,0.174,0.43988,6.0626,0.46484,0.66406,0.70588
3.184,0.17498,0.42717,6.0626,0.48438,0.66016,0.6902
3.192,0.17693,0.41447,5.8279,0.50977,0.6543,0.67647
3.2,0.17889,0.40371,5.3194,0.51562,0.6543,0.68039
3.208,0.18084,0.39296,4.6545,0.54492,0.65039,0.65098
3.216,0.18377,0.38319,3.8331,0.56055,0.64453,0.65098
3.224,0.18573,0.37537,3.09,0.58008,0.64062,0.6451
3.232,0.18866,0.36657,2.3859,0.57031,0.62891,0.64118
3.24,0.19062,0.35875,1.8774,0.58984,0.62891,0.63529
3.248,0.19355,0.35191,1.5254,0.5957,0.61523,0.62549
3.256,0.1955,0.34506,1.3299,0.58398,0.61914,0.63529
3.264,0.19746,0.33822,1.3299,0.58008,0.60547,0.64118
3.272,0.19941,0.33138,1.3299,0.58398,0.60938,0.62941
3.28,0.20137,0.32649,1.3299,0.54492,0.60938,0.6451
3.288,0.20332,0.3216,1.2516,0.51562,0.62891,0.68627
3.296,0.2043,0.31672,1.2125,0.4707,0.63477,0.71569
3.304,0.20528,0.31281,1.1343,0.4707,0.64453,0.7
3.312,0.20723,0.30987,1.1343,0.44531,0.65039,0.72157
3.32,0.20723,0.30694,1.1343,0.42969,0.64453,0.72549
3.328,0.20821,0.30303,1.2125,0.42578,0.64453,0.73529
3.336,0.20821,0.29814,1.2516,0.43555,0.65039,0.72157
3.344,0.20919,0.29228,1.3299,0.41602,0.6543,0.75098
3.352,0.20919,0.28543,1.4472,0.42969,0.65039,0.72549
3.36,0.21017,0.27859,1.5254,0.43555,0.6543,0.73137
3.368,0.21114,0.27273,1.6428,0.42969,0.6543,0.73137
3.376,0.21212,0.26784,1.8383,0.42578,0.6543,0.73529
3.384,0.21408,0.26393,2.073,0.42969,0.6543,0.73137
3.392,0.21603,0.26002,2.3859,0.42578,0.6543,0.7451
3.4,0.21701,0.25611,2.5815,0.43555,0.65039,0.72549
3.408,0.21896,0.25318,2.777,0.42578,0.6543,0.73137
3.416,0.2219,0.25024,3.0117,0.41992,0.65039,0.74118
3.424,0.22483,0.24829,3.2464,0.43555,0.64062,0.72157
3.432,0.22776,0.24536,3.5202,0.43945,0.64453,0.72157
3.44,0.23069,0.24145,3.8331,0.43945,0.6543,0.73137
3.448,0.23363,0.23754,4.146,0.43945,0.6543,0.72157
3.456,0.23656,0.23167,4.498,0.43945,0.6543,0.72549
3.464,0.23949,0.22581,4.8892,0.43945,0.66406,0.72157
3.472,0.24242,0.22092,5.1239,0.44922,0.68945,0.71569
3.48,0.24438,0.21603,5.4368,0.46094,0.69922,0.72549
3.488,0.24731,0.2131,5.7106,0.47461,0.66406,0.7
3.496,0.25024,0.21212,5.9452,0.46484,0.64062,0.70588
3.504,0.2522,0.21212,6.1408,0.45508,0.63477,0.7
3.512,0.25415,0.21505,6.2581,0.43945,0.61914,0.70588
3.52,0.25709,0.2219,6.3755,0.41992,0.60938,0.71569
3.528,0.25806,0.23363,6.3755,0.42578,0.61523,0.72157
3.536,0.26002,0.25122,6.3755,0.44531,0.61914,0.70588
3.544,0.261,0.27273,6.3364,0.44531,0.625,0.70588
3.552,0.26197,0.29912,6.1799,0.44922,0.63477,0.72157
3.56,0.26295,0.32942,6.0626,0.45508,0.62891,0.70588
3.568,0.26393,0.36266,6.0235,0.43945,0.62891,0.70588
3.576,0.26393,0.39785,6.0235,0.41992,0.63477,0.72549
3.584,0.26491,0.43304,6.1408,0.41992,0.63477,0.72549
3.592,0.26588,0.46823,6.3364,0.42578,0.62891,0.72549
3.6,0.26588,0.50147,6.4928,0.41992,0.62891,0.71569
3.608,0.26588,0.52884,6.6884,0.42578,0.64453,0.74118
3.616,0.26686,0.5523,6.9622,0.41992,0.66016,0.72157
3.624,0.26686,0.57576,7.1186,0.45508,0.66406,0.70588
3.632,0.26686,0.59726,7.3924,0.56445,0.60547,0.65098
3.64,0.26784,0.61681,7.588,0.7793,0.48438,0.5
3.648,0.26784,0.63245,7.7053,0.94531,0.38477,0.38431
3.656,0.26784,0.64516,7.94,0.79492,0.36523,0.46471
3.664,0.26784,0.65494,8.2138,0.55469,0.44531,0.61569
3.672,0.26784,0.66276,8.4485,0.41992,0.52539,0.6902
3.68,0.26784,0.66862,8.6832,0.33008,0.58984,0.76667
3.688,0.26784,0.67155,8.9961,0.35547,0.61914,0.7549
3.696,0.26784,0.67253,9.2699,0.39453,0.63477,0.73529
3.704,0.26882,0.67058,9.4654,0.41016,0.6543,0.73137
3.712,0.26979,0.66569,9.5046,0.40039,0.6543,0.72549
3.72,0.27077,0.65982,9.5046,0.41602,0.6543,0.72157
3.728,0.27175,0.652,9.5046,0.41992,0.66016,0.73137
3.736,0.2737,0.64223,9.5046,0.41992,0.6543,0.72549
3.744,0.27566,0.6305,9.5046,0.41992,0.66016,0.72157
3.752,0.27761,0.61681,9.5828,0.42969,0.66016,0.72549
3.76,0.28055,0.60215,9.6219,0.41992,0.66406,0.72549
3.768,0.2825,0.58651,9.7001,0.42969,0.6543,0.71569
3.776,0.28446,0.56989,9.7783,0.43945,0.66016,0.72549
3.784,0.28543,0.55327,9.8175,0.44531,0.6543,0.70588
3.792,0.28739,0.53666,9.8175,0.43945,0.6543,0.7098
3.8,0.28935,0.51906,9.8175,0.45508,0.6543,0.7
3.808,0.29228,0.5044,9.8957,0.44922,0.64062,0.7
3.816,0.29423,0.49267,10.013,0.45508,0.63477,0.70588
3.824,0.29717,0.47898,10.209,0.46484,0.63477,0.69608
3.832,0.3001,0.46628,10.443,0.48047,0.65039,0.6902
3.84,0.30303,0.45357,10.756,0.49023,0.64453,0.68039
3.848,0.30499,0.44086,11.069,0.5,0.64062,0.68039
3.856,0.30792,0.42913,11.265,0.50977,0.62891,0.67059
3.864,0.31183,0.41838,11.382,0.52539,0.62891,0.66078
3.872,0.31574,0.4086,11.382,0.55078,0.62891,0.6451
3.88,0.31965,0.40078,11.147,0.55469,0.61523,0.65098
3.888,0.32454,0.39296,10.756,0.60547,0.60547,0.60588
3.896,0.32942,0.38514,10.326,0.61523,0.60938,0.59608
3.904,0.33529,0.37634,9.9348,0.61914,0.58984,0.58431
3.912,0.34018,0.3695,9.5828,0.61523,0.5957,0.60588
3.92,0.34604,0.36364,9.3872,0.6543,0.60547,0.58431
3.928,0.34995,0.35679,9.2699,0.64062,0.58398,0.59608
3.936,0.35484,0.34995,9.2699,0.62891,0.58008,0.5902
3.944,0.35973,0.34409,9.2699,0.60938,0.58008,0.6098
3.952,0.36364,0.33822,9.2699,0.5957,0.58008,0.61569
3.96,0.36755,0.33431,9.2699,0.56055,0.58008,0.62941
3.968,0.37243,0.3304,9.2699,0.53906,0.5957,0.65098
3.976,0.37634,0.32747,9.2699,0.51953,0.60547,0.66471
3.984,0.38123,0.32356,9.1525,0.51562,0.60547,0.67647
3.992,0.38416,0.32063,9.0743,0.50586,0.59961,0.67059
4,0.38807,0.31769,8.957,0.49414,0.60938,0.6902
4.008,0.39198,0.31574,8.8787,0.5,0.60547,0.66471
4.016,0.39492,0.31378,8.8396,0.49414,0.60938,0.68039
4.024,0.39785,0.31085,8.8396,0.5,0.61523,0.67647
4.032,0.40176,0.3089,8.8787,0.50586,0.61523,0.68039
4.04,0.40469,0.30694,8.8787,0.5,0.625,0.69608
4.048,0.40762,0.30499,8.957,0.50586,0.61523,0.67647
4.056,0.40958,0.30303,8.957,0.5,0.60938,0.68039
4.064,0.41251,0.3001,8.9961,0.51562,0.61523,0.67647
4.072,0.41544,0.29717,9.0743,0.50977,0.61523,0.68039
4.08,0.4174,0.29521,9.1525,0.51953,0.61914,0.66471
4.088,0.42033,0.2913,9.2699,0.5293,0.61523,0.6549
4.096,0.42229,0.28837,9.3872,0.50977,0.61914,0.67647
4.104,0.42522,0.28446,9.5046,0.51562,0.61523,0.66471
4.112,0.42717,0.2825,9.6219,0.5293,0.60938,0.6549
4.12,0.42913,0.28055,9.7001,0.52539,0.625,0.66471
4.128,0.43206,0.27664,9.7783,0.5293,0.64062,0.66471
4.136,0.43402,0.27273,9.8175,0.54492,0.66992,0.66078
4.144,0.43597,0.26882,9.8175,0.53906,0.66406,0.6549
4.152,0.43793,0.26588,9.7783,0.54492,0.62891,0.6549
4.16,0.44086,0.26295,9.7783,0.53516,0.60938,0.6549
4.168,0.44282,0.26197,9.7783,0.52539,0.60547,0.66078
4.176,0.44477,0.26295,9.7001,0.50977,0.59961,0.6549
4.184,0.44673,0.26784,9.7001,0.49414,0.60547,0.67647
4.192,0.44868,0.27859,9.7001,0.48438,0.59961,0.67059
4.2,0.45064,0.29326,9.7783,0.49414,0.60547,0.68627
4.208,0.45259,0.31183,9.8175,0.50977,0.59961,0.67059
4.216,0.45455,0.33236,9.8957,0.50977,0.60547,0.66471
4.224,0.45552,0.35875,9.8957,0.50586,0.60547,0.67647
4.232,0.4565,0.39101,9.9348,0.49023,0.60547,0.68039
4.24,0.45748,0.42522,9.9348,0.46484,0.60938,0.69608
4.248,0.45846,0.46139,9.9348,0.48438,0.62891,0.70588
4.256,0.45943,0.49658,9.9348,0.49023,0.625,0.68039
4.264,0.45943,0.53079,9.8957,0.47461,0.625,0.6902
4.272,0.46041,0.56305,9.8957,0.49023,0.62891,0.6902
4.28,0.46139,0.59433,9.8957,0.4707,0.64062,0.7
4.288,0.46139,0.62268,9.8957,0.49414,0.65039,0.70588
4.296,0.46237,0.64907,9.8957,0.60547,0.5957,0.61569
4.304,0.46334,0.67155,9.9348,0.79883,0.5,0.50588
4.312,0.46432,0.68817,10.013,0.96875,0.38086,0.38039
4.32,0.4653,0.70088,10.13,0.82031,0.3457,0.43922
4.328,0.4653,0.71359,10.248,0.56445,0.4043,0.6
4.336,0.46628,0.72434,10.404,0.42969,0.5,0.6902
4.344,0.46725,0.73314,10.521,0.39062,0.53906,0.72157
4.352,0.46725,0.739,10.717,0.42578,0.58398,0.7098
4.36,0.46823,0.74194,10.834,0.46094,0.625,0.70588
4.368,0.47019,0.74291,10.952,0.46484,0.65039,0.69608
4.376,0.47116,0.74194,11.147,0.46094,0.6543,0.7098
4.384,0.47214,0.73803,11.186,0.4707,0.65039,0.70588
4.392,0.47312,0.73118,11.265,0.46484,0.66016,0.7
4.4,0.47507,0.72141,11.265,0.46484,0.6543,0.70588
4.408,0.47605,0.71065,11.186,0.4707,0.66016,0.7098
4.416,0.47703,0.69795,11.186,0.48438,0.6543,0.6902
4.424,0.47801,0.68328,11.186,0.48438,0.66016,0.70588
4.432,0.47801,0.66764,11.147,0.48438,0.66016,0.7
4.44,0.47898,0.652,11.147,0.48438,0.6543,0.69608
4.448,0.47996,0.63441,11.147,0.49414,0.6543,0.68627
4.456,0.48094,0.61975,11.147,0.49023,0.65039,0.7
4.464,0.48289,0.60606,11.069,0.49023,0.63477,0.68039
4.472,0.48289,0.5914,11.069,0.49414,0.6543,0.6902
4.48,0.48387,0.57576,11.147,0.51562,0.6543,0.68039
4.488,0.48485,0.56109,11.186,0.51562,0.65039,0.67647
4.496,0.48485,0.54643,11.343,0.51562,0.6543,0.66471
4.504,0.48583,0.53177,11.343,0.52539,0.65039,0.67647
4.512,0.48583,0.52004,11.343,0.53516,0.65039,0.66078
4.52,0.48583,0.50831,11.265,0.55078,0.64453,0.65098
4.528,0.48583,0.49756,11.343,0.54492,0.64062,0.64118
4.536,0.48583,0.48583,11.382,0.58398,0.64453,0.63529
4.544,0.48583,0.47507,11.46,0.5957,0.62891,0.62941
4.552,0.48583,0.4653,11.382,0.61523,0.625,0.60588
4.56,0.48485,0.4565,11.382,0.64062,0.62891,0.59608
4.568,0.48485,0.4477,11.265,0.6543,0.61914,0.5902
4.576,0.48485,0.43988,11.186,0.6543,0.625,0.6
4.584,0.48485,0.43206,11.069,0.66016,0.60938,0.5902
4.592,0.48387,0.42522,11.03,0.66016,0.59961,0.58431
4.6,0.48387,0.41935,10.952,0.65039,0.58984,0.58431
4.608,0.48387,0.41349,10.874,0.61914,0.58398,0.59608
4.616,0.48289,0.4086,10.834,0.60547,0.59961,0.61569
4.624,0.48289,0.40274,10.874,0.58398,0.60547,0.62941
4.632,0.48192,0.39687,10.874,0.56445,0.59961,0.63529
4.64,0.48192,0.39101,10.952,0.53516,0.60547,0.66078
4.648,0.48094,0.38514,11.03,0.51562,0.60938,0.68039
4.656,0.48094,0.38025,11.03,0.50977,0.60938,0.67647
4.664,0.47898,0.37537,11.03,0.49414,0.61523,0.67059
4.672,0.47801,0.37048,11.03,0.49414,0.61523,0.68039
4.68,0.47507,0.36559,11.069,0.50586,0.60938,0.67059
4.688,0.47312,0.3607,11.069,0.5,0.60547,0.66471
4.696,0.47116,0.35679,11.147,0.49414,0.60938,0.67647
4.704,0.46921,0.35288,11.147,0.50977,0.62891,0.68627
4.712,0.46725,0.35093,11.186,0.5,0.61914,0.67647
4.72,0.4653,0.348,11.265,0.51562,0.61523,0.66471
4.728,0.46334,0.34506,11.343,0.51562,0.62891,0.67647
4.736,0.46237,0.34115,11.343,0.50586,0.625,0.68039
4.744,0.45943,0.33724,11.382,0.51562,0.61914,0.67647
4.752,0.45748,0.33431,11.46,0.51562,0.61523,0.68039
4.76,0.4565,0.3304,11.499,0.49414,0.625,0.68627
4.768,0.45455,0.32747,11.499,0.49414,0.62891,0.69608
4.776,0.45259,0.32356,11.656,0.50586,0.60938,0.6549
4.784,0.45161,0.31965,11.695,0.51562,0.625,0.67059
4.792,0.45064,0.31574,11.773,0.52539,0.63477,0.66471
4.8,0.44868,0.31183,11.695,0.51953,0.6543,0.67059
4.808,0.4477,0.30987,11.695,0.5293,0.66406,0.66471
4.816,0.44673,0.3089,11.773,0.53516,0.65039,0.6549
4.824,0.44575,0.30694,11.773,0.52539,0.625,0.66078
4.832,0.44575,0.30792,11.773,0.51562,0.60938,0.6549
4.84,0.44477,0.31085,11.695,0.51953,0.60938,0.67059
4.848,0.44379,0.31769,11.656,0.49023,0.60547,0.67647
4.856,0.44282,0.32942,11.578,0.47461,0.60547,0.6902
4.864,0.44282,0.34604,11.499,0.48047,0.60547,0.68039
4.872,0.44184,0.36755,11.46,0.49023,0.60547,0.67647
4.88,0.44086,0.39394,11.46,0.49414,0.60938,0.67647
4.888,0.44086,0.42229,11.46,0.5,0.60938,0.67647
4.896,0.43988,0.45455,11.46,0.49023,0.60547,0.66471
4.904,0.43988,0.4868,11.46,0.5,0.60938,0.68039
4.912,0.43891,0.51417,11.499,0.48438,0.61914,0.68627
4.92,0.43891,0.53959,11.499,0.49023,0.62891,0.68039
4.928,0.43793,0.56696,11.46,0.48047,0.62891,0.69608
4.936,0.43793,0.59433,11.382,0.49023,0.62891,0.68627
4.944,0.43695,0.61975,11.382,0.4707,0.63477,0.6902
4.952,0.43695,0.64321,11.343,0.47461,0.66016,0.70588
4.96,0.43597,0.66373,11.265,0.50977,0.64453,0.67647
4.968,0.43597,0.68328,11.265,0.65039,0.57031,0.58039
4.976,0.435,0.6999,11.186,0.86523,0.46094,0.4549
4.984,0.435,0.71554,11.265,0.96484,0.35547,0.37059
4.992,0.43597,0.72825,11.265,0.70898,0.3457,0.50588
5,0.43597,0.73998,11.265,0.51562,0.42969,0.62941
5.008,0.43695,0.74682,11.265,0.4043,0.5,0.70588
5.016,0.43695,0.75073,11.343,0.39453,0.55469,0.71569
5.024,0.43695,0.75464,11.382,0.44531,0.59961,0.70588
5.032,0.43793,0.75562,11.499,0.46484,0.63477,0.7
5.04,0.43793,0.75464,11.656,0.46094,0.6543,0.70588
5.048,0.43793,0.75171,11.773,0.44922,0.66016,0.7098
5.056,0.43891,0.74585,11.89,0.46094,0.66406,0.70588
5.064,0.43988,0.73803,12.008,0.46484,0.66016,0.70588
5.072,0.44086,0.72825,12.086,0.46484,0.66406,0.70588
5.08,0.44184,0.71652,12.125,0.46484,0.6543,0.70588
5.088,0.44282,0.70381,12.125,0.46094,0.66406,0.7098
5.096,0.44477,0.68915,12.203,0.4707,0.66406,0.70588
5.104,0.44575,0.67351,12.203,0.47461,0.66406,0.70588
5.112,0.4477,0.65885,12.203,0.46484,0.66992,0.70588
5.12,0.44868,0.64516,12.282,0.48047,0.66406,0.6902
5.128,0.45064,0.62952,12.203,0.48438,0.66016,0.68627
5.136,0.45259,0.6129,12.203,0.48438,0.66016,0.6902
5.144,0.45357,0.59629,12.203,0.49023,0.6543,0.68627
5.152,0.45552,0.57967,12.282,0.49414,0.66016,0.68039
5.16,0.45748,0.56403,12.282,0.50586,0.66406,0.68039
5.168,0.45943,0.54839,12.321,0.50977,0.66016,0.68039
5.176,0.46041,0.5347,12.321,0.52539,0.6543,0.66471
5.184,0.46139,0.52199,12.282,0.53516,0.66016,0.66078
5.192,0.46237,0.50929,12.282,0.55078,0.66406,0.67059
5.2,0.46334,0.49658,12.321,0.56445,0.64062,0.62941
5.208,0.46432,0.4868,12.321,0.56055,0.63477,0.63529
5.216,0.46432,0.47801,12.399,0.58984,0.6543,0.64118
5.224,0.46432,0.46921,12.321,0.61523,0.64453,0.61961
5.232,0.4653,0.46041,12.203,0.625,0.62891,0.6098
5.24,0.4653,0.45161,12.008,0.62891,0.62891,0.6098
5.248,0.4653,0.44282,11.812,0.63477,0.625,0.59608
5.256,0.4653,0.43402,11.695,0.64453,0.61914,0.5902
5.264,0.4653,0.42717,11.578,0.64062,0.60938,0.59608
5.272,0.4653,0.41935,11.499,0.62891,0.60547,0.6
5.28,0.4653,0.41251,11.46,0.60547,0.61914,0.61569
5.288,0.46432,0.40567,11.46,0.58008,0.60938,0.62549
5.296,0.46432,0.39883,11.46,0.55469,0.61914,0.6451
5.304,0.46432,0.39394,11.46,0.53516,0.61523,0.6451
5.312,0.46432,0.39003,11.499,0.51562,0.60938,0.66471
5.32,0.46334,0.38514,11.578,0.5,0.63477,0.68039
5.328,0.46334,0.37928,11.578,0.49023,0.62891,0.68627
5.336,0.46334,0.37439,11.656,0.48047,0.625,0.68627
5.344,0.46334,0.3695,11.695,0.49023,0.64062,0.7
5.352,0.46237,0.36364,11.773,0.48438,0.62891,0.6902
5.36,0.46237,0.35875,11.773,0.49023,0.62891,0.6902
5.368,0.46139,0.35386,11.812,0.49023,0.625,0.68039
5.376,0.46139,0.34897,11.89,0.49023,0.625,0.68039
5.384,0.46139,0.34409,12.008,0.48047,0.62891,0.68627
5.392,0.46041,0.33822,12.086,0.48047,0.62891,0.7
5.4,0.46041,0.33333,12.086,0.48438,0.625,0.68039
5.408,0.45943,0.32942,12.125,0.49023,0.62891,0.67059
5.416,0.45943,0.32649,12.203,0.5,0.63477,0.68039
5.424,0.45846,0.32258,12.282,0.50586,0.6543,0.68039
5.432,0.45846,0.31867,12.282,0.48047,0.67969,0.70588
5.44,0.45846,0.31476,12.321,0.5,0.68555,0.68039
5.448,0.45748,0.31183,12.399,0.49023,0.65039,0.68627
5.456,0.45748,0.3089,12.399,0.48047,0.64062,0.69608
5.464,0.4565,0.30596,12.399,0.47461,0.62891,0.69608
5.472,0.45552,0.30303,12.399,0.46484,0.63477,0.69608
5.48,0.45357,0.3001,12.321,0.47461,0.62891,0.68039
5.488,0.45259,0.29717,12.321,0.4707,0.64453,0.70588
5.496,0.45161,0.29619,12.321,0.46484,0.65039,0.70588
5.504,0.44966,0.29717,12.282,0.46094,0.64453,0.70588
5.512,0.44868,0.30108,12.282,0.44531,0.66406,0.7098
5.52,0.4477,0.3089,12.203,0.43555,0.67969,0.72549
5.528,0.44673,0.32258,12.203,0.50977,0.63477,0.67647
5.536,0.44575,0.34018,12.125,0.71484,0.51562,0.53529
5.544,0.44477,0.36266,12.086,0.92969,0.37109,0.38431
5.552,0.44379,0.38905,12.086,0.94922,0.30469,0.35882
5.56,0.44282,0.41838,12.008,0.55469,0.39453,0.59608
5.568,0.44282,0.44966,12.008,0.39453,0.49414,0.69608
5.576,0.44184,0.48192,12.008,0.38086,0.53906,0.7098
5.584,0.44086,0.51417,12.125,0.43945,0.5957,0.69608
5.592,0.43988,0.54448,12.125,0.44531,0.65039,0.7098
5.6,0.43891,0.57283,12.203,0.43555,0.66992,0.72157
5.608,0.43891,0.59726,12.282,0.42969,0.67578,0.72549
5.616,0.43793,0.61779,12.282,0.43555,0.67578,0.71569
5.624,0.43695,0.6393,12.321,0.42969,0.67969,0.72549
5.632,0.43695,0.6608,12.321,0.43555,0.68945,0.72549
5.64,0.43695,0.6784,12.399,0.42969,0.67578,0.72157
5.648,0.43793,0.69501,12.516,0.44531,0.66992,0.70588
5.656,0.43793,0.7087,12.634,0.44922,0.67969,0.72549
5.664,0.43891,0.71945,12.751,0.43945,0.66992,0.7098
5.672,0.43891,0.72727,12.947,0.45508,0.66406,0.70588
5.68,0.43988,0.73216,13.064,0.46484,0.66992,0.70588
5.688,0.44086,0.73607,13.181,0.44922,0.67578,0.71569
5.696,0.44086,0.73705,13.181,0.46484,0.67578,0.72157
5.704,0.44086,0.73607,13.181,0.4707,0.66992,0.70588
5.712,0.44184,0.73314,13.181,0.48047,0.67578,0.6902
5.72,0.44184,0.72923,13.259,0.48438,0.67578,0.7
5.728,0.44282,0.72336,13.338,0.49023,0.66992,0.68039
5.736,0.44282,0.71652,13.338,0.5,0.66406,0.68039
5.744,0.44379,0.70577,13.259,0.51562,0.66406,0.67059
5.752,0.44379,0.69404,13.142,0.5293,0.67578,0.66078
5.76,0.44477,0.67937,13.025,0.53906,0.66992,0.6549
5.768,0.44477,0.66471,12.947,0.55469,0.67969,0.66078
5.776,0.44477,0.64712,12.947,0.57422,0.67578,0.64118
5.784,0.44575,0.62952,12.947,0.58398,0.66406,0.62549
5.792,0.44575,0.61193,12.907,0.5957,0.66016,0.62941
5.8,0.44673,0.59335,12.751,0.59961,0.6543,0.61961
5.808,0.4477,0.57771,12.634,0.60547,0.6543,0.62549
5.816,0.44868,0.56305,12.516,0.60938,0.65039,0.61569
5.824,0.44966,0.54741,12.399,0.5957,0.64062,0.61961
5.832,0.45064,0.53177,12.321,0.58398,0.62891,0.62549
5.84,0.45161,0.51711,12.282,0.57031,0.62891,0.62941
5.848,0.45161,0.50244,12.203,0.53906,0.625,0.6451
5.856,0.45259,0.48778,12.125,0.51953,0.62891,0.66078
5.864,0.45259,0.47605,12.086,0.49414,0.63477,0.68039
5.872,0.45259,0.46432,12.125,0.48047,0.64062,0.69608
5.88,0.45259,0.45357,12.125,0.46484,0.64062,0.70588
5.888,0.45259,0.44477,12.203,0.46094,0.63477,0.7
5.896,0.45259,0.43695,12.203,0.46484,0.64062,0.69608
5.904,0.45259,0.43109,12.203,0.45508,0.64453,0.69608
5.912,0.45259,0.42522,12.203,0.46094,0.65039,0.70588
5.92,0.45161,0.41935,12.125,0.46484,0.6543,0.70588
5.928,0.45161,0.41251,12.008,0.45508,0.65039,0.70588
5.936,0.45064,0.40665,11.812,0.46484,0.64453,0.7
5.944,0.45064,0.3998,11.656,0.46094,0.65039,0.70588
5.952,0.44966,0.39394,11.46,0.46484,0.6543,0.70588
5.96,0.44966,0.38807,11.186,0.46094,0.6543,0.70588
5.968,0.44868,0.38319,10.952,0.46484,0.6543,0.7
5.976,0.44868,0.3783,10.717,0.44531,0.65039,0.70588
5.984,0.4477,0.37439,10.521,0.44922,0.6543,0.70588
5.992,0.44673,0.3695,10.326,0.43945,0.66406,0.7098
6,0.44575,0.36461,10.091,0.44531,0.66016,0.7098
6.008,0.44575,0.3607,9.8175,0.43555,0.6543,0.71569
6.016,0.44477,0.35679,9.5828,0.43555,0.66016,0.7098
6.024,0.44379,0.35386,9.3872,0.42969,0.66406,0.72549
6.032,0.44282,0.34897,9.2699,0.43555,0.66406,0.72157
6.04,0.44184,0.34409,9.1525,0.42578,0.66016,0.72549
6.048,0.44086,0.3392,8.957,0.41992,0.66406,0.72549
6.056,0.43891,0.33529,8.8396,0.42578,0.66992,0.72549
6.064,0.43695,0.33236,8.6441,0.41992,0.67578,0.73137
6.072,0.435,0.33236,8.4485,0.41992,0.66406,0.72157
6.08,0.43304,0.33724,8.2529,0.41992,0.67578,0.73529
6.088,0.43011,0.34506,8.1356,0.41602,0.67578,0.73137
6.096,0.42815,0.35777,7.94,0.41602,0.67578,0.72549
6.104,0.42424,0.37243,7.7053,0.41602,0.67969,0.73529
6.112,0.42131,0.39003,7.5098,0.41602,0.67578,0.73137
6.12,0.41642,0.41251,7.3924,0.41016,0.67578,0.73529
6.128,0.41153,0.43891,7.1969,0.41992,0.67969,0.72549
6.136,0.40469,0.46725,7.0795,0.42578,0.67578,0.72157
6.144,0.39883,0.49658,6.884,0.41992,0.69531,0.72549
6.152,0.39101,0.52493,6.7666,0.42578,0.7207,0.72157
6.16,0.38319,0.5523,6.571,0.42969,0.74023,0.72549
6.168,0.37537,0.57674,6.3755,0.43945,0.70898,0.71569
6.176,0.36755,0.6002,6.1799,0.42969,0.67969,0.72157
6.184,0.3607,0.62072,6.0626,0.42578,0.67578,0.71569
6.192,0.35386,0.6393,5.9452,0.41992,0.66992,0.72549
6.2,0.34506,0.65494,5.8279,0.41016,0.66016,0.72549
6.208,0.33724,0.66569,5.7106,0.40039,0.6543,0.72549
6.216,0.32845,0.67351,5.5541,0.41016,0.65039,0.73137
6.224,0.31965,0.68035,5.515,0.41602,0.66016,0.73137
6.232,0.31085,0.68426,5.4368,0.42578,0.66406,0.72157
6.24,0.30205,0.68719,5.3194,0.41992,0.66992,0.72549
6.248,0.29326,0.68817,5.3194,0.41992,0.66992,0.72157
6.256,0.28543,0.68719,5.3194,0.40039,0.67578,0.73529
6.264,0.27664,0.68426,5.3194,0.4043,0.68555,0.7451
6.272,0.26882,0.68035,5.2412,0.41016,0.67969,0.74118
6.28,0.261,0.67449,5.2412,0.4043,0.67969,0.7451
6.288,0.25415,0.66569,5.2021,0.41016,0.68555,0.74118
6.296,0.24633,0.65494,5.1239,0.4043,0.70508,0.75098
6.304,0.23949,0.64321,5.0847,0.40039,0.71484,0.7549
6.312,0.23265,0.6305,5.0065,0.53516,0.65039,0.6549
6.32,0.22581,0.61681,4.9674,0.72461,0.55078,0.53529
6.328,0.21994,0.60215,4.8892,0.86914,0.44531,0.43529
6.336,0.21505,0.58553,4.8892,0.75,0.41016,0.4902
6.344,0.21114,0.56891,5.0065,0.53516,0.47461,0.63529
6.352,0.20723,0.5523,5.3194,0.39062,0.56055,0.73137
6.36,0.2043,0.5347,5.8279,0.32031,0.60938,0.78039
6.368,0.20137,0.51808,6.3755,0.3457,0.65039,0.77059
6.376,0.19844,0.50244,6.884,0.375,0.67969,0.76078
6.384,0.1955,0.4868,7.2751,0.39062,0.69922,0.7451
6.392,0.19355,0.47214,7.4315,0.4043,0.70508,0.74118
6.4,0.19062,0.45846,7.588,0.39453,0.70898,0.75098
6.408,0.18866,0.44673,7.588,0.39453,0.70898,0.7549
6.416,0.18671,0.43695,7.5098,0.39453,0.70508,0.74118
6.424,0.18573,0.4262,7.5098,0.4043,0.69922,0.73529
6.432,0.18377,0.41642,7.3924,0.4043,0.70508,0.75098
6.44,0.18377,0.40665,7.1186,0.41016,0.69922,0.7451
6.448,0.1828,0.39785,6.9622,0.41602,0.69922,0.74118
6.456,0.18182,0.39003,6.7666,0.41992,0.70508,0.74118
6.464,0.18084,0.38221,6.571,0.41016,0.69922,0.7451
6.472,0.17986,0.37439,6.3364,0.41602,0.69922,0.75098
6.48,0.17889,0.36657,6.0235,0.42578,0.69922,0.72157
6.488,0.17791,0.35875,5.8279,0.42969,0.69922,0.71569
6.496,0.17693,0.35191,5.6323,0.43945,0.69531,0.72549
6.504,0.17595,0.3392,5.6323,0.43555,0.69531,0.72549
6.512,0.17498,0.32356,5.6323,0.43945,0.69922,0.73137
6.52,0.174,0.31281,5.7106,0.44922,0.68945,0.70588
6.528,0.17302,0.30401,5.7106,0.46484,0.68555,0.70588
6.536,0.17204,0.29619,5.7106,0.49023,0.68555,0.6902
6.544,0.17204,0.28837,5.5541,0.49023,0.67969,0.68627
6.552,0.17107,0.2825,5.3194,0.50586,0.67578,0.6902
6.56,0.17107,0.27664,5.0065,0.53516,0.66406,0.6549
6.568,0.17107,0.27077,4.5763,0.54492,0.66406,0.65098
6.576,0.17009,0.26588,4.146,0.56445,0.6543,0.63529
6.584,0.17009,0.26002,3.6375,0.58398,0.6543,0.63529
6.592,0.16911,0.25415,3.2464,0.58984,0.64453,0.62941
6.6,0.16813,0.24927,3.0117,0.59961,0.62891,0.61961
6.608,0.16618,0.24536,2.8162,0.60547,0.62891,0.61569
6.616,0.16618,0.24145,2.777,0.61523,0.625,0.6098
6.624,0.1652,0.23851,2.6206,0.60547,0.625,0.61569
6.632,0.1652,0.2346,2.5815,0.58398,0.62891,0.62941
6.64,0.16422,0.23069,2.4641,0.55469,0.62891,0.6451
6.648,0.16422,0.22678,2.3077,0.5293,0.63477,0.6549
6.656,0.16422,0.22287,2.2686,0.5,0.64453,0.68039
6.664,0.16325,0.21799,2.1903,0.48438,0.65039,0.69608
6.672,0.16325,0.21408,2.1512,0.46484,0.6543,0.70588
6.68,0.16227,0.21017,2.073,0.46094,0.66016,0.70588
6.688,0.16129,0.20626,2.073,0.43945,0.66016,0.72157
6.696,0.16129,0.20235,2.1903,0.44531,0.66016,0.71569
6.704,0.16031,0.20039,2.3077,0.44531,0.66016,0.71569
6.712,0.16031,0.19941,2.4641,0.44531,0.66406,0.71569
6.72,0.16031,0.19746,2.6206,0.43555,0.66406,0.72549
6.728,0.16031,0.19648,2.777,0.43945,0.66016,0.7098
6.736,0.16031,0.1955,2.8162,0.44922,0.66992,0.71569
6.744,0.16129,0.19355,2.777,0.44922,0.66406,0.72157
6.752,0.16129,0.19257,2.777,0.44531,0.66406,0.7098
6.76,0.16227,0.19062,2.8162,0.44531,0.66992,0.72157
6.768,0.16325,0.18866,2.9335,0.44922,0.66406,0.72157
6.776,0.16325,0.18768,3.1291,0.45508,0.66016,0.7098
6.784,0.16422,0.18573,3.4029,0.44531,0.66406,0.72549
6.792,0.1652,0.18377,3.7158,0.44531,0.66016,0.72157
6.8,0.16618,0.18084,4.0287,0.43945,0.66406,0.72157
6.808,0.16716,0.17986,4.3416,0.44531,0.66406,0.72157
6.816,0.16813,0.17889,4.5763,0.44531,0.66406,0.72157
6.824,0.16911,0.17693,4.7718,0.44922,0.66992,0.72549
6.832,0.17009,0.17498,4.9674,0.46484,0.67578,0.7098
6.84,0.17107,0.17302,5.1239,0.45508,0.69531,0.72157
6.848,0.17204,0.17204,5.3194,0.45508,0.70898,0.72157
6.856,0.174,0.17302,5.4368,0.46484,0.69531,0.7098
6.864,0.17498,0.17791,5.515,0.47461,0.66406,0.70588
6.872,0.17595,0.18768,5.3976,0.45508,0.6543,0.7098
6.88,0.17693,0.20235,5.1239,0.44922,0.65039,0.7098
6.888,0.17791,0.22385,4.8109,0.43945,0.64453,0.71569
6.896,0.17889,0.24927,4.3807,0.43555,0.64453,0.72549
6.904,0.17986,0.27566,3.8722,0.42969,0.63477,0.72549
6.912,0.18084,0.30401,3.4029,0.43945,0.64062,0.71569
6.92,0.18182,0.33724,2.9335,0.44531,0.65039,0.70588
6.928,0.1828,0.37341,2.6206,0.43555,0.6543,0.72549
6.936,0.18377,0.40958,2.5033,0.43945,0.64062,0.70588
6.944,0.18475,0.44575,2.4641,0.43555,0.64453,0.72157
6.952,0.18475,0.47996,2.4641,0.42578,0.6543,0.73529
6.96,0.18475,0.51124,2.5033,0.41992,0.65039,0.73137
6.968,0.18475,0.53959,2.5815,0.42578,0.66406,0.7451
6.976,0.18475,0.56598,2.6206,0.41992,0.66016,0.73137
6.984,0.18573,0.58847,2.6206,0.41992,0.67578,0.74118
6.992,0.18573,0.60802,2.6206,0.42578,0.69531,0.7451
7,0.18671,0.62463,2.5815,0.50977,0.6543,0.6902
7.008,0.18768,0.63734,2.5815,0.68555,0.56445,0.58039
7.016,0.18768,0.64516,2.5815,0.88867,0.46094,0.43922
7.024,0.18866,0.65298,2.6988,0.92383,0.40039,0.40392
7.032,0.18964,0.65689,2.8162,0.64453,0.43945,0.58039
7.04,0.19062,0.65787,3.09,0.47461,0.52539,0.6902
7.048,0.19062,0.65689,3.4029,0.33594,0.59961,0.77647
7.056,0.19159,0.65298,3.7158,0.30469,0.64062,0.79608
7.064,0.19257,0.64712,4.146,0.37109,0.6543,0.76078
7.072,0.19355,0.63832,4.498,0.40039,0.66992,0.7451
7.08,0.19355,0.62854,4.8109,0.39453,0.67969,0.75098
7.088,0.19453,0.61681,5.0847,0.40039,0.67969,0.75098
7.096,0.1955,0.60313,5.2412,0.39453,0.67578,0.7451
7.104,0.19648,0.59042,5.3976,0.41016,0.68555,0.75098
7.112,0.19648,0.57674,5.3976,0.41602,0.67578,0.74118
7.12,0.19746,0.56109,5.3976,0.41992,0.67969,0.73137
7.128,0.19844,0.54448,5.3976,0.41992,0.67969,0.7451
7.136,0.19941,0.52786,5.3194,0.41992,0.67969,0.74118
7.144,0.19941,0.51124,5.3194,0.42578,0.67578,0.73137
7.152,0.20039,0.49462,5.3194,0.42969,0.67578,0.72549
7.16,0.20235,0.47996,5.2412,0.42969,0.66992,0.72549
7.168,0.20332,0.4653,5.3194,0.43945,0.66992,0.72157
7.176,0.20528,0.45259,5.3976,0.44531,0.67578,0.72549
7.184,0.20723,0.44086,5.5541,0.44922,0.66992,0.71569
7.192,0.20919,0.43011,5.8279,0.44531,0.67578,0.72157
7.2,0.21114,0.42033,6.2581,0.44922,0.66016,0.72157
7.208,0.2131,0.41153,6.7666,0.4707,0.66406,0.7098
7.216,0.21505,0.40274,7.1186,0.48047,0.6543,0.7
7.224,0.21701,0.39394,7.2751,0.49023,0.6543,0.6902
7.232,0.21994,0.38416,7.1969,0.50977,0.6543,0.68627
7.24,0.2219,0.37537,6.884,0.51562,0.64062,0.67647
7.248,0.22483,0.36755,6.3364,0.53516,0.63477,0.6549
7.256,0.22776,0.35973,5.6323,0.56055,0.62891,0.6451
7.264,0.23069,0.35288,4.9674,0.58008,0.625,0.63529
7.272,0.23363,0.34702,4.4589,0.58984,0.61914,0.63529
7.28,0.23656,0.34115,4.0678,0.60547,0.60938,0.61961
7.288,0.23949,0.33529,3.8331,0.60547,0.60547,0.61961
7.296,0.24145,0.32942,3.7158,0.625,0.5957,0.6
7.304,0.2434,0.32649,3.7158,0.61523,0.58984,0.60588
7.312,0.24633,0.32356,3.5593,0.60547,0.58984,0.6098
7.32,0.24731,0.31965,3.442,0.58008,0.59961,0.62549
7.328,0.24927,0.31574,3.3246,0.55078,0.60547,0.66078
7.336,0.25024,0.31183,3.2073,0.5293,0.61523,0.66078
7.344,0.25122,0.30792,3.09,0.5,0.625,0.68039
7.352,0.2522,0.30401,3.09,0.48047,0.625,0.68039
7.36,0.25318,0.3001,3.2073,0.4707,0.62891,0.6902
7.368,0.25318,0.29521,3.442,0.46484,0.64453,0.70588
7.376,0.25415,0.29032,3.7549,0.44922,0.64062,0.7098
7.384,0.25513,0.28543,4.0678,0.45508,0.64453,0.71569
7.392,0.25513,0.28055,4.3807,0.44922,0.63477,0.70588
7.4,0.25513,0.27761,4.6545,0.44922,0.64453,0.71569
7.408,0.25611,0.27468,4.9674,0.44922,0.64062,0.7098
7.416,0.25709,0.27175,5.2412,0.45508,0.64062,0.7098
7.424,0.25806,0.26784,5.5541,0.45508,0.64062,0.7098
7.432,0.25904,0.26393,5.867,0.45508,0.63477,0.7098
7.44,0.26002,0.261,6.1799,0.44922,0.63477,0.7098
7.448,0.261,0.25709,6.4928,0.45508,0.64062,0.71569
7.456,0.26197,0.25415,6.6884,0.46094,0.64453,0.69608
7.464,0.26197,0.25122,6.9622,0.46484,0.62891,0.6902
7.472,0.26295,0.24829,7.2751,0.46484,0.64453,0.7
7.48,0.26393,0.24438,7.4315,0.46484,0.62891,0.69608
7.488,0.26491,0.24145,7.6271,0.46484,0.62891,0.7
7.496,0.26686,0.23851,7.8227,0.46094,0.62891,0.70588
7.504,0.26784,0.23754,8.0182,0.46484,0.63477,0.70588
7.512,0.26882,0.23656,8.2138,0.46484,0.64453,0.70588
7.52,0.26979,0.23363,8.3703,0.48047,0.66406,0.6902
7.528,0.27077,0.23167,8.5267,0.48047,0.67578,0.68039
7.536,0.27175,0.22972,8.6441,0.49023,0.66016,0.67647
7.544,0.27175,0.22776,8.7614,0.48438,0.64062,0.69608
7.552,0.27273,0.22776,8.8787,0.47461,0.625,0.6902
7.56,0.27273,0.22972,8.9961,0.46484,0.61914,0.6902
7.568,0.2737,0.2346,9.1525,0.45508,0.61523,0.70588
7.576,0.27273,0.24242,9.1916,0.43945,0.60547,0.70588
7.584,0.27273,0.25611,9.2699,0.44531,0.60547,0.70588
7.592,0.27175,0.2737,9.2699,0.45508,0.61523,0.69608
7.6,0.27175,0.29326,9.1916,0.46484,0.61914,0.6902
7.608,0.27077,0.31476,9.1525,0.46094,0.61914,0.68627
7.616,0.26979,0.34213,9.0743,0.46484,0.61914,0.6902
7.624,0.26979,0.37341,8.9961,0.44531,0.62891,0.70588
7.632,0.26979,0.40567,8.9961,0.44922,0.63477,0.70588
7.64,0.26979,0.43891,8.9961,0.44531,0.64062,0.7098
7.648,0.26979,0.47116,8.9961,0.43945,0.62891,0.70588
7.656,0.26979,0.50147,9.0743,0.43945,0.62891,0.70588
7.664,0.27077,0.52981,9.0743,0.44922,0.6543,0.71569
7.672,0.27175,0.55523,9.1525,0.43945,0.66992,0.72549
7.68,0.27273,0.57771,9.1916,0.51562,0.62891,0.67059
7.688,0.27468,0.59824,9.1916,0.66992,0.54492,0.57059
7.696,0.27566,0.61486,9.309,0.875,0.43555,0.43529
7.704,0.27859,0.62659,9.4654,0.92969,0.36523,0.39412
7.712,0.28055,0.63539,9.5828,0.6543,0.39062,0.53922
7.72,0.28348,0.64321,9.7783,0.47461,0.47461,0.66078
7.728,0.28641,0.64907,9.8957,0.35938,0.53906,0.73137
7.736,0.2913,0.65396,10.13,0.34961,0.58984,0.75098
7.744,0.29619,0.65689,10.248,0.41602,0.61914,0.72549
7.752,0.30303,0.65689,10.443,0.43555,0.64453,0.71569
7.76,0.3089,0.65494,10.521,0.43945,0.65039,0.7098
7.768,0.31574,0.65005,10.561,0.43555,0.6543,0.71569
7.776,0.3216,0.64223,10.561,0.43945,0.6543,0.72549
7.784,0.32747,0.63343,10.521,0.44531,0.6543,0.71569
7.792,0.33333,0.62268,10.404,0.44531,0.6543,0.71569
7.8,0.34018,0.61095,10.326,0.43945,0.66016,0.72549
7.808,0.34702,0.59922,10.248,0.44922,0.65039,0.7098
7.816,0.35484,0.58651,10.209,0.46484,0.65039,0.70588
7.824,0.36168,0.57185,10.091,0.46484,0.64453,0.70588
7.832,0.36852,0.55621,10.091,0.4707,0.65039,0.7
7.84,0.37537,0.54057,10.013,0.49023,0.65039,0.6902
7.848,0.38123,0.52493,10.013,0.48438,0.64453,0.69608
7.856,0.38807,0.50929,9.9348,0.48438,0.64453,0.6902
7.864,0.39394,0.4956,9.9348,0.49023,0.64453,0.68627
7.872,0.40078,0.48289,10.013,0.5,0.65039,0.68039
7.88,0.40665,0.47116,10.091,0.50977,0.6543,0.68627
7.888,0.41349,0.46139,10.13,0.51562,0.63477,0.67059
7.896,0.41935,0.45161,10.13,0.52539,0.65039,0.68039
7.904,0.4262,0.44379,10.326,0.53516,0.63477,0.67059
7.912,0.43109,0.43695,10.521,0.55469,0.64062,0.65098
7.92,0.43695,0.42913,10.717,0.57422,0.63477,0.63529
7.928,0.44184,0.42131,10.756,0.58984,0.62891,0.62941
7.936,0.44673,0.41349,10.756,0.5957,0.62891,0.61961
7.944,0.45064,0.40665,10.717,0.625,0.61523,0.60588
7.952,0.45552,0.3998,10.561,0.64062,0.60938,0.59608
7.96,0.45846,0.39394,10.326,0.6543,0.60547,0.5902
7.968,0.46237,0.38807,10.091,0.6543,0.59961,0.58431
7.976,0.4653,0.38123,9.8957,0.66406,0.58984,0.58039
7.984,0.46921,0.37634,9.7001,0.66992,0.58398,0.58431
7.992,0.47214,0.37048,9.5828,0.65039,0.58398,0.58431
8,0.47507,0.36657,9.5046,0.63477,0.58984,0.6
8.008,0.47801,0.36364,9.5046,0.60547,0.58398,0.6098
8.016,0.47996,0.35973,9.5046,0.58008,0.58984,0.62549
8.024,0.48289,0.35582,9.5828,0.56055,0.60547,0.64118
8.032,0.48485,0.35191,9.5828,0.53906,0.60547,0.6549
8.04,0.48778,0.348,9.5828,0.51562,0.61914,0.68039
8.048,0.48974,0.34409,9.5828,0.50586,0.60938,0.67647
8.056,0.49169,0.34018,9.5828,0.51562,0.60938,0.67059
8.064,0.49365,0.33529,9.5046,0.50977,0.61914,0.68039
8.072,0.49462,0.3304,9.4654,0.50586,0.625,0.6902
8.08,0.4956,0.32649,9.4654,0.50977,0.61523,0.68039
8.088,0.49658,0.3216,9.4654,0.5,0.60938,0.67647
8.096,0.49756,0.31769,9.5046,0.50977,0.61914,0.68627
8.104,0.49756,0.31476,9.5828,0.51562,0.61523,0.68039
8.112,0.49853,0.31183,9.6219,0.51562,0.61914,0.67647
8.12,0.49853,0.3089,9.7783,0.50977,0.62891,0.68039
8.128,0.49853,0.30499,9.8175,0.50977,0.625,0.67647
8.136,0.49853,0.30108,9.8957,0.51562,0.61914,0.66471
8.144,0.49853,0.29814,9.9348,0.5,0.61914,0.68039
8.152,0.49853,0.29521,10.013,0.51562,0.61914,0.66078
8.16,0.49853,0.2913,10.13,0.51562,0.625,0.68627
8.168,0.49853,0.28739,10.209,0.51953,0.625,0.66471
8.176,0.49756,0.28348,10.248,0.52539,0.625,0.6549
8.184,0.49658,0.28055,10.326,0.5293,0.63477,0.65098
8.192,0.49658,0.27761,10.404,0.5293,0.66406,0.68039
8.2,0.49462,0.27566,10.443,0.53516,0.66992,0.66471
8.208,0.49365,0.27468,10.521,0.53516,0.64062,0.67059
8.216,0.49169,0.27273,10.521,0.5293,0.61523,0.6549
8.224,0.48974,0.27273,10.521,0.51953,0.60547,0.66471
8.232,0.48778,0.27468,10.521,0.5,0.60938,0.68627
8.24,0.48583,0.28055,10.521,0.48047,0.60547,0.69608
8.248,0.48485,0.2913,10.561,0.49023,0.59961,0.67059
8.256,0.48289,0.30694,10.639,0.49414,0.5957,0.66471
8.264,0.48192,0.32747,10.561,0.49023,0.61523,0.6902
8.272,0.47996,0.35191,10.521,0.5,0.60938,0.68039
8.28,0.47801,0.38025,10.521,0.49023,0.60938,0.67647
8.288,0.47703,0.41153,10.521,0.49414,0.60938,0.68039
8.296,0.47507,0.44379,10.521,0.48438,0.61523,0.68039
8.304,0.47312,0.47214,10.521,0.48438,0.61914,0.6902
8.312,0.47116,0.49756,10.561,0.49023,0.61523,0.68627
8.32,0.46921,0.52493,10.561,0.48047,0.62891,0.7
8.328,0.46823,0.55327,10.561,0.46484,0.62891,0.70588
8.336,0.46725,0.57967,10.561,0.46484,0.65039,0.7098
8.344,0.4653,0.60508,10.561,0.4707,0.66016,0.71569
8.352,0.46432,0.62854,10.561,0.56445,0.61523,0.65098
8.36,0.46334,0.64907,10.521,0.76562,0.50586,0.51961
8.368,0.46237,0.66667,10.521,0.95898,0.40039,0.3902
8.376,0.46237,0.68133,10.561,0.96484,0.33984,0.37059
8.384,0.46139,0.69306,10.639,0.60547,0.38477,0.57059
8.392,0.46041,0.70186,10.717,0.44922,0.4707,0.67059
8.4,0.46041,0.70772,10.756,0.39453,0.52539,0.7098
8.408,0.45943,0.70968,10.952,0.41602,0.58008,0.72157
8.416,0.45943,0.71163,11.147,0.46484,0.61914,0.7
8.424,0.46041,0.71261,11.343,0.46094,0.6543,0.7098
8.432,0.46041,0.71065,11.499,0.46484,0.66016,0.70588
8.44,0.46041,0.70674,11.656,0.45508,0.66406,0.7098
8.448,0.46041,0.70186,11.695,0.44531,0.66406,0.72157
8.456,0.46041,0.69404,11.773,0.46484,0.66016,0.70588
8.464,0.46041,0.68622,11.695,0.47461,0.6543,0.7
8.472,0.46041,0.67546,11.656,0.46484,0.65039,0.69608
8.48,0.46041,0.66373,11.578,0.4707,0.6543,0.69608
8.488,0.46041,0.65005,11.578,0.48047,0.66406,0.70588
8.496,0.46041,0.63539,11.578,0.47461,0.66992,0.7098
8.504,0.46041,0.62072,11.578,0.49023,0.66406,0.7
8.512,0.45943,0.60508,11.578,0.49414,0.66016,0.68627
8.52,0.45943,0.58847,11.578,0.49023,0.65039,0.67647
8.528,0.45943,0.57185,11.578,0.49023,0.65039,0.68627
8.536,0.45943,0.55425,11.578,0.5,0.6543,0.6902
8.544,0.45846,0.53763,11.656,0.51562,0.65039,0.67647
8.552,0.45846,0.5347,11.695,0.51562,0.6543,0.68039
8.56,0.45846,0.53959,11.773,0.53516,0.65039,0.66471
8.568,0.45748,0.53568,11.695,0.53516,0.6543,0.67059
8.576,0.45748,0.52786,11.656,0.54492,0.64062,0.6549
8.584,0.45748,0.51906,11.695,0.55469,0.64453,0.6549
8.592,0.4565,0.50929,11.773,0.58008,0.64453,0.63529
8.6,0.4565,0.50049,11.773,0.59961,0.63477,0.62549
8.608,0.45552,0.49267,11.695,0.60938,0.62891,0.6098
8.616,0.45552,0.48387,11.578,0.62891,0.62891,0.6098
8.624,0.45455,0.47507,11.382,0.63477,0.625,0.6098
8.632,0.45455,0.46725,11.186,0.64062,0.61914,0.6098
8.64,0.45455,0.46041,11.069,0.6543,0.60547,0.58431
8.648,0.45357,0.45357,10.952,0.65039,0.60547,0.58431
8.656,0.45357,0.44673,10.874,0.64453,0.5957,0.58431
8.664,0.45259,0.44086,10.834,0.63477,0.60547,0.6
8.672,0.45259,0.43597,10.834,0.60938,0.60547,0.61961
8.68,0.45161,0.43109,10.834,0.58398,0.60547,0.62941
8.688,0.45161,0.42717,10.874,0.55078,0.60547,0.6451
8.696,0.45064,0.42326,10.952,0.53516,0.60547,0.6549
8.704,0.45064,0.41935,11.03,0.51562,0.60938,0.66471
8.712,0.45064,0.41544,11.069,0.5,0.60938,0.68039
8.72,0.44966,0.41153,11.069,0.49414,0.61914,0.7
8.728,0.44966,0.40762,11.069,0.49023,0.61914,0.68039
8.736,0.44868,0.40371,11.069,0.5,0.625,0.68627
8.744,0.44868,0.39883,11.069,0.49023,0.625,0.68627
8.752,0.4477,0.39394,11.069,0.49414,0.625,0.68039
8.76,0.4477,0.39101,11.147,0.49414,0.61914,0.68627
8.768,0.4477,0.3871,11.147,0.49023,0.62891,0.69608
8.776,0.44673,0.38319,11.186,0.49414,0.625,0.68627
8.784,0.44673,0.37928,11.265,0.5,0.625,0.68627
8.792,0.44575,0.37537,11.343,0.49023,0.61914,0.68039
8.8,0.44477,0.37243,11.382,0.5,0.62891,0.68627
8.808,0.44282,0.37048,11.46,0.5,0.63477,0.69608
8.816,0.44184,0.36755,11.578,0.49023,0.62891,0.68627
8.824,0.44086,0.36364,11.695,0.49023,0.63477,0.69608
8.832,0.43988,0.35973,11.773,0.49414,0.62891,0.68039
8.84,0.43891,0.35484,11.89,0.49023,0.63477,0.6902
8.848,0.43793,0.34995,11.89,0.51562,0.64062,0.67059
8.856,0.43695,0.34506,11.89,0.51562,0.6543,0.67059
8.864,0.43597,0.34213,11.812,0.51562,0.66992,0.67647
8.872,0.435,0.33822,11.812,0.51562,0.67578,0.68039
8.88,0.435,0.33627,11.89,0.51953,0.63477,0.66471
8.888,0.43402,0.33627,11.89,0.50977,0.62891,0.68039
8.896,0.43304,0.33822,11.969,0.49023,0.61914,0.68627
8.904,0.43206,0.34311,11.969,0.48438,0.61523,0.68039
8.912,0.43206,0.35191,11.89,0.4707,0.61523,0.68627
8.92,0.43109,0.36461,11.969,0.46484,0.60938,0.6902
8.928,0.43011,0.38221,11.969,0.47461,0.60547,0.68039
8.936,0.42815,0.40274,11.969,0.47461,0.61523,0.68039
8.944,0.42717,0.42815,11.969,0.48047,0.61914,0.68627
8.952,0.42522,0.45552,11.969,0.48438,0.625,0.67647
8.96,0.42424,0.48485,11.89,0.47461,0.62891,0.70588
8.968,0.42326,0.51515,11.89,0.4707,0.61914,0.69608
8.976,0.42229,0.54448,11.89,0.4707,0.62891,0.70588
8.984,0.42131,0.5738,11.969,0.46484,0.62891,0.7
8.992,0.42033,0.60117,11.89,0.45508,0.63477,0.70588
9,0.42033,0.62366,11.812,0.46484,0.62891,0.7
9.008,0.41935,0.64223,11.773,0.44922,0.66016,0.72157
9.016,0.41935,0.6608,11.695,0.48047,0.66992,0.70588
9.024,0.41935,0.67937,11.656,0.56445,0.60938,0.6451
9.032,0.41935,0.69599,11.578,0.79883,0.49414,0.4902
9.04,0.41935,0.71163,11.578,0.95898,0.36523,0.37059
9.048,0.42033,0.72336,11.578,0.7793,0.33594,0.43922
9.056,0.42033,0.73314,11.578,0.52539,0.41602,0.62549
9.064,0.42033,0.74096,11.578,0.40039,0.49414,0.7098
9.072,0.42033,0.74585,11.578,0.37109,0.54492,0.73137
9.08,0.42131,0.74976,11.695,0.43555,0.59961,0.70588
9.088,0.42131,0.75171,11.812,0.42969,0.64062,0.7
9.096,0.42229,0.75073,12.008,0.42969,0.66016,0.73137
9.104,0.42326,0.7478,12.203,0.42578,0.67578,0.72549
9.112,0.42424,0.74389,12.321,0.42969,0.66406,0.72549
9.12,0.4262,0.739,12.438,0.43555,0.67578,0.72157
9.128,0.42717,0.73216,12.516,0.43945,0.67578,0.73137
9.136,0.42815,0.72336,12.516,0.42578,0.67969,0.74118
9.144,0.42913,0.71163,12.516,0.43945,0.66992,0.72157
9.152,0.43011,0.69892,12.516,0.43555,0.67578,0.72549
9.16,0.43109,0.68524,12.438,0.45508,0.66992,0.7098
9.168,0.43206,0.6696,12.438,0.45508,0.66992,0.71569
9.176,0.43304,0.65396,12.438,0.46094,0.66406,0.70588
9.184,0.43402,0.63734,12.438,0.46484,0.6543,0.69608
9.192,0.435,0.6217,12.438,0.46094,0.66992,0.71569
9.2,0.43597,0.60704,12.399,0.47461,0.66016,0.7
9.208,0.43695,0.59335,12.438,0.47461,0.67578,0.7098
9.216,0.43793,0.57967,12.516,0.48438,0.6543,0.68627
9.224,0.43793,0.56598,12.634,0.49023,0.6543,0.68627
9.232,0.43793,0.5523,12.634,0.50977,0.6543,0.67059
9.24,0.43793,0.53959,12.595,0.50586,0.66406,0.68627
9.248,0.43793,0.52786,12.516,0.5293,0.6543,0.67059
9.256,0.43695,0.51515,12.516,0.54492,0.6543,0.6549
9.264,0.43597,0.50342,12.516,0.56055,0.65039,0.6549
9.272,0.43597,0.49267,12.516,0.58008,0.64062,0.63529
9.28,0.435,0.48289,12.399,0.58984,0.64453,0.62941
9.288,0.43402,0.4741,12.282,0.60547,0.62891,0.6098
9.296,0.43304,0.46628,12.008,0.61523,0.62891,0.61569
9.304,0.43304,0.46041,11.773,0.625,0.63477,0.6098
9.312,0.43206,0.45455,11.499,0.62891,0.625,0.59608
9.32,0.43206,0.4477,11.343,0.61523,0.61523,0.61961
9.328,0.43109,0.44184,11.186,0.61914,0.61914,0.6098
9.336,0.43011,0.43597,11.069,0.60547,0.60938,0.6098
9.344,0.42913,0.43011,11.03,0.58008,0.60938,0.62941
9.352,0.42717,0.42522,10.952,0.54492,0.60547,0.65098
9.36,0.4262,0.42033,10.952,0.51562,0.625,0.68039
9.368,0.42522,0.41544,10.952,0.49023,0.625,0.67647
9.376,0.42326,0.40958,10.952,0.47461,0.625,0.6902
9.384,0.42229,0.40469,10.874,0.46484,0.62891,0.7
9.392,0.42131,0.3998,10.834,0.46484,0.63477,0.70588
9.4,0.42033,0.39589,10.717,0.44922,0.63477,0.7098
9.408,0.41935,0.39296,10.561,0.44531,0.63477,0.72157
9.416,0.41838,0.38905,10.404,0.44531,0.64453,0.71569
9.424,0.4174,0.38514,10.209,0.44531,0.64062,0.70588
9.432,0.41642,0.38221,10.091,0.44922,0.64453,0.7098
9.44,0.41447,0.37732,9.8957,0.43945,0.64453,0.70588
9.448,0.41349,0.37341,9.7001,0.44531,0.6543,0.72549
9.456,0.41153,0.3695,9.5828,0.43555,0.66016,0.73137
9.464,0.40958,0.36559,9.5046,0.43945,0.6543,0.72157
9.472,0.4086,0.36168,9.3872,0.42969,0.65039,0.72549
9.48,0.40665,0.35777,9.2699,0.44531,0.6543,0.7098
9.488,0.40567,0.35386,9.1525,0.42969,0.6543,0.71569
9.496,0.40371,0.35191,8.9961,0.42969,0.66016,0.72549
9.504,0.40176,0.34897,8.8787,0.42969,0.66406,0.73137
9.512,0.3998,0.34506,8.6832,0.42578,0.66992,0.72549
9.52,0.39785,0.34018,8.5267,0.43555,0.67578,0.71569
9.528,0.39492,0.33627,8.3703,0.43945,0.68555,0.71569
9.536,0.39198,0.33138,8.2529,0.42969,0.70898,0.72549
9.544,0.38807,0.32747,8.0574,0.43945,0.7207,0.73137
9.552,0.38514,0.32454,7.8227,0.44922,0.66992,0.70588
9.56,0.38025,0.32454,7.6271,0.43555,0.66016,0.72549
9.568,0.37634,0.32747,7.3142,0.41992,0.65039,0.72157
9.576,0.37048,0.33431,7.1186,0.40039,0.6543,0.75098
9.584,0.36559,0.34702,6.9622,0.40039,0.6543,0.73137
9.592,0.3607,0.36364,6.8057,0.39453,0.6543,0.7451
9.6,0.35484,0.38123,6.7666,0.40039,0.6543,0.73137
9.608,0.34995,0.40078,6.6884,0.39062,0.66016,0.75098
9.616,0.34409,0.42522,6.6493,0.4043,0.66406,0.73529
9.624,0.33822,0.45357,6.6493,0.41016,0.6543,0.73137
9.632,0.33138,0.48289,6.571,0.40039,0.6543,0.73137
9.64,0.32454,0.5132,6.4928,0.38086,0.66992,0.7549
9.648,0.31672,0.5435,6.3755,0.38086,0.67578,0.75098
9.656,0.3089,0.57283,6.2581,0.375,0.66992,0.75098
9.664,0.3001,0.60117,6.1799,0.38086,0.67578,0.75098
9.672,0.2913,0.62659,6.0235,0.38086,0.67969,0.7549
9.68,0.2825,0.64907,5.8279,0.37109,0.71484,0.77647
9.688,0.2737,0.6696,5.6323,0.39453,0.72461,0.78039
9.696,0.26588,0.68426,5.515,0.50977,0.64062,0.68627
9.704,0.25806,0.69599,5.3976,0.7207,0.53516,0.53529
9.712,0.25122,0.70772,5.2412,0.875,0.41602,0.42549
9.72,0.24438,0.7175,5.2021,0.70898,0.39453,0.51569
9.728,0.23754,0.7263,5.2412,0.49023,0.4707,0.6549
9.736,0.23069,0.73412,5.3976,0.35547,0.55078,0.73529
9.744,0.22385,0.73803,5.5541,0.30078,0.60547,0.7902
9.752,0.21799,0.74096,5.8279,0.33594,0.65039,0.79608
9.76,0.2131,0.74096,6.0626,0.37109,0.67578,0.76078
9.768,0.20821,0.73998,6.3364,0.375,0.70508,0.76667
9.776,0.2043,0.73607,6.571,0.37109,0.69922,0.76078
9.784,0.19941,0.73118,6.6884,0.37109,0.70508,0.77059
9.792,0.1955,0.72434,6.7666,0.375,0.69922,0.76078
9.8,0.19159,0.71554,6.7666,0.38086,0.70508,0.76667
9.808,0.18768,0.70577,6.6884,0.375,0.69922,0.7549
9.816,0.18377,0.69404,6.6493,0.39062,0.69922,0.75098
9.824,0.18084,0.68035,6.4928,0.39453,0.68945,0.75098
9.832,0.17791,0.66569,6.4537,0.39453,0.68945,0.7451
9.84,0.17498,0.64907,6.3364,0.40039,0.69922,0.7549
9.848,0.174,0.63245,6.1799,0.39453,0.69922,0.75098
9.856,0.17204,0.61584,5.9452,0.4043,0.68945,0.74118
9.864,0.17107,0.59922,5.7497,0.41602,0.69531,0.73137
9.872,0.17009,0.58456,5.6323,0.41992,0.70508,0.7451
9.88,0.16911,0.56891,5.515,0.42969,0.68555,0.71569
9.888,0.16911,0.55425,5.4368,0.42969,0.67969,0.73137
9.896,0.16813,0.54154,5.4368,0.43555,0.69922,0.73529
9.904,0.16813,0.52981,5.4368,0.44531,0.68555,0.72157
9.912,0.16911,0.51711,5.3194,0.46094,0.67578,0.70588
9.92,0.16911,0.5044,5.2021,0.4707,0.67578,0.69608
9.928,0.16911,0.49267,5.0065,0.49023,0.67578,0.68627
9.936,0.17009,0.48192,4.6936,0.51562,0.66992,0.67059
9.944,0.17009,0.47214,4.3807,0.5293,0.66992,0.66471
9.952,0.17009,0.46139,3.9505,0.53516,0.66016,0.66078
9.96,0.17009,0.45161,3.5202,0.56055,0.6543,0.6451
9.968,0.17009,0.44282,3.09,0.58008,0.66016,0.63529
9.976,0.16911,0.43402,2.777,0.57422,0.6543,0.65098
9.984,0.16813,0.4262,2.5033,0.57422,0.65039,0.6451
9.992,0.16716,0.4174,2.3077,0.58008,0.63477,0.63529
10,0.1652,0.41056,2.2686,0.58398,0.62891,0.62941
10.008,0.16422,0.40469,2.2686,0.54492,0.61914,0.6451
10.016,0.16227,0.39785,2.2686,0.5293,0.62891,0.66078
10.024,0.16129,0.39198,2.1903,0.50586,0.64062,0.68627
10.032,0.16031,0.38514,2.073,0.48047,0.65039,0.69608
10.04,0.15836,0.37928,1.9557,0.45508,0.64453,0.7098
10.048,0.15738,0.37341,1.7601,0.43555,0.66016,0.73529
10.056,0.15543,0.36755,1.5645,0.42969,0.66016,0.74118
10.064,0.15347,0.36266,1.4472,0.43945,0.6543,0.72157
10.072,0.15152,0.35777,1.369,0.41992,0.66406,0.74118
10.08,0.14956,0.35288,1.3299,0.42578,0.66016,0.7451
10.088,0.14858,0.348,1.3299,0.41992,0.6543,0.73529
10.096,0.14663,0.34506,1.4472,0.42578,0.66016,0.72549
10.104,0.14663,0.34213,1.5645,0.42578,0.6543,0.73137
10.112,0.14565,0.3392,1.6819,0.42578,0.66406,0.73529
10.12,0.14565,0.33627,1.7601,0.43555,0.65039,0.71569
10.128,0.14565,0.33333,1.8774,0.43945,0.6543,0.72549
10.136,0.14565,0.32942,1.8774,0.43945,0.66406,0.72157
10.144,0.14663,0.32454,1.8774,0.44531,0.66992,0.73529
10.152,0.14663,0.31965,1.9557,0.43945,0.66016,0.72549
10.16,0.14761,0.31574,1.9948,0.43555,0.6543,0.73137
10.168,0.14858,0.31183,2.2686,0.43945,0.66016,0.72549
10.176,0.14956,0.30792,2.4641,0.43945,0.66016,0.72157
10.184,0.15054,0.30499,2.6988,0.43555,0.6543,0.72549
10.192,0.15152,0.30205,2.9335,0.43945,0.67578,0.73137
10.2,0.15249,0.3001,3.2073,0.44922,0.66992,0.71569
10.208,0.15445,0.29912,3.4029,0.45508,0.67969,0.70588
10.216,0.1564,0.29717,3.5593,0.46094,0.70898,0.71569
10.224,0.15836,0.29521,3.7549,0.44922,0.7207,0.72549
10.232,0.16129,0.29326,4.0287,0.4707,0.66992,0.7098
10.24,0.16325,0.29228,4.1851,0.46094,0.6543,0.70588
10.248,0.16618,0.29423,4.3416,0.44531,0.65039,0.72157
10.256,0.16911,0.29814,4.3416,0.42969,0.64453,0.73529
10.264,0.17107,0.30596,4.1851,0.41602,0.64062,0.73137
10.272,0.174,0.31867,3.9505,0.41016,0.62891,0.74118
10.28,0.17498,0.33724,3.6375,0.42578,0.63477,0.72157
10.288,0.17693,0.35875,3.3246,0.43945,0.6543,0.71569
10.296,0.17889,0.38123,3.0117,0.42969,0.64453,0.73137
10.304,0.17986,0.40469,2.777,0.42578,0.64062,0.72549
10.312,0.18084,0.43206,2.5815,0.41992,0.64062,0.72549
10.32,0.18084,0.46237,2.3077,0.41992,0.66016,0.73529
10.328,0.18182,0.49169,2.1512,0.41992,0.6543,0.74118
10.336,0.1828,0.52199,1.9557,0.41602,0.6543,0.74118
10.344,0.18377,0.54936,1.8383,0.4043,0.6543,0.7451
10.352,0.18377,0.57576,1.7601,0.41992,0.66992,0.75098
10.36,0.18475,0.59824,1.6819,0.41602,0.68555,0.7549
10.368,0.18475,0.61975,1.6819,0.48047,0.66406,0.7098
10.376,0.18475,0.63734,1.7601,0.64062,0.58398,0.61569
10.384,0.18475,0.65298,1.9557,0.85938,0.48047,0.47451
10.392,0.18475,0.66569,2.3077,0.91992,0.40039,0.4098
10.4,0.18475,0.67449,2.6988,0.68555,0.39453,0.55098
10.408,0.18573,0.67937,3.1291,0.48438,0.50586,0.6902
10.416,0.18573,0.68426,3.442,0.35547,0.58398,0.77059
10.424,0.18671,0.68719,3.7158,0.30469,0.61914,0.79608
10.432,0.18671,0.68817,3.8722,0.35547,0.65039,0.77647
10.44,0.18768,0.68622,4.0287,0.38086,0.66406,0.77059
10.448,0.18768,0.68328,4.1851,0.4043,0.67969,0.75098
10.456,0.18964,0.67742,4.3807,0.41602,0.68555,0.74118
10.464,0.19062,0.67058,4.5763,0.41992,0.67969,0.73529
10.472,0.19159,0.66178,4.7718,0.39453,0.68555,0.7549
10.48,0.19355,0.652,4.9674,0.41992,0.69922,0.75098
10.488,0.1955,0.64027,5.0847,0.4043,0.68945,0.76078
10.496,0.19648,0.62952,5.1239,0.41602,0.67969,0.74118
10.504,0.19746,0.61779,5.2021,0.41602,0.68555,0.7549
10.512,0.19941,0.60411,5.1239,0.41992,0.67578,0.75098
10.52,0.20137,0.58944,5.0847,0.41992,0.67578,0.7451
10.528,0.20235,0.5738,5.0065,0.42578,0.66406,0.72549
10.536,0.2043,0.55816,5.0065,0.43945,0.67969,0.74118
10.544,0.20626,0.5435,5.1239,0.43945,0.66992,0.73137
10.552,0.20919,0.52884,5.3194,0.44531,0.66406,0.72157
10.56,0.21114,0.51515,5.7106,0.45508,0.67578,0.72549
10.568,0.2131,0.50147,6.1408,0.44922,0.66992,0.72549
10.576,0.21505,0.48876,6.571,0.44922,0.66016,0.73137
10.584,0.21799,0.47703,6.884,0.47461,0.66016,0.70588
10.592,0.21994,0.4653,6.9622,0.48438,0.66406,0.7
10.6,0.22287,0.4477,6.7666,0.5,0.6543,0.68627
10.608,0.22483,0.42815,6.2581,0.50977,0.64453,0.69608
10.616,0.22776,0.41349,5.5541,0.53906,0.64062,0.66078
10.624,0.22972,0.40176,4.6936,0.55078,0.65039,0.67059
10.632,0.23265,0.39198,3.8722,0.56445,0.62891,0.6549
10.64,0.2346,0.38319,3.1291,0.58398,0.62891,0.65098
10.648,0.23656,0.37537,2.5033,0.59961,0.61914,0.62549
10.656,0.23851,0.36755,2.073,0.60547,0.60938,0.61961
10.664,0.23949,0.36168,1.7601,0.58984,0.61523,0.63529
10.672,0.24145,0.35679,1.5645,0.58398,0.58984,0.6098
10.68,0.24242,0.35093,1.369,0.60547,0.59961,0.61961
10.688,0.2434,0.34604,1.2516,0.58008,0.60547,0.6451
10.696,0.24438,0.34213,1.1343,0.53516,0.60547,0.67059
10.704,0.24438,0.33822,1.0561,0.5,0.61523,0.68627
10.712,0.24536,0.33431,1.1343,0.48438,0.62891,0.70588
10.72,0.24633,0.32942,1.2125,0.46094,0.62891,0.7098
10.728,0.24633,0.32551,1.369,0.44531,0.63477,0.72549
10.736,0.24731,0.3216,1.6428,0.43555,0.64062,0.74118
10.744,0.24731,0.31769,1.8774,0.43555,0.62891,0.72157
10.752,0.24829,0.31476,2.1512,0.43555,0.65039,0.73137
10.76,0.25024,0.31183,2.3859,0.42578,0.6543,0.7451
10.768,0.25122,0.3089,2.6988,0.42578,0.64062,0.72549
10.776,0.2522,0.30401,2.9335,0.42969,0.65039,0.72549
10.784,0.25415,0.3001,3.2073,0.42969,0.63477,0.71569
10.792,0.25611,0.29717,3.4029,0.42969,0.64453,0.72549
10.8,0.25709,0.29521,3.5593,0.43945,0.65039,0.73137
10.808,0.25904,0.2913,3.8331,0.44531,0.64453,0.71569
10.816,0.261,0.28837,4.0287,0.44922,0.65039,0.72157
10.824,0.26295,0.28446,4.1851,0.45508,0.64062,0.7098
10.832,0.26491,0.28055,4.4589,0.45508,0.63477,0.70588
10.84,0.26686,0.27664,4.7718,0.44922,0.63477,0.7098
10.848,0.26882,0.2737,5.1239,0.45508,0.64062,0.70588
10.856,0.27175,0.27077,5.515,0.44922,0.63477,0.7098
10.864,0.2737,0.26882,5.8279,0.46094,0.62891,0.7
10.872,0.27566,0.26588,6.2581,0.46484,0.65039,0.71569
10.88,0.27761,0.26295,6.571,0.46484,0.66406,0.72157
10.888,0.27957,0.26002,6.9622,0.4707,0.67578,0.69608
10.896,0.2825,0.25806,7.1969,0.47461,0.67969,0.6902
10.904,0.28348,0.25709,7.5098,0.48047,0.66016,0.69608
10.912,0.28446,0.25611,7.7444,0.49023,0.62891,0.68627
10.92,0.28446,0.25513,8.0182,0.4707,0.61914,0.69608
10.928,0.28543,0.25709,8.2138,0.45508,0.625,0.7098
10.936,0.28446,0.261,8.3703,0.43945,0.60547,0.70588
10.944,0.28348,0.27077,8.5658,0.43555,0.5957,0.7
10.952,0.28152,0.28543,8.6832,0.42578,0.60938,0.73137
10.96,0.27957,0.30596,8.8396,0.44922,0.60547,0.68627
10.968,0.27761,0.3304,8.8396,0.43945,0.61914,0.71569
10.976,0.27664,0.35875,8.8787,0.44922,0.61523,0.69608
10.984,0.27468,0.39003,8.8396,0.46094,0.62891,0.70588
10.992,0.2737,0.41935,8.7614,0.42969,0.62891,0.71569
11,0.27175,0.4477,8.6832,0.42969,0.63477,0.72549
11.008,0.26979,0.47801,8.6441,0.42578,0.63477,0.72157
11.016,0.26686,0.50831,8.5267,0.42969,0.62891,0.71569
11.024,0.26491,0.53763,8.4485,0.43945,0.63477,0.70588
11.032,0.26295,0.565,8.3703,0.41992,0.66016,0.72549
11.04,0.261,0.58944,8.4485,0.44531,0.66992,0.74118
11.048,0.25904,0.61193,8.5267,0.55078,0.60547,0.64118
11.056,0.25709,0.63148,8.5658,0.75977,0.50977,0.53529
11.064,0.25611,0.64907,8.6441,0.92383,0.40039,0.4098
11.072,0.25513,0.66373,8.8396,0.82422,0.37109,0.39412
11.08,0.25415,0.67546,8.957,0.57422,0.43555,0.59608
11.088,0.25318,0.68524,9.1525,0.41992,0.52539,0.70588
11.096,0.25415,0.69013,9.309,0.32422,0.57422,0.7549
11.104,0.25415,0.69306,9.5046,0.34961,0.60547,0.76078
11.112,0.25513,0.69306,9.7001,0.39062,0.62891,0.7451
11.12,0.25709,0.69306,9.8175,0.4043,0.6543,0.73137
11.128,0.25806,0.69013,9.8957,0.41992,0.66406,0.72549
11.136,0.26002,0.68719,9.9348,0.41992,0.66992,0.73529
11.144,0.26197,0.68035,9.9348,0.41992,0.6543,0.72549
11.152,0.26393,0.67155,9.8957,0.42578,0.66016,0.71569
11.16,0.26588,0.65982,9.7783,0.43555,0.66406,0.72157
11.168,0.26882,0.64712,9.7001,0.42969,0.66406,0.72549
11.176,0.27175,0.63245,9.6219,0.41992,0.6543,0.72549
11.184,0.27468,0.61681,9.5828,0.42969,0.66406,0.72549
11.192,0.27761,0.60215,9.5046,0.43945,0.6543,0.70588
11.2,0.28055,0.58847,9.4654,0.44922,0.6543,0.70588
11.208,0.28348,0.57478,9.4654,0.44531,0.65039,0.70588
11.216,0.28641,0.56012,9.5046,0.46094,0.6543,0.7
11.224,0.29032,0.54643,9.5046,0.45508,0.6543,0.70588
11.232,0.29423,0.53275,9.5828,0.46484,0.6543,0.7
11.24,0.29814,0.51906,9.7783,0.47461,0.6543,0.6902
11.248,0.30303,0.50538,9.9348,0.49023,0.64453,0.68039
11.256,0.30792,0.49169,10.248,0.5,0.63477,0.68039
11.264,0.31183,0.47996,10.561,0.5,0.63477,0.68039
11.272,0.31672,0.46823,10.874,0.53516,0.62891,0.64118
11.28,0.3216,0.45748,11.147,0.53906,0.62891,0.65098
11.288,0.32649,0.4477,11.186,0.55469,0.62891,0.6549
11.296,0.3304,0.43891,11.186,0.56055,0.61914,0.64118
11.304,0.33529,0.43206,11.03,0.5957,0.61523,0.61569
11.312,0.34018,0.42522,10.756,0.625,0.60938,0.5902
11.32,0.34506,0.41838,10.443,0.64062,0.60547,0.5902
11.328,0.34897,0.41153,10.091,0.65039,0.60547,0.5902
11.336,0.35386,0.40567,9.8175,0.65039,0.58008,0.57451
11.344,0.35875,0.40078,9.6219,0.65039,0.58008,0.5902
11.352,0.36168,0.39687,9.5828,0.6543,0.58398,0.58431
11.36,0.36559,0.39394,9.5828,0.625,0.57031,0.59608
11.368,0.36852,0.39101,9.5828,0.61523,0.58398,0.6098
11.376,0.37048,0.38807,9.6219,0.58008,0.58008,0.62549
11.384,0.37243,0.38514,9.6219,0.55469,0.59961,0.6451
11.392,0.37439,0.38319,9.6219,0.52539,0.60547,0.66078
11.4,0.37634,0.38123,9.5828,0.52539,0.60547,0.6549
11.408,0.37732,0.37928,9.5828,0.51562,0.60547,0.66078
11.416,0.3783,0.37634,9.5828,0.50586,0.60938,0.68039
11.424,0.37928,0.37341,9.5046,0.5,0.60547,0.66471
11.432,0.38025,0.3695,9.5046,0.49414,0.61523,0.68627
11.44,0.38123,0.36461,9.4654,0.5,0.61914,0.7
11.448,0.38123,0.3607,9.5046,0.50586,0.60938,0.68039
11.456,0.38221,0.35777,9.5046,0.49023,0.61914,0.68627
11.464,0.38221,0.35386,9.5828,0.50586,0.61523,0.68039
11.472,0.38221,0.35191,9.6219,0.50977,0.61914,0.67647
11.48,0.38221,0.34995,9.7001,0.50586,0.61523,0.66471
11.488,0.38319,0.348,9.7783,0.51562,0.61523,0.6549
11.496,0.38319,0.34702,9.8175,0.51562,0.61914,0.67647
11.504,0.38319,0.34604,9.8957,0.50977,0.61523,0.66078
11.512,0.38319,0.34311,10.013,0.52539,0.61914,0.6549
11.52,0.38416,0.34018,10.13,0.51562,0.61914,0.67059
11.528,0.38514,0.33627,10.248,0.51562,0.62891,0.68039
11.536,0.38612,0.33236,10.326,0.52539,0.62891,0.67059
11.544,0.38807,0.32845,10.404,0.5293,0.6543,0.66078
11.552,0.38905,0.32454,10.404,0.53516,0.66992,0.67059
11.56,0.39198,0.3216,10.404,0.53516,0.64453,0.6549
11.568,0.39394,0.31769,10.404,0.55469,0.60547,0.62941
11.576,0.39589,0.31574,10.404,0.53516,0.60547,0.65098
11.584,0.39785,0.31378,10.443,0.51953,0.60938,0.66471
11.592,0.39883,0.31476,10.521,0.49023,0.5957,0.68039
11.6,0.3998,0.31672,10.521,0.48047,0.59961,0.68627
11.608,0.40176,0.3216,10.561,0.49023,0.60547,0.68627
11.616,0.40274,0.33138,10.639,0.48438,0.60938,0.67647
11.624,0.40469,0.34702,10.717,0.50977,0.60938,0.66471
11.632,0.40567,0.36657,10.717,0.5,0.60547,0.66078
11.64,0.40665,0.39101,10.717,0.5,0.59961,0.66471
11.648,0.40762,0.41838,10.717,0.48438,0.61914,0.66078
11.656,0.40665,0.44868,10.717,0.48047,0.625,0.69608
11.664,0.40665,0.48094,10.756,0.48438,0.62891,0.70588
11.672,0.40665,0.5132,10.756,0.47461,0.60938,0.7
11.68,0.40665,0.54643,10.834,0.47461,0.61914,0.69608
11.688,0.40665,0.57674,10.834,0.48438,0.63477,0.69608
11.696,0.40567,0.60215,10.834,0.46484,0.65039,0.70588
11.704,0.40567,0.62268,10.834,0.51953,0.6543,0.66471
11.712,0.40567,0.64418,10.874,0.66016,0.56055,0.57059
11.72,0.40567,0.66569,10.952,0.87891,0.45508,0.46078
11.728,0.40469,0.68328,11.03,0.97461,0.3457,0.3549
11.736,0.40469,0.6999,11.069,0.73047,0.33594,0.4902
11.744,0.40469,0.71457,11.147,0.49023,0.44531,0.66078
11.752,0.40469,0.7263,11.265,0.39062,0.50586,0.70588
11.76,0.40371,0.73607,11.382,0.38477,0.55469,0.72157
11.768,0.40371,0.74291,11.499,0.43945,0.59961,0.70588
11.776,0.40371,0.74878,11.695,0.46094,0.625,0.6902
11.784,0.40274,0.75171,11.89,0.45508,0.6543,0.7098
11.792,0.40274,0.75269,12.008,0.46484,0.66406,0.72549
11.8,0.40274,0.74976,12.008,0.45508,0.6543,0.71569
11.808,0.40274,0.74585,12.008,0.46094,0.6543,0.7098
11.816,0.40371,0.739,12.008,0.46484,0.6543,0.7
11.824,0.40469,0.73021,11.969,0.46484,0.66016,0.70588
11.832,0.40567,0.71945,11.89,0.47461,0.6543,0.69608
11.84,0.40665,0.70577,11.89,0.4707,0.6543,0.70588
11.848,0.40762,0.6911,11.89,0.47461,0.6543,0.69608
11.856,0.4086,0.67546,11.89,0.46484,0.65039,0.69608
11.864,0.40958,0.65885,11.89,0.49023,0.66016,0.7
11.872,0.41056,0.64125,11.89,0.48438,0.65039,0.68039
11.88,0.41153,0.62366,11.812,0.48047,0.66016,0.69608
11.888,0.41153,0.60606,11.812,0.49023,0.6543,0.6902
11.896,0.41251,0.59042,11.89,0.5,0.6543,0.69608
11.904,0.41349,0.57576,12.008,0.50977,0.64062,0.67647
11.912,0.41447,0.56012,12.086,0.51953,0.64062,0.67647
11.92,0.41642,0.54643,12.008,0.5293,0.64062,0.66471
11.928,0.41642,0.53275,11.969,0.55469,0.62891,0.64118
11.936,0.4174,0.52004,12.008,0.56055,0.64062,0.63529
11.944,0.41838,0.50733,12.203,0.55469,0.64453,0.6549
11.952,0.41838,0.4956,12.399,0.59961,0.62891,0.62941
11.96,0.41935,0.48485,12.516,0.61523,0.61914,0.6098
11.968,0.41935,0.4741,12.516,0.62891,0.62891,0.61569
11.976,0.41935,0.46432,12.438,0.64062,0.61523,0.6
11.984,0.42033,0.45455,12.321,0.6543,0.60938,0.58431
11.992,0.42033,0.44673,12.203,0.66406,0.60547,0.57451
12,0.42033,0.44086,12.086,0.66406,0.60547,0.58039
12.008,0.41935,0.43402,12.008,0.6543,0.60547,0.59608
12.016,0.41935,0.42717,11.969,0.64453,0.5957,0.59608
12.024,0.41935,0.42131,11.89,0.61523,0.58984,0.6098
12.032,0.41838,0.41447,11.812,0.60547,0.59961,0.61569
12.04,0.4174,0.40762,11.812,0.57422,0.59961,0.63529
12.048,0.41642,0.40176,11.812,0.53906,0.5957,0.66078
12.056,0.41447,0.39687,11.89,0.53516,0.60547,0.6549
12.064,0.41251,0.39101,11.969,0.51953,0.61914,0.68039
12.072,0.41056,0.38612,12.008,0.50586,0.61523,0.68039
12.08,0.40958,0.38221,12.008,0.49023,0.60938,0.6902
12.088,0.40665,0.37634,12.008,0.50586,0.61914,0.68039
12.096,0.40469,0.37243,12.086,0.50977,0.61523,0.68039
12.104,0.40274,0.36852,12.086,0.50586,0.60938,0.68039
12.112,0.40078,0.36461,12.086,0.49414,0.625,0.68627
12.12,0.39883,0.35973,12.125,0.5,0.61914,0.67059
12.128,0.39687,0.35582,12.203,0.50977,0.61914,0.6549
12.136,0.39589,0.35191,12.203,0.5,0.63477,0.6902
12.144,0.39394,0.348,12.203,0.49023,0.62891,0.68039
12.152,0.39198,0.34409,12.203,0.50977,0.625,0.68627
12.16,0.39101,0.34018,12.203,0.50586,0.61914,0.68039
12.168,0.38905,0.33529,12.282,0.50586,0.62891,0.68039
12.176,0.3871,0.33138,12.321,0.51562,0.61523,0.66471
12.184,0.38514,0.32747,12.399,0.49023,0.62891,0.6902
12.192,0.38319,0.32454,12.399,0.50586,0.62891,0.68627
12.2,0.38221,0.3216,12.399,0.50977,0.64062,0.67647
12.208,0.38123,0.31867,12.399,0.51953,0.6543,0.66471
12.216,0.37928,0.31476,12.321,0.51562,0.66016,0.66078
12.224,0.37732,0.31085,12.321,0.5293,0.64453,0.67647
12.232,0.37634,0.30694,12.321,0.51562,0.625,0.68039
12.24,0.37439,0.30499,12.321,0.50586,0.61523,0.67647
12.248,0.37243,0.30499,12.321,0.49023,0.60547,0.68039
12.256,0.37146,0.30792,12.321,0.48438,0.60547,0.68039
12.264,0.37048,0.31574,12.399,0.49023,0.60547,0.68627
12.272,0.36852,0.32747,12.321,0.47461,0.60547,0.6902
12.28,0.36755,0.34506,12.321,0.49414,0.60547,0.68039
12.288,0.36657,0.36755,12.282,0.48438,0.61523,0.69608
12.296,0.36657,0.39101,12.282,0.48438,0.60547,0.68627
12.304,0.36559,0.41544,12.282,0.49023,0.60938,0.67647
12.312,0.36461,0.44477,12.282,0.48047,0.625,0.7
12.32,0.36364,0.47605,12.282,0.47461,0.625,0.69608
12.328,0.36364,0.50929,12.203,0.46484,0.61523,0.69608
12.336,0.36266,0.54154,12.125,0.46484,0.625,0.7
12.344,0.36266,0.57283,12.086,0.4707,0.62891,0.68627
12.352,0.36168,0.60215,12.008,0.44922,0.64062,0.7098
12.36,0.36168,0.62952,11.969,0.43945,0.66406,0.72549
12.368,0.36168,0.65494,11.969,0.52539,0.63477,0.68039
12.376,0.36168,0.67742,11.812,0.67578,0.56055,0.57451
12.384,0.36168,0.69697,11.812,0.91016,0.42969,0.41961
12.392,0.36168,0.71261,11.812,0.96875,0.33594,0.36471
12.4,0.36266,0.72434,11.89,0.66406,0.35547,0.53922
12.408,0.36266,0.73509,11.89,0.4707,0.44531,0.66471
12.416,0.36364,0.74585,11.969,0.375,0.50586,0.71569
12.424,0.36364,0.75367,12.008,0.41602,0.55469,0.7098
12.432,0.36461,0.75953,12.086,0.43555,0.60938,0.72157
12.44,0.36461,0.76344,12.125,0.43945,0.65039,0.72549
12.448,0.36559,0.76442,12.203,0.43945,0.66016,0.71569
12.456,0.36657,0.76246,12.321,0.43945,0.66016,0.72157
12.464,0.36755,0.75855,12.399,0.43945,0.66992,0.70588
12.472,0.36852,0.75269,12.516,0.43945,0.66016,0.72157
12.48,0.36852,0.74487,12.595,0.43945,0.67578,0.72549
12.488,0.3695,0.73607,12.634,0.44531,0.67969,0.72549
12.496,0.37048,0.72532,12.751,0.46094,0.66406,0.70588
12.504,0.37048,0.71359,12.751,0.44922,0.66016,0.70588
12.512,0.37146,0.6999,12.829,0.45508,0.66992,0.71569
12.52,0.37243,0.68524,12.751,0.44922,0.66016,0.72157
12.528,0.37439,0.66764,12.751,0.46484,0.6543,0.70588
12.536,0.37439,0.65005,12.712,0.46484,0.66406,0.69608
12.544,0.37537,0.63245,12.634,0.46484,0.6543,0.7
12.552,0.37634,0.61388,12.634,0.47461,0.66016,0.69608
12.56,0.37732,0.59629,12.634,0.4707,0.66016,0.70588
12.568,0.37732,0.57967,12.712,0.49023,0.66992,0.70588
12.576,0.37732,0.56207,12.751,0.48438,0.66016,0.69608
12.584,0.3783,0.54643,12.712,0.5,0.66406,0.68039
12.592,0.3783,0.53275,12.595,0.51953,0.66016,0.67647
12.6,0.3783,0.52004,12.516,0.53906,0.65039,0.65098
12.608,0.3783,0.50733,12.595,0.54492,0.6543,0.6549
12.616,0.3783,0.4956,12.595,0.56055,0.66016,0.63529
12.624,0.3783,0.48387,12.516,0.57422,0.6543,0.63529
12.632,0.3783,0.47312,12.399,0.58398,0.64453,0.63529
12.64,0.37928,0.46237,12.203,0.61523,0.64062,0.61569
12.648,0.38025,0.44966,12.008,0.59961,0.64453,0.64118
12.656,0.38025,0.43695,11.812,0.61523,0.62891,0.61569
12.664,0.38123,0.4262,11.656,0.61914,0.61523,0.60588
12.672,0.38221,0.4174,11.46,0.60547,0.61523,0.61569
12.68,0.38221,0.40958,11.186,0.5957,0.61914,0.62549
12.688,0.38221,0.40371,11.03,0.58008,0.625,0.62941
12.696,0.38221,0.39883,10.874,0.53516,0.61914,0.6549
12.704,0.38221,0.39296,10.717,0.51953,0.62891,0.66078
12.712,0.38123,0.38807,10.521,0.48438,0.63477,0.6902
12.72,0.38025,0.38319,10.326,0.46484,0.64453,0.70588
12.728,0.37928,0.37732,10.13,0.46094,0.64453,0.70588
12.736,0.37928,0.37243,9.8957,0.43945,0.64453,0.7098
12.744,0.3783,0.36657,9.7001,0.43555,0.65039,0.72549
12.752,0.37732,0.36168,9.5046,0.43945,0.63477,0.7
12.76,0.37634,0.35679,9.2699,0.41992,0.6543,0.73529
12.768,0.37537,0.35288,8.9961,0.42578,0.6543,0.72157
12.776,0.37341,0.348,8.7614,0.43555,0.6543,0.71569
12.784,0.37243,0.34311,8.3703,0.42578,0.6543,0.71569
12.792,0.37048,0.34018,8.0574,0.42969,0.66406,0.72549
12.8,0.36852,0.33724,7.7444,0.41992,0.67578,0.73137
12.808,0.36657,0.33333,7.4315,0.41602,0.66992,0.73529
12.816,0.36461,0.32942,7.2751,0.41992,0.67578,0.73137
12.824,0.36168,0.32551,7.1186,0.41992,0.66016,0.72157
12.832,0.35875,0.32063,7.0013,0.42578,0.66016,0.71569
12.84,0.35582,0.31574,6.884,0.41602,0.66992,0.74118
12.848,0.35191,0.31085,6.6884,0.42578,0.67578,0.72157
12.856,0.348,0.30596,6.4928,0.43945,0.67578,0.7098
12.864,0.34409,0.30108,6.2581,0.42578,0.69922,0.72549
12.872,0.3392,0.29619,6.0235,0.42969,0.70898,0.72549
12.88,0.33431,0.2913,5.8279,0.43555,0.72461,0.74118
12.888,0.32942,0.28837,5.6323,0.45508,0.67969,0.70588
12.896,0.32454,0.28641,5.5541,0.43945,0.66016,0.72157
12.904,0.32063,0.28543,5.515,0.42969,0.6543,0.72157
12.912,0.31672,0.28543,5.4368,0.41602,0.64453,0.71569
12.92,0.31085,0.28935,5.3976,0.40039,0.6543,0.74118
12.928,0.30499,0.29717,5.3976,0.39453,0.64062,0.73529
12.936,0.29717,0.30987,5.4368,0.41602,0.64453,0.72157
12.944,0.29032,0.32845,5.4368,0.41992,0.66016,0.71569
12.952,0.28348,0.35191,5.4368,0.41602,0.66406,0.74118
12.96,0.27664,0.38025,5.3976,0.41016,0.66016,0.73529
12.968,0.27077,0.41056,5.3194,0.4043,0.6543,0.73137
12.976,0.26393,0.44379,5.2412,0.40039,0.66992,0.74118
12.984,0.25709,0.47605,5.1239,0.41602,0.67578,0.73529
12.992,0.25024,0.5044,4.9674,0.4043,0.66992,0.73137
13,0.24242,0.52981,4.8109,0.40039,0.66992,0.73529
13.008,0.23558,0.55718,4.6936,0.40039,0.66992,0.73137
13.016,0.22874,0.58456,4.498,0.375,0.69922,0.77059
13.024,0.22092,0.60997,4.3807,0.37109,0.67969,0.74118
13.032,0.21408,0.63245,4.3416,0.51562,0.65039,0.67647
13.04,0.20821,0.65298,4.2634,0.7207,0.55078,0.5549
13.048,0.20137,0.67058,4.2634,0.90039,0.42969,0.41961
13.056,0.1955,0.68622,4.3807,0.77539,0.38477,0.41569
13.064,0.19062,0.6999,4.498,0.53906,0.44922,0.62941
13.072,0.18475,0.71065,4.6936,0.38477,0.54492,0.73529
13.08,0.18084,0.71848,4.9674,0.30469,0.5957,0.78039
13.088,0.17693,0.72336,5.1239,0.30078,0.63477,0.7902
13.096,0.17302,0.72532,5.3976,0.39062,0.66992,0.74118
13.104,0.17009,0.7263,5.6323,0.38086,0.69531,0.7549
13.112,0.16716,0.72532,5.7497,0.375,0.69922,0.76667
13.12,0.1652,0.72239,5.867,0.39453,0.70508,0.75098
13.128,0.16422,0.71848,5.9452,0.40039,0.69922,0.75098
13.136,0.16227,0.71261,5.9452,0.39453,0.69531,0.7451
13.144,0.16129,0.70381,5.9452,0.39453,0.69922,0.75098
13.152,0.16031,0.69306,5.867,0.40039,0.69922,0.7451
13.16,0.15934,0.68133,5.8279,0.39453,0.69922,0.75098
13.168,0.15836,0.66764,5.7497,0.39453,0.69531,0.75098
13.176,0.15738,0.65298,5.7106,0.41602,0.68945,0.73137
13.184,0.15738,0.63734,5.6323,0.41016,0.69922,0.7451
13.192,0.15738,0.6217,5.5541,0.41992,0.68945,0.75098
13.2,0.15738,0.60606,5.515,0.42578,0.68555,0.73137
13.208,0.1564,0.58944,5.4368,0.42578,0.68945,0.73529
13.216,0.1564,0.57185,5.3976,0.43555,0.68555,0.73137
13.224,0.1564,0.55327,5.3194,0.44531,0.68555,0.72549
13.232,0.15543,0.53568,5.3194,0.44922,0.68945,0.72549
13.24,0.15543,0.51808,5.2412,0.46484,0.67578,0.70588
13.248,0.15445,0.50049,5.1239,0.48047,0.67578,0.7
13.256,0.15445,0.48387,4.8892,0.48047,0.66992,0.70588
13.264,0.15347,0.46921,4.5763,0.50977,0.66992,0.68627
13.272,0.15347,0.45455,4.146,0.51953,0.66992,0.67647
13.28,0.15347,0.44184,3.6375,0.54492,0.6543,0.6549
13.288,0.15347,0.43011,3.1291,0.56055,0.66016,0.66078
13.296,0.15445,0.42033,2.6988,0.58398,0.65039,0.62941
13.304,0.15445,0.40958,2.3859,0.5957,0.64453,0.62549
13.312,0.15445,0.3998,2.1903,0.58398,0.6543,0.6451
13.32,0.15445,0.39101,2.1512,0.58984,0.62891,0.63529
13.328,0.15445,0.38221,2.1512,0.59961,0.62891,0.61569
13.336,0.15347,0.37341,2.1903,0.57422,0.61523,0.63529
13.344,0.15249,0.36461,2.1903,0.57031,0.62891,0.65098
13.352,0.15152,0.35582,2.073,0.55469,0.62891,0.65098
13.36,0.14956,0.34897,1.8383,0.52539,0.62891,0.66471
13.368,0.14956,0.34213,1.5645,0.48438,0.62891,0.68627
13.376,0.14858,0.33529,1.369,0.46484,0.64453,0.7
13.384,0.14858,0.32942,1.3299,0.45508,0.6543,0.72157
13.392,0.14858,0.32551,1.3299,0.43945,0.6543,0.73137
13.4,0.14858,0.32258,1.369,0.43945,0.64453,0.71569
13.408,0.14761,0.31769,1.5254,0.43945,0.64062,0.7098
13.416,0.14761,0.31378,1.6428,0.42969,0.6543,0.72549
13.424,0.14761,0.3089,1.7601,0.42969,0.6543,0.72549
13.432,0.14761,0.30499,1.8774,0.41016,0.6543,0.73529
13.44,0.14761,0.29912,1.9948,0.43555,0.6543,0.72549
13.448,0.14858,0.29423,2.073,0.43945,0.6543,0.73137
13.456,0.14858,0.28935,2.1512,0.42578,0.6543,0.73529
13.464,0.14858,0.28446,2.1903,0.43945,0.65039,0.7098
13.472,0.14858,0.27859,2.3077,0.43945,0.6543,0.72549
13.48,0.14858,0.2737,2.3859,0.43945,0.6543,0.72157
13.488,0.14956,0.27077,2.5033,0.43555,0.6543,0.72549
13.496,0.14956,0.26882,2.5815,0.42969,0.6543,0.73137
13.504,0.15054,0.26491,2.6988,0.44531,0.64453,0.71569
13.512,0.15249,0.26197,2.8162,0.45508,0.6543,0.71569
13.52,0.15445,0.25806,2.8944,0.43945,0.66992,0.72549
13.528,0.1564,0.25415,2.9335,0.46094,0.67578,0.7098
13.536,0.15836,0.25024,3.09,0.46484,0.68945,0.71569
13.544,0.16031,0.24633,3.2464,0.45508,0.70508,0.72157
13.552,0.16325,0.24242,3.4029,0.46094,0.67969,0.7098
13.56,0.1652,0.23851,3.5202,0.44922,0.6543,0.72157
13.568,0.16716,0.23558,3.7158,0.46094,0.65039,0.7098
13.576,0.16911,0.23363,3.8722,0.44531,0.64062,0.72157
13.584,0.17107,0.23363,4.0287,0.42969,0.63477,0.72549
13.592,0.17302,0.23754,4.0287,0.4043,0.63477,0.7451
13.6,0.17595,0.24536,3.9505,0.41602,0.63477,0.73137
13.608,0.17791,0.25904,3.8331,0.42578,0.63477,0.72157
13.616,0.18084,0.27761,3.6375,0.43555,0.64062,0.71569
13.624,0.1828,0.30205,3.442,0.43945,0.63477,0.72549
13.632,0.18475,0.3304,3.2073,0.42578,0.64453,0.72549
13.64,0.18671,0.3607,3.0117,0.41992,0.6543,0.73529
13.648,0.18866,0.39296,2.777,0.41992,0.6543,0.73529
13.656,0.18964,0.42522,2.5033,0.41992,0.66016,0.7451
13.664,0.19159,0.4565,2.3077,0.41016,0.6543,0.74118
13.672,0.19257,0.48778,2.1512,0.39453,0.6543,0.75098
13.68,0.19453,0.51711,1.9948,0.41016,0.67578,0.75098
13.688,0.19453,0.54154,1.9948,0.4043,0.69531,0.7549
13.696,0.1955,0.56207,2.1512,0.50586,0.64062,0.6902
13.704,0.1955,0.58358,2.3077,0.69531,0.55469,0.56471
13.712,0.19648,0.60313,2.5033,0.9043,0.44922,0.42941
13.72,0.19648,0.62072,2.6206,0.93555,0.38477,0.4
13.728,0.19648,0.63539,2.8162,0.61523,0.44531,0.59608
13.736,0.19746,0.64614,3.1291,0.44922,0.5293,0.7098
13.744,0.19746,0.65591,3.442,0.32422,0.58398,0.77647
13.752,0.19844,0.66178,3.8331,0.31445,0.62891,0.78627
13.76,0.19844,0.66569,4.146,0.375,0.65039,0.76078
13.768,0.19941,0.66764,4.3807,0.39453,0.67578,0.75098
13.776,0.20039,0.66667,4.5763,0.39453,0.67969,0.76078
13.784,0.20137,0.66373,4.6936,0.39453,0.68945,0.7451
13.792,0.20235,0.65885,4.8109,0.39062,0.68555,0.76667
13.8,0.20332,0.652,4.8892,0.40039,0.68555,0.75098
13.808,0.20528,0.64418,4.8892,0.4043,0.68555,0.75098
13.816,0.20626,0.63441,4.8892,0.41016,0.68945,0.7451
13.824,0.20821,0.62268,4.8892,0.41602,0.67578,0.73529
13.832,0.20919,0.60997,4.8892,0.41992,0.67578,0.73137
13.84,0.21017,0.59531,4.9674,0.41602,0.67578,0.74118
13.848,0.21212,0.58065,4.9674,0.41992,0.68555,0.75098
13.856,0.2131,0.56403,5.0065,0.41992,0.67578,0.73137
13.864,0.21505,0.54643,5.1239,0.42578,0.67969,0.74118
13.872,0.21701,0.52884,5.2412,0.43555,0.66992,0.71569
13.88,0.21896,0.51124,5.4368,0.42969,0.67578,0.74118
13.888,0.22092,0.49756,5.7106,0.43945,0.66406,0.72157
13.896,0.22287,0.48387,6.0626,0.43945,0.66992,0.72549
13.904,0.22581,0.47019,6.4928,0.46094,0.6543,0.7098
13.912,0.22678,0.4565,6.884,0.46484,0.6543,0.70588
13.92,0.22874,0.44282,7.0795,0.46484,0.65039,0.70588
13.928,0.23069,0.43011,6.9622,0.49023,0.64453,0.69608
13.936,0.23167,0.41838,6.6493,0.51562,0.65039,0.67647
13.944,0.23363,0.40762,6.0626,0.53516,0.62891,0.6549
13.952,0.23656,0.39785,5.3976,0.54492,0.63477,0.66471
13.96,0.23851,0.38905,4.7718,0.57031,0.61914,0.64118
13.968,0.24145,0.38025,4.2634,0.58008,0.625,0.6451
13.976,0.2434,0.37243,3.8722,0.58398,0.60547,0.62941
13.984,0.24536,0.36461,3.7158,0.59961,0.60547,0.62549
13.992,0.24731,0.35777,3.5593,0.60938,0.59961,0.60588
14,0.24927,0.35288,3.5202,0.60547,0.5957,0.61569
14.008,0.25024,0.34702,3.442,0.58984,0.58398,0.61569
14.016,0.25122,0.34115,3.4029,0.56055,0.59961,0.64118
14.024,0.2522,0.33529,3.4029,0.53906,0.60547,0.65098
14.032,0.25318,0.32942,3.4029,0.51562,0.61914,0.68039
14.04,0.25318,0.32454,3.442,0.49414,0.62891,0.6902
14.048,0.25318,0.31965,3.6375,0.47461,0.61914,0.68627
14.056,0.25318,0.31476,3.8722,0.46484,0.625,0.70588
14.064,0.2522,0.31085,4.0678,0.46484,0.63477,0.7
14.072,0.2522,0.30792,4.2634,0.44922,0.62891,0.70588
14.08,0.25122,0.30401,4.3807,0.44531,0.62891,0.70588
14.088,0.25122,0.30205,4.5763,0.44922,0.62891,0.7098
14.096,0.25122,0.3001,4.7718,0.46094,0.62891,0.68627
14.104,0.25122,0.29619,5.0065,0.45508,0.62891,0.7
14.112,0.2522,0.29326,5.3976,0.43555,0.63477,0.73137
14.12,0.2522,0.28935,5.7497,0.44531,0.64062,0.73529
14.128,0.25318,0.28543,6.0626,0.4707,0.63477,0.6902
14.136,0.25415,0.28152,6.3755,0.46094,0.63477,0.7
14.144,0.25611,0.27761,6.6493,0.45508,0.62891,0.70588
14.152,0.25709,0.2737,6.9622,0.46484,0.62891,0.6902
14.16,0.25904,0.26979,7.1969,0.44922,0.62891,0.7
14.168,0.26002,0.26588,7.4315,0.46484,0.63477,0.70588
14.176,0.26197,0.26197,7.7053,0.46484,0.62891,0.6902
14.184,0.26393,0.25806,7.9009,0.46484,0.64062,0.7
14.192,0.26491,0.25611,8.0574,0.47461,0.66016,0.69608
14.2,0.26686,0.25415,8.2529,0.4707,0.67578,0.7
14.208,0.26784,0.2522,8.3703,0.49023,0.68555,0.6902
14.216,0.26882,0.24927,8.5658,0.49023,0.65039,0.68039
14.224,0.26979,0.24633,8.6441,0.49023,0.62891,0.68039
14.232,0.27077,0.2434,8.6832,0.48047,0.61914,0.68039
14.24,0.27175,0.24242,8.7614,0.46094,0.61523,0.69608
14.248,0.27273,0.24242,8.8396,0.45508,0.60547,0.70588
14.256,0.27273,0.24731,8.8787,0.46094,0.60547,0.68627
14.264,0.2737,0.25513,8.957,0.44922,0.60938,0.7
14.272,0.2737,0.26882,8.9961,0.46484,0.61523,0.6902
14.28,0.27468,0.28641,9.0743,0.4707,0.62891,0.7
14.288,0.27468,0.30694,9.0743,0.46484,0.61914,0.7
14.296,0.2737,0.32845,9.1525,0.45508,0.625,0.69608
14.304,0.2737,0.35582,9.1525,0.43945,0.62891,0.71569
14.312,0.27273,0.38514,9.1525,0.46094,0.62891,0.7
14.32,0.27273,0.4174,9.1525,0.44922,0.62891,0.70588
14.328,0.27175,0.45064,9.0743,0.45508,0.62891,0.68627
14.336,0.27077,0.48289,8.9961,0.44531,0.63477,0.70588
14.344,0.27077,0.5132,8.9961,0.43555,0.65039,0.71569
14.352,0.26979,0.54154,9.0743,0.45508,0.66016,0.72157
14.36,0.26979,0.56794,9.1525,0.56445,0.60938,0.63529
14.368,0.27077,0.5914,9.1916,0.76562,0.50586,0.51569
14.376,0.27077,0.61193,9.309,0.95508,0.38477,0.38431
14.384,0.27175,0.62757,9.5046,0.83008,0.34961,0.38039
14.392,0.27175,0.6393,9.7001,0.57422,0.4043,0.6
14.4,0.27273,0.65005,9.8957,0.43555,0.5,0.68627
14.408,0.27273,0.65982,10.091,0.375,0.54492,0.72549
14.416,0.2737,0.66764,10.326,0.39062,0.58398,0.73137
14.424,0.27566,0.67253,10.521,0.43555,0.625,0.70588
14.432,0.27761,0.67546,10.639,0.43945,0.6543,0.71569
14.44,0.28152,0.67546,10.756,0.42969,0.66016,0.72549
14.448,0.28446,0.67449,10.834,0.45508,0.6543,0.69608
14.456,0.28935,0.67058,10.874,0.45508,0.66406,0.71569
14.464,0.29423,0.66569,10.952,0.44922,0.66016,0.70588
14.472,0.3001,0.65885,10.874,0.46484,0.6543,0.70588
14.48,0.30499,0.64907,10.874,0.47461,0.66406,0.7
14.488,0.30987,0.6393,10.756,0.46484,0.6543,0.70588
14.496,0.31574,0.62854,10.717,0.47461,0.66406,0.7
14.504,0.31965,0.61584,10.639,0.48047,0.6543,0.68627
14.512,0.32454,0.60215,10.639,0.48047,0.6543,0.68039
14.52,0.3304,0.58749,10.561,0.48047,0.66016,0.69608
14.528,0.33627,0.57185,10.561,0.49023,0.6543,0.6902
14.536,0.34213,0.55718,10.561,0.49023,0.65039,0.68039
14.544,0.34897,0.54154,10.561,0.49023,0.64453,0.68627
14.552,0.35386,0.5259,10.561,0.51562,0.6543,0.67647
14.56,0.35973,0.51222,10.639,0.51562,0.64453,0.67059
14.568,0.36461,0.49756,10.756,0.5293,0.64453,0.6549
14.576,0.3695,0.48387,10.952,0.53906,0.65039,0.66078
14.584,0.37439,0.47312,11.186,0.53516,0.64062,0.66471
14.592,0.38025,0.46432,11.382,0.56055,0.63477,0.6451
14.6,0.38514,0.45455,11.46,0.58398,0.63477,0.62941
14.608,0.39101,0.44477,11.46,0.60547,0.62891,0.6098
14.616,0.39589,0.435,11.382,0.61914,0.625,0.6
14.624,0.40078,0.4262,11.265,0.64453,0.61523,0.58431
14.632,0.40469,0.41838,11.069,0.65039,0.61914,0.5902
14.64,0.40958,0.41153,10.952,0.6543,0.60938,0.58431
14.648,0.41251,0.40469,10.834,0.66406,0.60547,0.57451
14.656,0.41642,0.3998,10.756,0.6543,0.60938,0.5902
14.664,0.41935,0.39394,10.717,0.6543,0.58984,0.58431
14.672,0.42326,0.38905,10.717,0.64453,0.5957,0.58431
14.68,0.4262,0.38416,10.717,0.61523,0.59961,0.60588
14.688,0.42913,0.38025,10.756,0.58398,0.59961,0.62549
14.696,0.43206,0.38123,10.756,0.56445,0.5957,0.63529
14.704,0.43402,0.38319,10.756,0.53906,0.60547,0.65098
14.712,0.43597,0.38221,10.756,0.5293,0.5957,0.63529
14.72,0.43891,0.3783,10.834,0.52539,0.61523,0.66078
14.728,0.43988,0.37439,10.834,0.51562,0.625,0.68039
14.736,0.44086,0.37048,10.834,0.51953,0.625,0.66471
14.744,0.44184,0.36657,10.834,0.50586,0.625,0.67647
14.752,0.44379,0.36266,10.874,0.50977,0.625,0.68039
14.76,0.44379,0.35777,10.952,0.51562,0.625,0.67647
14.768,0.44477,0.35288,11.069,0.50977,0.60938,0.67059
14.776,0.44477,0.34897,11.147,0.51562,0.61914,0.66471
14.784,0.44575,0.34506,11.147,0.51562,0.61523,0.66078
14.792,0.44575,0.34213,11.186,0.51953,0.60547,0.6451
14.8,0.44575,0.33822,11.186,0.51562,0.625,0.67059
14.808,0.44575,0.33431,11.265,0.50977,0.63477,0.69608
14.816,0.44575,0.3304,11.343,0.52539,0.62891,0.66078
14.824,0.44575,0.32649,11.343,0.51562,0.625,0.66471
14.832,0.44575,0.32258,11.382,0.52539,0.62891,0.66078
14.84,0.44673,0.31965,11.382,0.53516,0.64453,0.66078
14.848,0.44673,0.31574,11.382,0.53516,0.6543,0.65098
14.856,0.4477,0.31183,11.382,0.53906,0.66406,0.6549
14.864,0.44868,0.30694,11.382,0.53516,0.66992,0.6549
14.872,0.44868,0.30303,11.382,0.55078,0.62891,0.63529
14.88,0.44966,0.29912,11.382,0.53516,0.60938,0.65098
14.888,0.44966,0.29619,11.499,0.50977,0.61914,0.68039
14.896,0.44966,0.29521,11.499,0.49414,0.60938,0.68039
14.904,0.44966,0.29619,11.578,0.48438,0.60547,0.68039
14.912,0.45064,0.3001,11.578,0.48438,0.60938,0.68627
14.92,0.45064,0.30792,11.656,0.48047,0.60547,0.68039
14.928,0.45064,0.3216,11.656,0.5,0.60547,0.66471
14.936,0.45064,0.34018,11.656,0.49023,0.61914,0.68039
14.944,0.45064,0.36364,11.578,0.5,0.625,0.67647
14.952,0.44966,0.39101,11.578,0.49023,0.61914,0.67647
14.96,0.44966,0.42033,11.578,0.48047,0.62891,0.68039
14.968,0.44966,0.45161,11.578,0.49023,0.62891,0.68039
14.976,0.44966,0.48387,11.578,0.48438,0.62891,0.68039
14.984,0.44868,0.51222,11.578,0.47461,0.64453,0.7098
14.992,0.44868,0.53763,11.578,0.48047,0.63477,0.7
15,0.44868,0.565,11.499,0.4707,0.66016,0.69608
15.008,0.44868,0.59238,11.46,0.50977,0.66992,0.68039
15.016,0.4477,0.61877,11.382,0.63477,0.58984,0.6
15.024,0.4477,0.64321,11.343,0.85938,0.47461,0.4549
15.032,0.44673,0.66471,11.343,0.98438,0.35547,0.3549
15.04,0.44673,0.68231,11.382,0.76953,0.33594,0.46471
15.048,0.44673,0.69795,11.382,0.52539,0.41992,0.62549
15.056,0.44575,0.70968,11.46,0.40039,0.49023,0.70588
15.064,0.44575,0.71945,11.499,0.39062,0.54492,0.7
15.072,0.44673,0.72727,11.578,0.43945,0.60938,0.71569
15.08,0.44673,0.73216,11.695,0.46484,0.63477,0.7
15.088,0.4477,0.73509,11.812,0.46094,0.66016,0.70588
15.096,0.4477,0.73509,11.969,0.4707,0.66406,0.69608
15.104,0.4477,0.73412,12.086,0.46484,0.66992,0.70588
15.112,0.44868,0.73118,12.125,0.46484,0.67578,0.70588
15.12,0.44868,0.72727,12.125,0.46094,0.66992,0.69608
15.128,0.44868,0.72141,12.086,0.4707,0.66406,0.69608
15.136,0.44966,0.71261,12.086,0.46484,0.66992,0.70588
15.144,0.45064,0.70186,12.008,0.47461,0.66406,0.69608
15.152,0.45161,0.69013,12.008,0.46484,0.66406,0.70588
15.16,0.45259,0.67644,12.008,0.48047,0.66992,0.69608
15.168,0.45455,0.6608,12.008,0.47461,0.67578,0.7
15.176,0.45552,0.64418,12.008,0.48438,0.67578,0.69608
15.184,0.4565,0.62757,12.008,0.47461,0.66406,0.6902
15.192,0.45748,0.6129,12.086,0.48047,0.66406,0.6902
15.2,0.45846,0.59726,12.125,0.50586,0.66016,0.68039
15.208,0.45943,0.58065,12.203,0.5,0.66406,0.68627
15.216,0.46041,0.565,12.282,0.51562,0.66406,0.68039
15.224,0.46041,0.54839,12.282,0.52539,0.65039,0.66078
15.232,0.46041,0.53275,12.125,0.5293,0.6543,0.67059
15.24,0.46139,0.51808,12.125,0.55078,0.64453,0.65098
15.248,0.46139,0.50342,12.125,0.56445,0.6543,0.63529
15.256,0.46139,0.48974,12.282,0.58398,0.6543,0.62941
15.264,0.46139,0.47703,12.282,0.58398,0.6543,0.64118
15.272,0.46139,0.46628,12.203,0.60938,0.64062,0.61569
15.28,0.46139,0.4565,12.125,0.625,0.65039,0.6098
15.288,0.46139,0.44868,12.086,0.63477,0.63477,0.60588
15.296,0.46139,0.44184,12.086,0.65039,0.62891,0.5902
15.304,0.46041,0.435,11.969,0.64453,0.61914,0.5902
15.312,0.46041,0.42815,11.89,0.63477,0.60938,0.60588
15.32,0.46041,0.42131,11.812,0.625,0.60938,0.6098
15.328,0.46041,0.41447,11.773,0.60547,0.59961,0.59608
15.336,0.45943,0.4086,11.773,0.58398,0.61523,0.62549
15.344,0.45943,0.40274,11.773,0.57422,0.625,0.62941
15.352,0.45943,0.39687,11.773,0.53516,0.62891,0.65098
15.36,0.45943,0.39003,11.773,0.51562,0.61914,0.66078
15.368,0.45846,0.38416,11.773,0.50586,0.61914,0.67647
15.376,0.45846,0.3783,11.773,0.5,0.62891,0.67647
15.384,0.45748,0.37439,11.773,0.49023,0.62891,0.68039
15.392,0.4565,0.37048,11.812,0.49023,0.625,0.68039
15.4,0.45455,0.36657,11.89,0.48047,0.62891,0.7
15.408,0.45357,0.36266,11.89,0.4707,0.62891,0.7
15.416,0.45161,0.35777,11.969,0.46484,0.62891,0.6902
15.424,0.44966,0.35288,12.008,0.49023,0.64062,0.69608
15.432,0.4477,0.34604,12.008,0.5,0.62891,0.68039
15.44,0.44575,0.34018,12.086,0.5,0.64062,0.68039
15.448,0.44477,0.33431,12.086,0.49023,0.62891,0.68039
15.456,0.44282,0.32845,12.086,0.49023,0.62891,0.6902
15.464,0.44184,0.32356,12.125,0.49023,0.63477,0.68627
15.472,0.43988,0.31965,12.125,0.48047,0.64062,0.69608
15.48,0.43891,0.31672,12.203,0.46484,0.63477,0.70588
15.488,0.43793,0.31378,12.282,0.49023,0.62891,0.68039
15.496,0.43695,0.31183,12.321,0.50586,0.65039,0.67647
15.504,0.43597,0.30792,12.321,0.49414,0.66016,0.68039
15.512,0.435,0.30401,12.282,0.5,0.67578,0.66471
15.52,0.43304,0.29912,12.282,0.52539,0.67578,0.66078
15.528,0.43206,0.29521,12.282,0.51562,0.64453,0.67059
15.536,0.43011,0.2913,12.282,0.5,0.62891,0.68039
15.544,0.42815,0.28935,12.282,0.48438,0.61914,0.68039
15.552,0.42717,0.28837,12.282,0.4707,0.61523,0.7
15.56,0.4262,0.2913,12.282,0.4707,0.60547,0.68039
15.568,0.42522,0.29912,12.203,0.46484,0.61523,0.6902
15.576,0.42424,0.31085,12.125,0.47461,0.625,0.68627
15.584,0.42326,0.32454,12.008,0.48047,0.62891,0.68627
15.592,0.42229,0.34213,11.969,0.48047,0.62891,0.6902
15.6,0.42131,0.36657,11.89,0.46484,0.625,0.6902
15.608,0.42033,0.39492,11.812,0.46484,0.61914,0.6902
15.616,0.41935,0.42717,11.695,0.46094,0.64453,0.7
15.624,0.41935,0.45943,11.656,0.45508,0.64062,0.70588
15.632,0.41838,0.49169,11.578,0.46094,0.63477,0.70588
15.64,0.41838,0.52297,11.499,0.46484,0.64062,0.6902
15.648,0.4174,0.5523,11.382,0.44531,0.63477,0.72549
15.656,0.4174,0.57967,11.265,0.43945,0.66016,0.7098
15.664,0.41642,0.60411,11.186,0.46484,0.66992,0.71569
15.672,0.41642,0.62659,11.186,0.57031,0.60938,0.63529
15.68,0.41544,0.64712,11.186,0.77539,0.50586,0.51569
15.688,0.41544,0.66178,11.186,0.94531,0.375,0.3902
15.696,0.41447,0.67253,11.265,0.76953,0.34961,0.47059
15.704,0.41447,0.68426,11.343,0.50977,0.42969,0.62941
15.712,0.41544,0.69404,11.343,0.35938,0.50586,0.73529
15.72,0.41544,0.70283,11.343,0.33984,0.55078,0.75098
15.728,0.41642,0.71065,11.343,0.4043,0.60938,0.7098
15.736,0.41642,0.71652,11.343,0.41602,0.6543,0.72549
15.744,0.41642,0.71945,11.265,0.41016,0.67578,0.73137
15.752,0.4174,0.72141,11.186,0.4043,0.67578,0.73137
15.76,0.4174,0.72043,11.147,0.39453,0.68945,0.7451
15.768,0.4174,0.7175,11.03,0.40039,0.69922,0.74118
15.776,0.4174,0.71065,10.874,0.40039,0.69922,0.7451
15.784,0.4174,0.70283,10.717,0.40039,0.70508,0.7451
15.792,0.4174,0.69404,10.561,0.39453,0.69922,0.75098
15.8,0.4174,0.68231,10.443,0.38477,0.69922,0.7549
15.808,0.41838,0.6696,10.404,0.4043,0.69531,0.74118
15.816,0.41838,0.65591,10.326,0.41016,0.69922,0.73529
15.824,0.41935,0.64125,10.209,0.40039,0.70508,0.7451
15.832,0.42033,0.62659,9.9348,0.40039,0.69922,0.75098
15.84,0.42033,0.61095,9.5046,0.4043,0.70508,0.74118
15.848,0.42131,0.59629,9.0743,0.40039,0.69531,0.75098
15.856,0.42131,0.58065,8.6832,0.41602,0.68555,0.7098
15.864,0.42033,0.56403,8.4485,0.41992,0.69922,0.73529
15.872,0.41935,0.54936,8.3311,0.41602,0.69922,0.74118
15.88,0.4174,0.5347,8.2138,0.42969,0.70508,0.72549
15.888,0.41544,0.52297,8.1356,0.43945,0.70898,0.74118
15.896,0.41251,0.51222,7.9009,0.46094,0.69922,0.7098
15.904,0.40958,0.50049,7.3924,0.46484,0.69922,0.71569
15.912,0.40665,0.48876,6.6884,0.49414,0.69531,0.6902
15.92,0.40371,0.47801,6.0235,0.5,0.68945,0.69608
15.928,0.3998,0.46725,5.515,0.5293,0.68555,0.66078
15.936,0.39589,0.45748,5.3976,0.53516,0.68945,0.6549
15.944,0.39101,0.4477,5.515,0.53516,0.67578,0.6549
15.952,0.3871,0.43891,5.5541,0.53516,0.66992,0.66078
15.96,0.38123,0.42913,5.5541,0.56055,0.66406,0.63529
15.968,0.37634,0.42033,5.3976,0.55078,0.66992,0.65098
15.976,0.3695,0.41153,5.0847,0.53906,0.67578,0.66471
15.984,0.36364,0.40469,4.7718,0.51953,0.66016,0.68039
15.992,0.35777,0.39785,4.4589,0.50977,0.6543,0.67059
16,0.35191,0.39003,4.2634,0.48438,0.6543,0.68039
16.008,0.34702,0.38221,4.0678,0.45508,0.6543,0.70588
16.016,0.34213,0.37439,3.9505,0.43555,0.66016,0.72157
16.024,0.33529,0.36755,3.9505,0.41992,0.66016,0.72157
16.032,0.32845,0.3607,4.0287,0.41016,0.66016,0.73529
16.04,0.32063,0.35484,4.0678,0.41602,0.6543,0.72157
16.048,0.31281,0.34897,4.0287,0.41992,0.67578,0.73529
16.056,0.30401,0.34409,3.8722,0.40039,0.67578,0.75098
16.064,0.29521,0.3392,3.7549,0.4043,0.67578,0.7451
16.072,0.28641,0.33529,3.6375,0.41016,0.66992,0.73529
16.08,0.27859,0.33138,3.5593,0.4043,0.67578,0.74118
16.088,0.27077,0.32942,3.6375,0.41602,0.67578,0.73529
16.096,0.26295,0.32747,3.7158,0.41992,0.67578,0.7451
16.104,0.25513,0.32551,3.7549,0.39453,0.66992,0.75098
16.112,0.24829,0.32356,3.7549,0.41602,0.66992,0.73529
16.12,0.24145,0.32063,3.6375,0.41602,0.67578,0.73137
16.128,0.23558,0.31867,3.442,0.41992,0.67578,0.73529
16.136,0.22874,0.31574,3.4029,0.41016,0.66992,0.73137
16.144,0.2219,0.31281,3.3246,0.41992,0.67578,0.72549
16.152,0.21603,0.3089,3.3246,0.41992,0.66992,0.73137
16.16,0.21017,0.30401,3.3246,0.42969,0.67969,0.72157
16.168,0.20528,0.29912,3.4029,0.42578,0.69531,0.74118
16.176,0.20039,0.29423,3.442,0.43945,0.70898,0.71569
16.184,0.1955,0.29032,3.6375,0.43555,0.72461,0.72549
16.192,0.19159,0.28739,3.7549,0.44531,0.69531,0.72549
16.2,0.18768,0.28348,4.0287,0.43945,0.66406,0.72157
16.208,0.18377,0.27957,4.146,0.43555,0.6543,0.72549
16.216,0.18084,0.27859,4.2634,0.41992,0.64453,0.72549
16.224,0.17889,0.28055,4.2634,0.4043,0.63477,0.72549
16.232,0.17595,0.28739,4.1851,0.40039,0.64062,0.73529
16.24,0.17302,0.29814,4.0287,0.39453,0.63477,0.73137
16.248,0.17107,0.31574,3.7549,0.39453,0.65039,0.75098
16.256,0.16911,0.33724,3.5202,0.4043,0.64453,0.74118
16.264,0.16716,0.36364,3.2464,0.40039,0.65039,0.73137
16.272,0.1652,0.39296,3.09,0.41992,0.64453,0.72549
16.28,0.16422,0.41935,2.9335,0.39062,0.65039,0.73529
16.288,0.16227,0.44477,2.8162,0.375,0.66406,0.76667
16.296,0.16129,0.47312,2.777,0.39062,0.66016,0.7549
16.304,0.15934,0.50244,2.6988,0.38477,0.66992,0.76078
16.312,0.15934,0.53079,2.6988,0.39453,0.67578,0.7549
16.32,0.15836,0.55718,2.777,0.375,0.68555,0.77059
16.328,0.15836,0.58162,2.8162,0.4043,0.69531,0.75098
16.336,0.15836,0.60313,2.9335,0.49414,0.65039,0.7
16.344,0.15738,0.6217,3.09,0.69922,0.54492,0.56471
16.352,0.1564,0.63734,3.2073,0.89453,0.42969,0.41569
16.36,0.15543,0.65103,3.442,0.7793,0.39453,0.4098
16.368,0.15347,0.66178,3.7158,0.55078,0.46094,0.62941
16.376,0.15347,0.6696,4.0287,0.39453,0.55078,0.7451
16.384,0.15249,0.67546,4.2634,0.31445,0.60547,0.7902
16.392,0.15249,0.6784,4.498,0.30469,0.64453,0.79608
16.4,0.15152,0.68035,4.6936,0.37109,0.66992,0.7549
16.408,0.15152,0.68035,4.8109,0.38477,0.68555,0.75098
16.416,0.15152,0.6784,4.8892,0.38086,0.69922,0.77647
16.424,0.15054,0.67449,4.9674,0.38086,0.69922,0.77059
16.432,0.15054,0.66862,4.9674,0.38477,0.69922,0.76667
16.44,0.15054,0.65982,4.9674,0.39062,0.70508,0.77059
16.448,0.15054,0.65005,4.8892,0.375,0.69922,0.77647
16.456,0.15152,0.63832,4.8109,0.39453,0.69531,0.75098
16.464,0.15152,0.62463,4.6936,0.39453,0.68945,0.75098
16.472,0.15249,0.60997,4.6545,0.40039,0.69531,0.7451
16.48,0.15347,0.59629,4.5763,0.40039,0.68945,0.7451
16.488,0.15347,0.58162,4.498,0.41016,0.69531,0.75098
16.496,0.15445,0.56598,4.4589,0.41602,0.68555,0.75098
16.504,0.15543,0.54936,4.3416,0.41992,0.67578,0.73137
16.512,0.1564,0.53177,4.1851,0.41992,0.67969,0.7549
16.52,0.15738,0.51613,4.1851,0.41992,0.67969,0.75098
16.528,0.15934,0.50049,4.3807,0.43555,0.67969,0.72549
16.536,0.16031,0.48583,4.6545,0.43945,0.67578,0.72549
16.544,0.16129,0.47214,4.8109,0.46094,0.67578,0.7098
16.552,0.16227,0.45943,5.0847,0.46484,0.66992,0.71569
16.56,0.16422,0.44673,5.2021,0.47461,0.66406,0.69608
16.568,0.1652,0.435,5.2412,0.49414,0.66992,0.68627
16.576,0.16716,0.42326,5.0847,0.51562,0.6543,0.68039
16.584,0.16911,0.41447,4.5763,0.52539,0.6543,0.67647
16.592,0.17204,0.40762,3.9505,0.53906,0.6543,0.67059
16.6,0.17302,0.39883,3.3246,0.55469,0.64062,0.65098
16.608,0.17498,0.39003,2.777,0.57031,0.64453,0.6549
16.616,0.17693,0.38123,2.2686,0.58398,0.63477,0.64118
16.624,0.17889,0.37341,1.8774,0.58398,0.62891,0.65098
16.632,0.17986,0.36559,1.6819,0.58008,0.61914,0.63529
16.64,0.18182,0.35875,1.5645,0.57031,0.60938,0.6549
16.648,0.1828,0.35288,1.5254,0.56055,0.60547,0.62941
16.656,0.18475,0.34702,1.369,0.54492,0.61914,0.6549
16.664,0.18573,0.34115,1.2516,0.51562,0.62891,0.68039
16.672,0.18671,0.33724,1.1343,0.49023,0.63477,0.69608
16.68,0.18768,0.33333,1.0169,0.46094,0.64453,0.71569
16.688,0.18964,0.33138,0.82138,0.44531,0.64062,0.71569
16.696,0.18964,0.32845,0.70404,0.44922,0.6543,0.72549
16.704,0.19062,0.32551,0.62581,0.42969,0.6543,0.74118
16.712,0.19062,0.3216,0.62581,0.41992,0.65039,0.73529
16.72,0.19062,0.31769,0.62581,0.41016,0.65039,0.75098
16.728,0.19159,0.31378,0.70404,0.42578,0.6543,0.72549
16.736,0.19159,0.3089,0.89961,0.42969,0.66016,0.73137
16.744,0.19159,0.29717,1.1343,0.43945,0.6543,0.72549
16.752,0.19257,0.2825,1.4472,0.42578,0.65039,0.73137
16.76,0.19257,0.27273,1.6819,0.42969,0.64453,0.71569
16.768,0.19355,0.26588,1.8774,0.41992,0.6543,0.73529
16.776,0.19355,0.26002,1.9948,0.44531,0.6543,0.72157
16.784,0.19453,0.25709,2.073,0.43945,0.6543,0.71569
16.792,0.1955,0.25415,2.073,0.43945,0.66992,0.7451
16.8,0.19648,0.25122,2.073,0.42969,0.66016,0.73137
16.808,0.19844,0.24731,2.1512,0.43555,0.6543,0.72549
16.816,0.20039,0.2434,2.2686,0.43945,0.66016,0.72157
16.824,0.20332,0.23851,2.4641,0.44531,0.66016,0.72549
16.832,0.20528,0.2346,2.777,0.42969,0.67578,0.74118
16.84,0.20821,0.23069,3.0117,0.44531,0.68945,0.72549
16.848,0.21114,0.22581,3.3246,0.44922,0.70508,0.73137
16.856,0.21408,0.2219,3.5593,0.46484,0.68555,0.70588
16.864,0.21701,0.21799,3.7549,0.46094,0.6543,0.7
16.872,0.21994,0.21505,4.0287,0.44922,0.6543,0.73529
16.88,0.22287,0.21408,4.1851,0.43555,0.64062,0.72549
16.888,0.22581,0.21603,4.2634,0.41992,0.625,0.72157
16.896,0.22874,0.21994,4.1851,0.41992,0.63477,0.73529
16.904,0.23167,0.22874,4.0678,0.41602,0.63477,0.74118
16.912,0.23363,0.24242,3.8722,0.41992,0.63477,0.72549
16.92,0.23558,0.261,3.6375,0.41992,0.64062,0.73137
16.928,0.23851,0.28543,3.2464,0.41992,0.63477,0.73529
16.936,0.23949,0.31378,2.9335,0.43555,0.64062,0.72549
16.944,0.24145,0.34604,2.6988,0.41016,0.62891,0.7451
16.952,0.24242,0.37928,2.5033,0.4043,0.64453,0.73137
16.96,0.2434,0.41447,2.4641,0.41992,0.6543,0.73529
16.968,0.24438,0.4477,2.4641,0.41016,0.6543,0.75098
16.976,0.24536,0.48094,2.5815,0.41602,0.66016,0.7451
16.984,0.24633,0.50733,2.6988,0.39062,0.66406,0.7549
16.992,0.24731,0.53079,2.8944,0.40039,0.66406,0.74118
17,0.24731,0.55425,3.09,0.50586,0.66992,0.69608
17.008,0.24829,0.57771,3.3246,0.68555,0.56055,0.58431
17.016,0.24829,0.59726,3.5593,0.89453,0.44922,0.43922
17.024,0.24829,0.61486,3.7549,0.93945,0.38477,0.40392
17.032,0.24927,0.62952,4.0287,0.62891,0.41992,0.58039
17.04,0.24927,0.64027,4.2634,0.44922,0.50977,0.69608
17.048,0.25024,0.64907,4.498,0.33594,0.58008,0.76667
17.056,0.25122,0.65494,4.8109,0.32031,0.61914,0.78039
17.064,0.2522,0.65787,5.1239,0.35938,0.62891,0.7549
17.072,0.25318,0.65787,5.4368,0.41016,0.66016,0.73529
17.08,0.25415,0.65494,5.7106,0.4043,0.67578,0.7451
17.088,0.25611,0.65103,5.867,0.41016,0.67578,0.74118
17.096,0.25709,0.64418,6.0626,0.40039,0.67578,0.7451
17.104,0.25904,0.63636,6.3364,0.41016,0.66992,0.72549
17.112,0.261,0.62659,6.4928,0.41602,0.67578,0.74118
17.12,0.26295,0.61486,6.6884,0.41992,0.66992,0.73137
17.128,0.26491,0.60117,6.884,0.41992,0.66992,0.72549
17.136,0.26686,0.58651,7.0795,0.41992,0.66406,0.72549
17.144,0.26882,0.57087,7.2751,0.42969,0.66016,0.72157
17.152,0.27077,0.55425,7.5098,0.42578,0.66406,0.72549
17.16,0.27273,0.53666,7.7444,0.43945,0.66992,0.72157
17.168,0.27468,0.51906,7.94,0.43945,0.6543,0.7
17.176,0.27761,0.50244,8.2529,0.44922,0.6543,0.70588
17.184,0.27957,0.48778,8.5658,0.46484,0.6543,0.7
17.192,0.28152,0.4741,8.957,0.46484,0.6543,0.7
17.2,0.28348,0.46041,9.3872,0.4707,0.65039,0.69608
17.208,0.28641,0.44673,9.7783,0.48047,0.64062,0.68627
17.216,0.28837,0.43402,10.091,0.49414,0.64453,0.68039
17.224,0.29032,0.42131,10.248,0.50586,0.64062,0.68039
17.232,0.29228,0.4086,10.326,0.51562,0.62891,0.67059
17.24,0.29521,0.39589,10.248,0.53906,0.62891,0.65098
17.248,0.29717,0.38514,10.091,0.56055,0.625,0.63529
17.256,0.29912,0.37537,9.7783,0.57422,0.61914,0.62941
17.264,0.30108,0.36657,9.309,0.58398,0.60547,0.6098
17.272,0.30303,0.35777,8.8787,0.59961,0.61523,0.62549
17.28,0.30499,0.35093,8.5658,0.5957,0.59961,0.6098
17.288,0.30596,0.34604,8.3703,0.62891,0.60547,0.59608
17.296,0.30694,0.34115,8.3311,0.62891,0.5957,0.5902
17.304,0.30792,0.33627,8.3703,0.61914,0.58984,0.59608
17.312,0.30792,0.33236,8.5267,0.60547,0.58008,0.58431
17.32,0.30792,0.32747,8.5658,0.58398,0.59961,0.62941
17.328,0.30694,0.32356,8.5658,0.56445,0.5957,0.62549
17.336,0.30596,0.31769,8.4485,0.5293,0.60938,0.6451
17.344,0.30596,0.31281,8.3703,0.50586,0.61914,0.67059
17.352,0.30401,0.3089,8.2529,0.49414,0.62891,0.68039
17.36,0.30303,0.30499,8.1356,0.49023,0.62891,0.67647
17.368,0.30205,0.30205,8.0574,0.47461,0.61914,0.68627
17.376,0.30108,0.29814,8.0182,0.46094,0.62891,0.70588
17.384,0.3001,0.29717,8.0574,0.47461,0.62891,0.68039
17.392,0.3001,0.29521,8.0574,0.49023,0.63477,0.68039
17.4,0.3001,0.29326,8.1356,0.48438,0.62891,0.68039
17.408,0.3001,0.2913,8.2138,0.48047,0.63477,0.6902
17.416,0.3001,0.28837,8.2529,0.48047,0.64062,0.7
17.424,0.30108,0.28543,8.3703,0.4707,0.62891,0.68627
17.432,0.30108,0.2825,8.4485,0.48438,0.61523,0.67059
17.44,0.30205,0.27859,8.5267,0.49414,0.63477,0.68039
17.448,0.30401,0.27468,8.5658,0.5,0.63477,0.68039
17.456,0.30499,0.27175,8.5658,0.50586,0.62891,0.68039
17.464,0.3089,0.26882,8.6441,0.49414,0.61914,0.67059
17.472,0.31183,0.26588,8.7614,0.5,0.62891,0.68039
17.48,0.31672,0.26491,8.8787,0.5,0.62891,0.68039
17.488,0.32063,0.26393,8.957,0.52539,0.64062,0.6549
17.496,0.32649,0.26295,8.9961,0.5293,0.65039,0.6549
17.504,0.33138,0.261,9.0743,0.52539,0.66992,0.6549
17.512,0.33724,0.25806,9.1525,0.5293,0.67969,0.68039
17.52,0.34311,0.25513,9.1916,0.53906,0.63477,0.6549
17.528,0.348,0.2522,9.1916,0.5293,0.61914,0.6549
17.536,0.35288,0.25024,9.2699,0.51562,0.60547,0.66471
17.544,0.35679,0.25024,9.2699,0.51562,0.60547,0.6549
17.552,0.3607,0.2522,9.309,0.49414,0.60547,0.67647
17.56,0.36461,0.25806,9.3872,0.49414,0.59961,0.67059
17.568,0.36852,0.26979,9.4654,0.50977,0.60547,0.66471
17.576,0.37243,0.28543,9.5828,0.51562,0.60547,0.66078
17.584,0.37537,0.30303,9.7001,0.50586,0.60938,0.67059
17.592,0.3783,0.32356,9.8175,0.49414,0.60938,0.68039
17.6,0.38123,0.34995,9.8957,0.5,0.60938,0.67059
17.608,0.38416,0.38123,10.013,0.50586,0.62891,0.68039
17.616,0.3871,0.41544,10.091,0.5,0.625,0.67059
17.624,0.38905,0.45064,10.13,0.50586,0.62891,0.68039
17.632,0.39101,0.48583,10.13,0.49414,0.61914,0.67647
17.64,0.39296,0.52004,10.13,0.49023,0.625,0.68039
17.648,0.39492,0.5523,10.091,0.48047,0.64062,0.67647
17.656,0.39589,0.5826,10.091,0.50977,0.65039,0.6902
17.664,0.39785,0.60899,10.013,0.64453,0.58984,0.6
17.672,0.3998,0.63245,10.091,0.86523,0.4707,0.44902
17.68,0.40176,0.65005,10.13,0.98438,0.35938,0.36471
17.688,0.40274,0.66373,10.209,0.7793,0.3457,0.46471
17.696,0.40469,0.67546,10.326,0.55078,0.41992,0.60588
17.704,0.40665,0.68719,10.521,0.41602,0.50586,0.7
17.712,0.4086,0.69599,10.717,0.39062,0.55469,0.7098
17.72,0.41153,0.70283,10.874,0.44922,0.58398,0.68627
17.728,0.41447,0.70772,11.069,0.47461,0.62891,0.68039
17.736,0.4174,0.7087,11.186,0.48047,0.6543,0.70588
17.744,0.42033,0.70772,11.343,0.47461,0.6543,0.7
17.752,0.42326,0.70479,11.46,0.47461,0.6543,0.70588
17.76,0.4262,0.6999,11.46,0.47461,0.6543,0.7
17.768,0.43011,0.69208,11.382,0.48047,0.65039,0.68627
17.776,0.43402,0.68133,11.343,0.49023,0.64453,0.68039
17.784,0.43793,0.67058,11.343,0.48438,0.6543,0.69608
17.792,0.44184,0.65885,11.343,0.49023,0.6543,0.68627
17.8,0.44575,0.64418,11.343,0.48047,0.6543,0.69608
17.808,0.44966,0.62854,11.343,0.5,0.66016,0.68627
17.816,0.45357,0.61193,11.343,0.49414,0.6543,0.68039
17.824,0.45748,0.59433,11.265,0.49414,0.65039,0.68039
17.832,0.46139,0.57674,11.265,0.49414,0.6543,0.68627
17.84,0.4653,0.56012,11.186,0.51562,0.64062,0.66078
17.848,0.46921,0.5435,11.265,0.52539,0.6543,0.67647
17.856,0.47312,0.52688,11.382,0.53516,0.65039,0.68039
17.864,0.47605,0.51124,11.382,0.52539,0.6543,0.66471
17.872,0.47898,0.49658,11.382,0.53906,0.64453,0.6549
17.88,0.48192,0.48387,11.46,0.55469,0.64062,0.6451
17.888,0.48485,0.47312,11.499,0.57031,0.64453,0.6549
17.896,0.48778,0.46237,11.656,0.57422,0.63477,0.63529
17.904,0.49071,0.45161,11.695,0.60547,0.62891,0.6098
17.912,0.49267,0.44184,11.695,0.625,0.62891,0.60588
17.92,0.49462,0.43304,11.773,0.65039,0.61523,0.57059
17.928,0.4956,0.42522,11.695,0.6543,0.62891,0.60588
17.936,0.49658,0.41838,11.656,0.66016,0.61914,0.5902
17.944,0.49756,0.41056,11.499,0.66406,0.60547,0.58431
17.952,0.49853,0.40371,11.382,0.67578,0.60547,0.57451
17.96,0.49951,0.39785,11.343,0.66406,0.60938,0.57059
17.968,0.49951,0.39198,11.343,0.66016,0.60547,0.5902
17.976,0.50049,0.38612,11.343,0.66992,0.59961,0.58039
17.984,0.50049,0.38123,11.382,0.61914,0.5957,0.6
17.992,0.50049,0.37732,11.382,0.58984,0.59961,0.61569
18,0.50049,0.37243,11.46,0.57031,0.5957,0.62941
18.008,0.50049,0.36755,11.46,0.55078,0.60547,0.65098
18.016,0.50049,0.36266,11.46,0.5293,0.60938,0.6549
18.024,0.50049,0.35777,11.46,0.5293,0.61523,0.66078
18.032,0.50049,0.35386,11.499,0.52539,0.61914,0.67059
18.04,0.49951,0.34897,11.499,0.52539,0.61523,0.67059
18.048,0.49853,0.34506,11.499,0.51953,0.61523,0.67647
18.056,0.49756,0.34018,11.499,0.51562,0.625,0.68039
18.064,0.49658,0.33529,11.578,0.51562,0.62891,0.67647
18.072,0.49462,0.32942,11.656,0.51562,0.625,0.67059
18.08,0.49365,0.32454,11.695,0.5293,0.61914,0.6549
18.088,0.49267,0.32063,11.773,0.52539,0.61914,0.65098
18.096,0.49169,0.31574,11.773,0.52539,0.61914,0.6549
18.104,0.49071,0.31183,11.773,0.51562,0.62891,0.6902
18.112,0.48876,0.30792,11.812,0.53516,0.62891,0.66471
18.12,0.48778,0.30499,11.89,0.5293,0.62891,0.6549
18.128,0.48583,0.30108,12.008,0.52539,0.625,0.66078
18.136,0.48387,0.29814,12.086,0.52539,0.62891,0.67059
18.144,0.48289,0.29423,12.086,0.53516,0.63477,0.65098
18.152,0.48192,0.29032,12.086,0.55078,0.62891,0.62941
18.16,0.47996,0.28543,12.008,0.53906,0.66992,0.66078
18.168,0.47898,0.28152,12.008,0.53516,0.66016,0.65098
18.176,0.47801,0.27859,11.969,0.55078,0.64062,0.6549
18.184,0.47703,0.27664,11.969,0.53516,0.625,0.66471
18.192,0.47605,0.2737,11.969,0.53516,0.61523,0.65098
18.2,0.47507,0.27175,12.008,0.50977,0.60938,0.67059
18.208,0.4741,0.2737,12.086,0.5,0.60547,0.67647
18.216,0.4741,0.27859,12.086,0.49414,0.60547,0.68039
18.224,0.47312,0.28935,12.008,0.50586,0.60547,0.66078
18.232,0.47214,0.30499,11.969,0.5,0.60938,0.66471
18.24,0.47116,0.32747,11.89,0.50586,0.61914,0.66078
18.248,0.47116,0.35386,11.773,0.5,0.625,0.67647
18.256,0.47019,0.38612,11.695,0.51562,0.62891,0.68039
18.264,0.46921,0.42033,11.656,0.49023,0.62891,0.6902
18.272,0.46921,0.45552,11.695,0.49414,0.625,0.68039
18.28,0.46823,0.48583,11.695,0.48438,0.61914,0.68627
18.288,0.46823,0.51417,11.695,0.48047,0.64062,0.69608
18.296,0.46725,0.5435,11.656,0.48047,0.63477,0.69608
18.304,0.46725,0.57283,11.578,0.46484,0.66016,0.7
18.312,0.46628,0.60117,11.578,0.5,0.66406,0.67647
18.32,0.46628,0.62757,11.578,0.60547,0.60547,0.61961
18.328,0.4653,0.652,11.656,0.80469,0.50586,0.5
18.336,0.4653,0.67351,11.656,0.99414,0.38086,0.37059
18.344,0.46432,0.69306,11.656,0.83398,0.3457,0.42941
18.352,0.46432,0.70772,11.695,0.56445,0.40039,0.59608
18.36,0.46334,0.72043,11.695,0.42578,0.48047,0.6902
18.368,0.46334,0.73021,11.773,0.39453,0.53516,0.71569
18.376,0.46237,0.73705,11.773,0.43555,0.58984,0.70588
18.384,0.46237,0.74096,11.812,0.45508,0.62891,0.7
18.392,0.46139,0.74389,11.969,0.4707,0.6543,0.7
18.4,0.46139,0.74585,12.086,0.47461,0.66406,0.70588
18.408,0.46041,0.74585,12.203,0.46094,0.66406,0.70588
18.416,0.46041,0.74389,12.282,0.46484,0.66016,0.6902
18.424,0.46041,0.73998,12.399,0.47461,0.67578,0.70588
