Time [s], RESP, ABP, PLETH, II, III, V
0,-0.26817,73.755,2.176,0.65479,0.44482,0.67009
0.008,-0.26573,73.51,2.1359,0.6499,0.4502,0.67498
0.016,-0.26329,73.217,2.0968,0.60986,0.44482,0.73509
0.024,-0.26084,72.875,2.0547,0.58496,0.39502,0.76002
0.032,-0.25779,72.387,2.0088,0.62988,0.31494,0.76002
0.04,-0.25473,71.85,1.9619,0.85986,0.31006,0.68524
0.048,-0.25107,71.312,1.914,1.1997,0.50977,0.50978
0.056,-0.2474,70.677,1.869,1.2646,0.54492,0.37977
0.064,-0.24313,70.091,1.827,1.0898,0.7002,0.39492
0.072,-0.23885,69.505,1.781,0.9751,0.81982,0.37488
0.08,-0.23458,68.919,1.7341,0.81982,0.66504,0.45015
0.088,-0.2303,68.382,1.6882,0.70996,0.54004,0.58504
0.096,-0.22602,67.844,1.6432,0.6499,0.4751,0.68035
0.104,-0.22236,67.405,1.6012,0.62988,0.4502,0.71017
0.112,-0.21808,66.965,1.563,0.60986,0.43018,0.71994
0.12,-0.21503,66.526,1.5269,0.60498,0.4248,0.72532
0.128,-0.21136,66.184,1.4936,0.59521,0.41016,0.73509
0.136,-0.20831,65.793,1.4663,0.58984,0.40479,0.73021
0.144,-0.20525,65.353,1.4448,0.60498,0.39502,0.73509
0.152,-0.2022,65.012,1.4321,0.58984,0.39014,0.73509
0.16,-0.19914,64.621,1.4252,0.59521,0.3999,0.73509
0.168,-0.1967,64.279,1.4233,0.58984,0.37988,0.73509
0.176,-0.19365,63.986,1.4262,0.60498,0.37988,0.73509
0.184,-0.1912,63.693,1.4321,0.58984,0.35986,0.73509
0.192,-0.18876,63.448,1.4428,0.60498,0.35986,0.73509
0.2,-0.18693,63.155,1.4565,0.60498,0.35498,0.73021
0.208,-0.18448,63.009,1.4712,0.60498,0.35986,0.73021
0.216,-0.18204,62.667,1.4858,0.6001,0.35498,0.73021
0.224,-0.17899,62.423,1.5005,0.58496,0.3252,0.73509
0.232,-0.17593,62.179,1.5142,0.56006,0.31006,0.73509
0.24,-0.17227,61.934,1.5269,0.56494,0.30518,0.73021
0.248,-0.16677,61.788,1.5386,0.54004,0.29004,0.73509
0.256,-0.16127,61.739,1.5484,0.5498,0.29492,0.73021
0.264,-0.15455,61.983,1.5582,0.52979,0.29004,0.73509
0.272,-0.14783,63.009,1.566,0.53516,0.29004,0.73021
0.28,-0.14172,65.256,1.5728,0.52002,0.29004,0.73509
0.288,-0.135,69.163,1.5787,0.51514,0.29492,0.73509
0.296,-0.12889,74.634,1.5836,0.5249,0.29492,0.73509
0.304,-0.12217,80.788,1.5875,0.51514,0.29004,0.72532
0.312,-0.11423,86.991,1.5885,0.54004,0.30518,0.71994
0.32,-0.10629,92.853,1.5865,0.53516,0.31006,0.71505
0.328,-0.097129,98.372,1.5826,0.56494,0.31982,0.71505
0.336,-0.087966,103.35,1.5787,0.58496,0.3252,0.71505
0.344,-0.078803,107.8,1.5738,0.60498,0.34521,0.71505
0.352,-0.06964,111.22,1.5689,0.61475,0.3501,0.71505
0.36,-0.061087,113.51,1.564,0.63477,0.37012,0.71505
0.368,-0.052535,114.34,1.5572,0.64014,0.375,0.71017
0.376,-0.043372,113.86,1.5484,0.65479,0.38525,0.70528
0.384,-0.033598,112.19,1.5386,0.65479,0.38525,0.70528
0.392,-0.023824,109.56,1.5288,0.66992,0.3999,0.70039
0.4,-0.01405,106.48,1.5191,0.66504,0.41016,0.69501
0.408,-0.0042761,103.26,1.5093,0.6748,0.41016,0.69013
0.416,0.0054979,99.984,1.5015,0.66016,0.40479,0.69013
0.424,0.015272,96.858,1.4917,0.6748,0.41016,0.69013
0.432,0.025046,93.878,1.4829,0.65479,0.40479,0.69501
0.44,0.034209,91.094,1.4751,0.65479,0.40479,0.69501
0.448,0.043372,88.506,1.4692,0.6499,0.41016,0.69013
0.456,0.051924,86.161,1.4663,0.65479,0.40479,0.69013
0.464,0.060476,84.012,1.4643,0.64502,0.40479,0.69501
0.472,0.068418,81.912,1.4633,0.6499,0.41016,0.69501
0.48,0.07697,80.007,1.4633,0.63477,0.3999,0.70039
0.488,0.084911,78.102,1.4633,0.64014,0.3999,0.69013
0.496,0.092853,76.343,1.4633,0.62988,0.3999,0.70039
0.504,0.099572,74.731,1.4633,0.63477,0.40479,0.69501
0.512,0.1069,73.315,1.4604,0.64014,0.41016,0.69501
0.52,0.11301,71.996,1.4545,0.62988,0.3999,0.70039
0.528,0.11973,70.873,1.4467,0.64014,0.39502,0.70039
0.536,0.12523,69.994,1.4379,0.63477,0.3999,0.70528
0.544,0.13134,69.31,1.4291,0.64502,0.39502,0.71017
0.552,0.13684,68.821,1.4262,0.64014,0.38525,0.71994
0.56,0.14233,68.479,1.433,0.6499,0.38525,0.73509
0.568,0.14722,68.284,1.4545,0.64014,0.375,0.73509
0.576,0.15272,68.382,1.4936,0.62988,0.36523,0.73509
0.584,0.15761,68.528,1.5533,0.62988,0.35986,0.71505
0.592,0.16249,68.919,1.6344,0.66504,0.37988,0.69013
0.6,0.16738,69.407,1.7331,0.66504,0.3999,0.6652
0.608,0.17227,70.091,1.8426,0.66992,0.41504,0.65005
0.616,0.17715,70.873,1.9531,0.63477,0.41016,0.64027
0.624,0.18204,71.654,2.0567,0.6499,0.41992,0.64027
0.632,0.18693,72.485,2.1486,0.64014,0.43018,0.65005
0.64,0.19181,73.217,2.2239,0.64502,0.43018,0.64516
0.648,0.19731,73.999,2.2757,0.62988,0.41992,0.65005
0.656,0.20281,74.634,2.3089,0.625,0.4248,0.65005
0.664,0.2077,75.171,2.3333,0.60498,0.41504,0.6652
0.672,0.21258,75.611,2.3431,0.61475,0.4248,0.6652
0.68,0.21747,75.904,2.3372,0.60986,0.41504,0.67498
0.688,0.22297,76.099,2.3196,0.625,0.41992,0.67498
0.696,0.22969,76.197,2.2923,0.62988,0.41016,0.67498
0.704,0.23702,76.099,2.2581,0.61475,0.41504,0.67498
0.712,0.24557,75.904,2.218,0.625,0.41016,0.68035
0.72,0.25473,75.66,2.176,0.62012,0.41504,0.68035
0.728,0.26573,75.318,2.1329,0.58984,0.41016,0.73021
0.736,0.27673,74.878,2.088,0.56006,0.37012,0.78006
0.744,0.28955,74.292,2.0401,0.59521,0.30029,0.78006
0.752,0.30238,73.803,1.9961,0.81006,0.3501,0.71505
0.76,0.31399,73.168,1.956,1.1748,0.52979,0.53519
0.768,0.32621,72.631,1.914,1.2749,0.6001,0.34995
0.776,0.33781,71.996,1.869,1.1499,0.68994,0.28006
0.784,0.34942,71.41,1.8221,1.0049,0.81982,0.26979
0.792,0.36164,70.824,1.7732,0.86475,0.68994,0.41007
0.8,0.37447,70.287,1.7243,0.73486,0.55518,0.565
0.808,0.38729,69.749,1.6784,0.66504,0.48486,0.67009
0.816,0.40012,69.261,1.6383,0.62012,0.43994,0.71017
0.824,0.41173,68.821,1.6012,0.60498,0.41992,0.71994
0.832,0.42334,68.284,1.5679,0.58496,0.3999,0.73509
0.84,0.43372,67.844,1.5386,0.58984,0.39502,0.73998
0.848,0.44411,67.503,1.5171,0.5752,0.38525,0.74536
0.856,0.45449,67.112,1.5015,0.58008,0.38525,0.75024
0.864,0.46487,66.721,1.4868,0.56982,0.37988,0.75513
0.872,0.47526,66.428,1.4761,0.58496,0.375,0.75513
0.88,0.48564,66.184,1.4702,0.58008,0.35986,0.75513
0.888,0.49542,65.842,1.4712,0.58496,0.35986,0.75024
0.896,0.5058,65.598,1.478,0.59521,0.35986,0.75024
0.904,0.51497,65.353,1.4888,0.6001,0.35986,0.75024
0.912,0.52474,65.109,1.5015,0.60498,0.34521,0.75024
0.92,0.53207,64.865,1.5171,0.58496,0.33984,0.75024
0.928,0.54001,64.67,1.5337,0.6001,0.34521,0.74536
0.936,0.54612,64.474,1.5503,0.58496,0.33008,0.75513
0.944,0.55284,64.279,1.567,0.58496,0.3252,0.75024
0.952,0.55895,64.035,1.5816,0.5752,0.31006,0.74536
0.96,0.56567,63.937,1.5953,0.56494,0.30518,0.75024
0.968,0.57239,63.937,1.608,0.55518,0.30029,0.75024
0.976,0.57911,64.279,1.6197,0.56006,0.30518,0.74536
0.984,0.58461,65.695,1.6305,0.54004,0.30029,0.73509
0.992,0.59071,68.675,1.6403,0.54492,0.29492,0.73998
1,0.59499,73.608,1.65,0.53516,0.30029,0.74536
1.008,0.59988,80.007,1.6598,0.54492,0.31494,0.75024
1.016,0.60476,86.943,1.6676,0.53516,0.30518,0.73998
1.024,0.60965,93.536,1.6716,0.5498,0.31494,0.73998
1.032,0.61454,99.593,1.6735,0.56006,0.3252,0.73998
1.04,0.61943,105.06,1.6725,0.58496,0.33496,0.73509
1.048,0.6237,109.85,1.6696,0.58984,0.33008,0.73509
1.056,0.62859,113.81,1.6647,0.61475,0.35986,0.73509
1.064,0.63287,116.44,1.6579,0.625,0.37012,0.73021
1.072,0.63714,117.67,1.6481,0.6499,0.38525,0.72532
1.08,0.63958,117.47,1.6373,0.66016,0.39502,0.73021
1.088,0.64264,115.86,1.6266,0.66992,0.41016,0.72532
1.096,0.64386,113.32,1.6178,0.68018,0.41504,0.71994
1.104,0.64569,110.05,1.6109,0.6748,0.41992,0.72532
1.112,0.64508,106.53,1.6051,0.68018,0.43018,0.71994
1.12,0.64447,103.06,1.5992,0.68018,0.41992,0.71505
1.128,0.64142,99.593,1.5943,0.68018,0.43018,0.71505
1.136,0.63897,96.418,1.5894,0.6748,0.4248,0.71994
1.144,0.6347,93.341,1.5846,0.68018,0.43018,0.71505
1.152,0.63103,90.606,1.5806,0.65479,0.41992,0.71994
1.16,0.62553,88.115,1.5777,0.66504,0.4248,0.71505
1.168,0.62004,85.819,1.5758,0.66016,0.41504,0.71505
1.176,0.61148,83.67,1.5748,0.66016,0.41992,0.71017
1.184,0.60354,81.716,1.5748,0.65479,0.4248,0.71017
1.192,0.59255,79.86,1.5767,0.66016,0.43018,0.71505
1.2,0.58155,78.102,1.5806,0.6499,0.4248,0.71505
1.208,0.56811,76.441,1.5846,0.65479,0.43018,0.71505
1.216,0.55467,74.927,1.5894,0.64014,0.41504,0.71505
1.224,0.5394,73.559,1.5934,0.65479,0.4248,0.71017
1.232,0.52474,72.289,1.5953,0.64502,0.41992,0.71505
1.24,0.51008,71.215,1.5973,0.65479,0.4248,0.71017
1.248,0.49542,70.384,1.6002,0.64502,0.43018,0.71505
1.256,0.48076,69.603,1.6041,0.65479,0.41504,0.71505
1.264,0.4661,69.066,1.6109,0.66016,0.41504,0.71994
1.272,0.45021,68.675,1.6285,0.6748,0.41016,0.73021
1.28,0.43433,68.528,1.6628,0.66504,0.41504,0.73998
1.288,0.41723,68.528,1.7155,0.66504,0.41016,0.74536
1.296,0.40073,68.724,1.7898,0.65479,0.39502,0.73509
1.304,0.38546,69.066,1.8827,0.66992,0.40479,0.71505
1.312,0.3708,69.554,1.9873,0.68994,0.41992,0.68524
1.32,0.35675,70.189,2.0968,0.68506,0.43506,0.6652
1.328,0.34331,70.873,2.2033,0.6748,0.43994,0.65494
1.336,0.32987,71.605,2.3011,0.66016,0.43506,0.65005
1.344,0.31643,72.289,2.3851,0.6748,0.44482,0.64516
1.352,0.30299,72.973,2.4448,0.65479,0.43506,0.66031
1.36,0.29016,73.657,2.4839,0.66016,0.44482,0.6652
1.368,0.27734,74.243,2.5122,0.64014,0.43994,0.6652
1.376,0.26512,74.683,2.5259,0.6499,0.4502,0.6652
1.384,0.2529,74.927,2.5318,0.625,0.43506,0.67009
1.392,0.2413,75.122,2.5269,0.64502,0.45508,0.67498
1.4,0.23152,75.122,2.5044,0.62988,0.43506,0.67498
1.408,0.22175,75.073,2.4702,0.65479,0.4502,0.68035
1.416,0.21442,74.878,2.4291,0.64502,0.43994,0.68035
1.424,0.20709,74.487,2.3842,0.65479,0.4502,0.68524
1.432,0.20098,74.097,2.3343,0.64014,0.43994,0.69013
1.44,0.19548,73.608,2.2815,0.64502,0.43506,0.70039
1.448,0.19059,72.973,2.2326,0.58984,0.43018,0.7654
1.456,0.18632,72.387,2.1857,0.5752,0.375,0.78543
1.464,0.18326,71.752,2.1369,0.6499,0.31494,0.77517
1.472,0.18021,71.117,2.086,0.91504,0.3999,0.67498
1.48,0.17776,70.433,2.0323,1.2397,0.54004,0.47507
1.488,0.17593,69.798,1.9785,1.2549,0.56494,0.38514
1.496,0.1741,69.163,1.9247,1.0747,0.73975,0.3348
1.504,0.17288,68.528,1.8719,0.94482,0.81494,0.37488
1.512,0.17166,67.991,1.8211,0.7998,0.64502,0.49511
1.52,0.17043,67.503,1.7713,0.70996,0.54004,0.62512
1.528,0.1686,67.063,1.7224,0.66016,0.48486,0.70039
1.536,0.16677,66.623,1.6745,0.63477,0.45508,0.71994
1.544,0.16432,66.184,1.6305,0.625,0.43994,0.73021
1.552,0.16249,65.744,1.5963,0.61475,0.43506,0.74536
1.56,0.16005,65.353,1.567,0.62012,0.43018,0.75024
1.568,0.15761,65.012,1.5376,0.60986,0.41504,0.74536
1.576,0.15455,64.67,1.5132,0.61475,0.41992,0.74536
1.584,0.15211,64.377,1.4956,0.60498,0.41016,0.75513
1.592,0.14844,64.035,1.4839,0.62988,0.40479,0.75024
1.6,0.14478,63.79,1.4809,0.62012,0.39014,0.75024
1.608,0.13989,63.497,1.4839,0.63477,0.39502,0.74536
1.616,0.13561,63.253,1.4917,0.625,0.38525,0.73998
1.624,0.13134,62.911,1.5024,0.63477,0.38525,0.73509
1.632,0.12706,62.667,1.5152,0.625,0.37012,0.73509
1.64,0.12279,62.423,1.5288,0.62988,0.37012,0.73509
1.648,0.11851,62.179,1.5425,0.61475,0.35498,0.73509
1.656,0.11362,61.934,1.5523,0.62012,0.3501,0.73509
1.664,0.10874,61.69,1.5601,0.60498,0.33984,0.73509
1.672,0.10324,61.446,1.5679,0.6001,0.33496,0.73021
1.68,0.09774,61.251,1.5767,0.60498,0.33984,0.73021
1.688,0.091631,61.153,1.5846,0.58496,0.33008,0.73021
1.696,0.085522,61.495,1.5904,0.56982,0.31494,0.73021
1.704,0.078803,62.618,1.5963,0.56006,0.31494,0.73021
1.712,0.072694,65.06,1.6012,0.56494,0.3252,0.73021
1.72,0.066585,69.31,1.6051,0.55518,0.31982,0.73021
1.728,0.061087,74.927,1.6061,0.56494,0.31982,0.72532
1.736,0.0562,81.179,1.6041,0.56006,0.3252,0.73021
1.744,0.051313,87.284,1.6002,0.58496,0.33984,0.72532
1.752,0.045205,92.999,1.5973,0.58984,0.33496,0.71994
1.76,0.039707,98.177,1.5943,0.60498,0.3501,0.71505
1.768,0.033598,102.82,1.5894,0.62012,0.36523,0.71994
1.776,0.027489,106.87,1.5806,0.64014,0.37988,0.71505
1.784,0.021381,110.05,1.5689,0.6499,0.37988,0.71994
1.792,0.015272,112,1.5562,0.6748,0.3999,0.71505
1.8,0.0091631,112.49,1.5425,0.68018,0.41016,0.71505
1.808,0.0036652,111.76,1.5279,0.69482,0.41992,0.71505
1.816,-0.0030544,109.8,1.5152,0.68994,0.4248,0.71505
1.824,-0.009774,107.12,1.5044,0.69482,0.41992,0.71017
1.832,-0.017715,103.94,1.4966,0.68994,0.43018,0.70528
1.84,-0.025046,100.67,1.4917,0.7002,0.4248,0.70528
1.848,-0.032987,97.444,1.4907,0.68018,0.43506,0.71017
1.856,-0.040929,94.367,1.4917,0.68994,0.43018,0.71505
1.864,-0.049481,91.485,1.4917,0.68018,0.43506,0.71505
1.872,-0.058033,88.75,1.4917,0.68018,0.43018,0.71017
1.88,-0.065974,86.259,1.4917,0.66992,0.41504,0.71017
1.888,-0.073305,83.914,1.4917,0.6748,0.43018,0.71017
1.896,-0.080635,81.814,1.4917,0.68018,0.4248,0.71017
1.904,-0.087355,79.762,1.4927,0.66016,0.41992,0.70528
1.912,-0.094075,77.809,1.4946,0.66992,0.43506,0.70528
1.92,-0.10079,76.001,1.4956,0.65479,0.41992,0.71017
1.928,-0.10812,74.292,1.4966,0.66992,0.43018,0.71505
1.936,-0.11484,72.729,1.4956,0.65479,0.4248,0.71017
1.944,-0.12095,71.312,1.4917,0.66992,0.43994,0.71017
1.952,-0.12706,70.042,1.4868,0.66016,0.43018,0.70528
1.96,-0.13317,68.919,1.4819,0.66504,0.43506,0.70528
1.968,-0.13867,67.991,1.4751,0.66016,0.41504,0.71505
1.976,-0.14478,67.258,1.4692,0.66504,0.41504,0.71505
1.984,-0.15089,66.623,1.4682,0.65479,0.41016,0.73509
1.992,-0.15699,66.184,1.4761,0.68018,0.41016,0.73509
2,-0.1631,65.94,1.4985,0.65479,0.41016,0.73021
2.008,-0.16921,65.842,1.5406,0.66992,0.41016,0.71017
2.016,-0.17532,65.94,1.6031,0.6748,0.41016,0.69013
2.024,-0.18143,66.184,1.6823,0.70996,0.43994,0.68035
2.032,-0.18693,66.526,1.7742,0.68018,0.44482,0.66031
2.04,-0.19243,67.063,1.8749,0.68018,0.43994,0.65005
2.048,-0.19731,67.698,1.9648,0.66016,0.43506,0.65494
2.056,-0.2022,68.284,2.045,0.66504,0.44482,0.66031
2.064,-0.20648,68.919,2.1281,0.6499,0.43994,0.6652
2.072,-0.21075,69.554,2.2023,0.65479,0.43994,0.6652
2.08,-0.21503,70.189,2.262,0.63477,0.44482,0.67009
2.088,-0.21869,70.726,2.304,0.62988,0.4502,0.67498
2.096,-0.22236,71.166,2.3275,0.63477,0.45508,0.68035
2.104,-0.22541,71.605,2.3333,0.62988,0.43994,0.68524
2.112,-0.22847,71.947,2.3236,0.6499,0.44482,0.68524
2.12,-0.23091,72.094,2.3021,0.64014,0.43994,0.68524
2.128,-0.23335,72.24,2.2708,0.65479,0.44482,0.68524
2.136,-0.23519,72.192,2.2346,0.64014,0.43506,0.68524
2.144,-0.23641,72.045,2.1984,0.65479,0.44482,0.69013
2.152,-0.23702,71.801,2.1613,0.60986,0.43018,0.72532
2.16,-0.23763,71.508,2.1202,0.56982,0.43506,0.78543
2.168,-0.23763,71.117,2.0753,0.56494,0.3252,0.77517
2.176,-0.23763,70.629,2.0283,0.75977,0.30518,0.72532
2.184,-0.23702,70.091,1.9804,1.1001,0.46484,0.58504
2.192,-0.23641,69.554,1.9306,1.2397,0.54492,0.41007
2.2,-0.2358,69.066,1.8798,1.105,0.6499,0.41496
2.208,-0.23519,68.479,1.8299,0.98975,0.83496,0.39492
2.216,-0.23396,67.942,1.781,0.83984,0.70996,0.43988
2.224,-0.23274,67.356,1.7322,0.72998,0.56494,0.565
2.232,-0.23152,66.868,1.6843,0.66016,0.49023,0.6652
2.24,-0.2303,66.379,1.6383,0.64502,0.47021,0.71017
2.248,-0.22908,65.94,1.5992,0.61475,0.4502,0.71994
2.256,-0.22786,65.5,1.566,0.60986,0.4502,0.73021
2.264,-0.22663,65.109,1.5337,0.60498,0.43506,0.73509
2.272,-0.22541,64.67,1.5044,0.60498,0.4248,0.73509
2.28,-0.22419,64.279,1.48,0.60498,0.4248,0.73509
2.288,-0.22297,63.937,1.4614,0.60498,0.41504,0.73509
2.296,-0.22236,63.546,1.4497,0.60986,0.40479,0.73509
2.304,-0.22114,63.253,1.4438,0.62012,0.3999,0.73509
2.312,-0.22114,62.862,1.4438,0.625,0.40479,0.73509
2.32,-0.22053,62.569,1.4487,0.60986,0.38525,0.73021
2.328,-0.22053,62.227,1.4585,0.625,0.38525,0.73021
2.336,-0.22053,61.885,1.4731,0.61475,0.37988,0.73021
2.344,-0.22053,61.592,1.4878,0.62988,0.38525,0.73509
2.352,-0.22053,61.299,1.5005,0.625,0.37012,0.73509
2.36,-0.22053,61.006,1.5142,0.62012,0.36523,0.73509
2.368,-0.21991,60.664,1.5288,0.60498,0.3501,0.73509
2.376,-0.2193,60.322,1.5435,0.6001,0.35498,0.73509
2.384,-0.21869,60.029,1.5582,0.58496,0.33496,0.73509
2.392,-0.21808,59.883,1.5728,0.58008,0.33008,0.73509
2.4,-0.21747,59.883,1.5875,0.56006,0.3252,0.73509
2.408,-0.21625,60.322,1.5992,0.56006,0.31982,0.73509
2.416,-0.21503,61.592,1.608,0.54004,0.31494,0.73998
2.424,-0.21381,64.425,1.6149,0.5498,0.33008,0.73509
2.432,-0.21258,68.87,1.6207,0.54004,0.31982,0.73998
2.44,-0.21197,74.438,1.6256,0.55518,0.3252,0.73509
2.448,-0.21075,80.349,1.6305,0.56006,0.33496,0.73021
2.456,-0.21014,86.112,1.6354,0.58008,0.33984,0.71994
2.464,-0.20953,91.436,1.6393,0.58496,0.33984,0.71994
2.472,-0.20953,96.369,1.6403,0.62012,0.36523,0.71505
2.48,-0.20953,101.01,1.6383,0.62988,0.375,0.71505
2.488,-0.20953,105.01,1.6344,0.6499,0.38525,0.71505
2.496,-0.20953,107.99,1.6295,0.65479,0.39502,0.71505
2.504,-0.21014,109.75,1.6217,0.6748,0.39014,0.71505
2.512,-0.21014,110.09,1.6139,0.68018,0.41016,0.71017
2.52,-0.21075,109.17,1.607,0.6748,0.41504,0.70528
2.528,-0.21136,107.16,1.5982,0.69482,0.43018,0.70039
2.536,-0.21197,104.43,1.5904,0.68506,0.4248,0.69501
2.544,-0.21258,101.16,1.5836,0.69482,0.43506,0.69013
2.552,-0.21381,97.786,1.5777,0.68506,0.43018,0.69013
2.56,-0.21503,94.513,1.5718,0.69482,0.43506,0.69013
2.568,-0.21625,91.387,1.565,0.68018,0.4248,0.69013
2.576,-0.21747,88.359,1.5591,0.68506,0.43018,0.69013
2.584,-0.21869,85.673,1.5533,0.6748,0.4248,0.69501
2.592,-0.2193,83.182,1.5484,0.68018,0.43506,0.69501
2.6,-0.21991,80.886,1.5445,0.66016,0.41992,0.70039
2.608,-0.22053,78.737,1.5415,0.66504,0.43018,0.69501
2.616,-0.22175,76.685,1.5396,0.65479,0.41504,0.70039
2.624,-0.22236,74.731,1.5406,0.65479,0.4248,0.69501
2.632,-0.22358,72.924,1.5396,0.6499,0.41504,0.70039
2.64,-0.2248,71.215,1.5367,0.65479,0.4248,0.69501
2.648,-0.22541,69.749,1.5337,0.64502,0.41992,0.70528
2.656,-0.22602,68.431,1.5288,0.65479,0.4248,0.70039
2.664,-0.22602,67.307,1.5191,0.6499,0.41016,0.70528
2.672,-0.22602,66.281,1.5064,0.66504,0.40479,0.70528
2.68,-0.22663,65.5,1.4946,0.65479,0.39502,0.71505
2.688,-0.22663,64.914,1.4848,0.65479,0.39014,0.73021
2.696,-0.22724,64.474,1.4819,0.66016,0.39502,0.73509
2.704,-0.22786,64.23,1.4917,0.6499,0.38525,0.72532
2.712,-0.22908,64.181,1.5191,0.65479,0.3999,0.71017
2.72,-0.22969,64.23,1.565,0.6748,0.39502,0.68524
2.728,-0.23091,64.425,1.6315,0.68994,0.41016,0.68035
2.736,-0.23213,64.816,1.7155,0.6748,0.43018,0.66031
2.744,-0.23335,65.256,1.7977,0.66016,0.43506,0.64516
2.752,-0.23458,65.793,1.8807,0.6499,0.4248,0.64516
2.76,-0.2358,66.428,1.9756,0.65479,0.43018,0.65005
2.768,-0.23702,67.112,2.0714,0.64014,0.43506,0.65494
2.776,-0.23824,67.796,2.1584,0.63477,0.43994,0.65494
2.784,-0.23946,68.479,2.2317,0.62988,0.43506,0.66031
2.792,-0.2413,69.066,2.2884,0.62012,0.43506,0.6652
2.8,-0.24252,69.603,2.3294,0.60986,0.43506,0.6652
2.808,-0.24313,70.042,2.3539,0.62988,0.44482,0.6652
2.816,-0.24313,70.433,2.3617,0.625,0.43018,0.67498
2.824,-0.24252,70.677,2.3558,0.63477,0.43506,0.68035
2.832,-0.2413,70.873,2.3382,0.625,0.43506,0.68524
2.84,-0.24007,70.97,2.3118,0.64014,0.43506,0.68524
2.848,-0.23824,70.922,2.2815,0.625,0.41992,0.69013
2.856,-0.23641,70.824,2.2473,0.60498,0.41504,0.71505
2.864,-0.23396,70.531,2.2053,0.55518,0.39502,0.78006
2.872,-0.22969,70.238,2.1593,0.5498,0.31982,0.77517
2.88,-0.22541,69.945,2.1114,0.70508,0.28516,0.74536
2.888,-0.21991,69.505,2.0635,1.0449,0.44482,0.61486
2.896,-0.21442,69.066,2.0147,1.2397,0.5498,0.42473
2.904,-0.20892,68.528,1.9658,1.1348,0.62012,0.40469
2.912,-0.20342,68.089,1.9159,0.99512,0.81006,0.38514
2.92,-0.19792,67.698,1.8651,0.85498,0.71484,0.41984
2.928,-0.19181,67.258,1.8152,0.73486,0.56494,0.53519
2.936,-0.18571,66.819,1.7664,0.66016,0.48486,0.65005
2.944,-0.17899,66.428,1.7234,0.625,0.44482,0.70039
2.952,-0.17166,66.037,1.6843,0.60498,0.4248,0.71505
2.96,-0.16432,65.695,1.6432,0.6001,0.41504,0.73021
2.968,-0.15638,65.305,1.6031,0.58984,0.41016,0.73509
2.976,-0.14844,64.914,1.566,0.59521,0.3999,0.73021
2.984,-0.1405,64.621,1.5327,0.58496,0.38525,0.73509
2.992,-0.13256,64.23,1.5064,0.6001,0.39014,0.73021
3,-0.12523,63.937,1.4878,0.58496,0.38525,0.73509
3.008,-0.1179,63.546,1.478,0.6001,0.38525,0.73509
3.016,-0.11057,63.253,1.4741,0.58984,0.36523,0.73509
3.024,-0.10324,62.911,1.4761,0.60498,0.37012,0.73509
3.032,-0.094685,62.618,1.4829,0.58984,0.35498,0.73509
3.04,-0.085522,62.276,1.4927,0.60498,0.35986,0.73509
3.048,-0.075748,62.032,1.5024,0.58496,0.33984,0.73509
3.056,-0.065974,61.788,1.5132,0.59521,0.33984,0.73509
3.064,-0.056811,61.495,1.5249,0.58008,0.33008,0.73509
3.072,-0.047648,61.251,1.5367,0.58008,0.31494,0.73509
3.08,-0.038485,60.909,1.5494,0.56494,0.31494,0.73021
3.088,-0.029322,60.664,1.563,0.56006,0.30518,0.73509
3.096,-0.019548,60.567,1.5777,0.5498,0.29492,0.73509
3.104,-0.0091631,60.616,1.5924,0.54004,0.29004,0.73509
3.112,0.0018326,61.055,1.607,0.52002,0.29004,0.73509
3.12,0.013439,62.472,1.6207,0.52002,0.28516,0.73509
3.128,0.026268,65.402,1.6305,0.52002,0.29492,0.73509
3.136,0.039707,69.994,1.6383,0.51514,0.29004,0.73509
3.144,0.053757,75.757,1.6432,0.52002,0.30029,0.73509
3.152,0.067807,81.863,1.6461,0.51514,0.30518,0.73509
3.16,0.080635,87.724,1.6471,0.54004,0.31494,0.73021
3.168,0.093464,93.097,1.6481,0.55518,0.3252,0.73021
3.176,0.10507,98.177,1.6481,0.58496,0.33984,0.71994
3.184,0.11668,102.72,1.6471,0.59521,0.34521,0.71994
3.192,0.12889,106.53,1.6442,0.62012,0.37012,0.71505
3.2,0.14172,109.41,1.6403,0.625,0.36523,0.71505
3.208,0.15455,110.92,1.6354,0.65479,0.38525,0.71017
3.216,0.16799,111.17,1.6295,0.65479,0.39014,0.71017
3.224,0.1796,110.09,1.6227,0.66992,0.41016,0.70528
3.232,0.19181,108.04,1.6168,0.66504,0.40479,0.70528
3.24,0.2022,105.31,1.6109,0.68018,0.41504,0.70528
3.248,0.21319,102.18,1.6051,0.66992,0.41016,0.69501
3.256,0.22358,99.007,1.6002,0.68018,0.41992,0.69013
3.264,0.23396,95.881,1.5924,0.66504,0.41016,0.69013
3.272,0.24374,92.853,1.5846,0.66992,0.41016,0.69013
3.28,0.25412,89.971,1.5787,0.66016,0.41992,0.69013
3.288,0.26329,87.382,1.5728,0.65479,0.41016,0.69013
3.296,0.27245,84.94,1.5679,0.6499,0.41504,0.69013
3.304,0.28039,82.595,1.563,0.64502,0.41016,0.69013
3.312,0.28894,80.544,1.5601,0.65479,0.41504,0.69501
3.32,0.29566,78.59,1.5601,0.64014,0.41016,0.69501
3.328,0.30299,76.734,1.5601,0.6499,0.41992,0.69501
3.336,0.30849,75.073,1.5591,0.64014,0.41016,0.69501
3.344,0.3146,73.413,1.5572,0.6499,0.41992,0.69501
3.352,0.31888,71.996,1.5552,0.64014,0.41016,0.69501
3.36,0.32376,70.677,1.5513,0.65479,0.43018,0.69013
3.368,0.32743,69.505,1.5474,0.6499,0.4248,0.69013
3.376,0.33109,68.479,1.5415,0.65479,0.43018,0.69501
3.384,0.33415,67.747,1.5347,0.64502,0.41016,0.71017
3.392,0.3372,67.112,1.5308,0.65479,0.41016,0.71017
3.4,0.33965,66.721,1.5318,0.6499,0.38525,0.71994
3.408,0.3427,66.477,1.5464,0.66016,0.38525,0.72532
3.416,0.34514,66.428,1.5777,0.64502,0.37988,0.73509
3.424,0.34759,66.526,1.6266,0.66016,0.39014,0.70528
3.432,0.35003,66.868,1.694,0.65479,0.38525,0.68035
3.44,0.35247,67.356,1.781,0.68994,0.41992,0.66031
3.448,0.35553,67.942,1.8641,0.66504,0.43018,0.64516
3.456,0.35919,68.528,1.9482,0.66016,0.4248,0.64027
3.464,0.36286,69.31,2.0469,0.64502,0.4248,0.64027
3.472,0.36652,70.042,2.1437,0.6499,0.43506,0.64027
3.48,0.36958,70.824,2.2307,0.64014,0.43994,0.64027
3.488,0.37324,71.557,2.306,0.63477,0.43506,0.64027
3.496,0.3763,72.289,2.3646,0.62012,0.4248,0.65005
3.504,0.37996,72.924,2.4037,0.60986,0.43506,0.66031
3.512,0.38424,73.413,2.4252,0.62012,0.43018,0.6652
3.52,0.38913,73.852,2.4301,0.61475,0.4248,0.6652
3.528,0.39524,74.097,2.4242,0.62988,0.43506,0.67009
3.536,0.40134,74.292,2.4086,0.625,0.43018,0.67498
3.544,0.40684,74.292,2.3871,0.63477,0.43506,0.67498
3.552,0.41295,74.243,2.3597,0.625,0.43018,0.68035
3.56,0.41845,74.048,2.3265,0.62988,0.43506,0.68524
3.568,0.42395,73.755,2.2884,0.58008,0.41992,0.74536
3.576,0.43067,73.364,2.2473,0.55518,0.37988,0.78543
3.584,0.438,72.875,2.2043,0.58984,0.30518,0.79032
3.592,0.44655,72.387,2.1613,0.82471,0.37988,0.71994
3.6,0.45571,71.801,2.1173,1.1851,0.55518,0.54008
3.608,0.46549,71.215,2.0704,1.2949,0.62988,0.34506
3.616,0.47526,70.677,2.0205,1.1396,0.70996,0.26002
3.624,0.48564,70.042,1.9677,1.0098,0.83496,0.28983
3.632,0.49603,69.407,1.914,0.84473,0.68506,0.42473
3.64,0.50519,68.87,1.8612,0.72998,0.5498,0.58504
3.648,0.51497,68.382,1.8162,0.6499,0.47021,0.68035
3.656,0.52352,67.844,1.7742,0.62988,0.43506,0.71505
3.664,0.53268,67.405,1.7312,0.6001,0.41016,0.73509
3.672,0.54184,66.916,1.6911,0.59521,0.41504,0.73998
3.68,0.55101,66.477,1.654,0.58496,0.39502,0.75024
3.688,0.56017,66.135,1.6197,0.58984,0.39014,0.75513
3.696,0.56995,65.744,1.5914,0.58496,0.39502,0.75513
3.704,0.57789,65.353,1.5689,0.58008,0.38525,0.75513
3.712,0.58644,65.06,1.5523,0.59521,0.375,0.76002
3.72,0.59316,64.67,1.5435,0.58496,0.375,0.75513
3.728,0.60049,64.377,1.5396,0.58984,0.37012,0.75513
3.736,0.60721,64.132,1.5425,0.58496,0.35986,0.76002
3.744,0.61393,63.79,1.5503,0.6001,0.3501,0.76002
3.752,0.62004,63.497,1.563,0.58496,0.34521,0.76002
3.76,0.62676,63.155,1.5826,0.6001,0.3501,0.75513
3.768,0.63164,62.862,1.6041,0.58496,0.33008,0.75513
3.776,0.63714,62.569,1.6266,0.58984,0.33984,0.75513
3.784,0.64081,62.227,1.6471,0.58008,0.3252,0.75513
3.792,0.64508,61.934,1.6676,0.58496,0.31494,0.75024
3.8,0.64753,61.69,1.6852,0.5498,0.30029,0.75513
3.808,0.65058,61.495,1.6999,0.56006,0.31006,0.75024
3.816,0.6518,61.69,1.7136,0.53516,0.29492,0.75024
3.824,0.65363,62.667,1.7253,0.54004,0.30518,0.75024
3.832,0.65363,65.158,1.737,0.52002,0.29004,0.75513
3.84,0.65363,69.554,1.7458,0.53516,0.30518,0.75513
3.848,0.6518,75.611,1.7546,0.5249,0.29492,0.76002
3.856,0.65058,82.302,1.7634,0.53516,0.30518,0.75513
3.864,0.64753,88.799,1.7732,0.53516,0.31006,0.76002
3.872,0.64508,94.806,1.781,0.56006,0.31494,0.75024
3.88,0.64081,100.23,1.7849,0.56982,0.33496,0.75024
3.888,0.63714,105.11,1.7849,0.58984,0.33984,0.75024
3.896,0.63042,109.26,1.781,0.60498,0.35498,0.73998
3.904,0.62431,112.29,1.7752,0.63477,0.37012,0.73998
3.912,0.61515,114.05,1.7703,0.64502,0.37988,0.73998
3.92,0.6066,114.34,1.7644,0.66016,0.39014,0.73509
3.928,0.5956,113.37,1.7586,0.6748,0.40479,0.73509
3.936,0.58461,111.22,1.7546,0.66992,0.3999,0.73509
3.944,0.57178,108.39,1.7498,0.68506,0.41992,0.73021
3.952,0.55895,105.06,1.7449,0.68018,0.41992,0.73021
3.96,0.54673,101.6,1.739,0.68506,0.43018,0.71994
3.968,0.53513,98.225,1.7322,0.6748,0.4248,0.71994
3.976,0.52352,95.002,1.7253,0.68018,0.4248,0.71505
3.984,0.51191,91.973,1.7165,0.68018,0.4248,0.71505
3.992,0.49908,89.238,1.7097,0.68018,0.4248,0.71017
4,0.48626,86.698,1.7067,0.66992,0.4248,0.71505
4.008,0.47221,84.305,1.7038,0.68018,0.43506,0.71017
4.016,0.45816,82.107,1.6999,0.66992,0.4248,0.71505
4.024,0.44533,80.104,1.696,0.68018,0.43506,0.71017
4.032,0.43311,78.199,1.694,0.66504,0.43018,0.70528
4.04,0.42089,76.441,1.6931,0.66992,0.43506,0.70039
4.048,0.40867,74.78,1.6901,0.66016,0.43018,0.70039
4.056,0.39524,73.217,1.6852,0.66992,0.43506,0.69501
4.064,0.38241,71.801,1.6794,0.66016,0.43018,0.69501
4.072,0.36775,70.531,1.6716,0.6748,0.43506,0.69501
4.08,0.3537,69.359,1.6637,0.66992,0.43994,0.70528
4.088,0.33903,68.431,1.6569,0.6748,0.43506,0.70528
4.096,0.32437,67.551,1.651,0.68018,0.41992,0.71017
4.104,0.3091,66.916,1.65,0.66504,0.41504,0.71505
4.112,0.29444,66.379,1.6569,0.6748,0.41016,0.73021
4.12,0.28039,65.988,1.6764,0.68018,0.41016,0.73509
4.128,0.26634,65.842,1.7146,0.68506,0.41016,0.74536
4.136,0.2529,65.793,1.7742,0.66504,0.3999,0.73021
4.144,0.23946,65.988,1.8387,0.68506,0.41016,0.70528
4.152,0.22541,66.233,1.911,0.70508,0.41992,0.68524
4.16,0.21197,66.672,2.0029,0.71484,0.44482,0.6652
4.168,0.19792,67.258,2.1056,0.68018,0.43994,0.66031
4.176,0.18448,67.796,2.2082,0.68018,0.44482,0.65494
4.184,0.17166,68.479,2.3011,0.66992,0.43506,0.65494
4.192,0.15944,69.114,2.3773,0.6748,0.45508,0.65494
4.2,0.14783,69.798,2.437,0.65479,0.4502,0.66031
4.208,0.13622,70.433,2.478,0.65479,0.44482,0.6652
4.216,0.12523,71.068,2.5005,0.62988,0.4502,0.6652
4.224,0.11484,71.557,2.5073,0.64014,0.45508,0.67009
4.232,0.10446,71.996,2.4976,0.62988,0.44482,0.67498
4.24,0.094685,72.289,2.478,0.64014,0.4502,0.68035
4.248,0.085522,72.485,2.4516,0.63477,0.43994,0.67498
4.256,0.07697,72.533,2.4194,0.64502,0.44482,0.68035
4.264,0.069029,72.485,2.3793,0.64502,0.43994,0.68524
4.272,0.061087,72.289,2.3353,0.65479,0.4502,0.68524
4.28,0.054368,72.045,2.2893,0.62988,0.43994,0.70039
4.288,0.048259,71.654,2.2405,0.59521,0.44482,0.78006
4.296,0.043372,71.166,2.1896,0.58008,0.36523,0.78543
4.304,0.038485,70.677,2.1378,0.69482,0.3252,0.7654
4.312,0.034209,70.091,2.0841,1.0049,0.45508,0.64027
4.32,0.029933,69.554,2.0303,1.2749,0.56982,0.435
4.328,0.025657,68.968,1.9756,1.1748,0.6001,0.37488
4.336,0.021991,68.382,1.9208,1.04,0.79004,0.3348
4.344,0.018937,67.796,1.8719,0.91992,0.83008,0.37488
4.352,0.015883,67.161,1.827,0.77979,0.60498,0.50978
4.36,0.013439,66.526,1.781,0.7002,0.51514,0.6349
4.368,0.010996,66.037,1.7361,0.65479,0.47021,0.70039
4.376,0.0079414,65.549,1.6931,0.64502,0.4502,0.71994
4.384,0.004887,65.06,1.6549,0.625,0.43506,0.73509
4.392,0.0012217,64.621,1.6178,0.62988,0.43994,0.73509
4.4,-0.0024435,64.181,1.5816,0.62012,0.41992,0.73998
4.408,-0.0073305,63.742,1.5494,0.625,0.41992,0.75024
4.416,-0.011607,63.351,1.523,0.61475,0.41016,0.75024
4.424,-0.016494,63.058,1.5034,0.62988,0.41504,0.75024
4.432,-0.021381,62.667,1.4917,0.62012,0.3999,0.75024
4.44,-0.026268,62.374,1.4897,0.63477,0.41016,0.74536
4.448,-0.031155,61.983,1.4927,0.62012,0.38525,0.74536
4.456,-0.035431,61.69,1.4985,0.63477,0.39014,0.73998
4.464,-0.039707,61.348,1.5064,0.625,0.375,0.73509
4.472,-0.044594,61.104,1.5152,0.63477,0.375,0.73021
4.48,-0.049481,60.811,1.5259,0.625,0.36523,0.73509
4.488,-0.054979,60.567,1.5357,0.62988,0.36523,0.73509
4.496,-0.060476,60.322,1.5435,0.62012,0.35498,0.73509
4.504,-0.065974,60.029,1.5523,0.61475,0.3501,0.73021
4.512,-0.071472,59.785,1.5621,0.6001,0.34521,0.73021
4.52,-0.07697,59.59,1.5709,0.58496,0.33496,0.73509
4.528,-0.082468,59.541,1.5797,0.58008,0.33008,0.73021
4.536,-0.087966,59.883,1.5875,0.56494,0.33496,0.73509
4.544,-0.092853,61.055,1.5943,0.56982,0.3252,0.73509
4.552,-0.098351,63.742,1.6002,0.55518,0.31982,0.73509
4.56,-0.10385,68.089,1.6061,0.56006,0.33008,0.73509
4.568,-0.10935,73.755,1.609,0.54004,0.31494,0.73509
4.576,-0.11484,79.811,1.607,0.56982,0.33496,0.73509
4.584,-0.12034,85.721,1.6041,0.56494,0.33008,0.73021
4.592,-0.12584,91.29,1.6002,0.58984,0.33984,0.73021
4.6,-0.13073,96.369,1.5953,0.6001,0.33984,0.72532
4.608,-0.13561,100.91,1.5894,0.63477,0.36523,0.71994
4.616,-0.13989,104.82,1.5816,0.64014,0.37012,0.71994
4.624,-0.14417,107.75,1.5728,0.66504,0.39014,0.71505
4.632,-0.14905,109.56,1.563,0.66992,0.39502,0.71994
4.64,-0.15333,110.05,1.5562,0.68506,0.41504,0.71505
4.648,-0.15822,109.31,1.5484,0.68994,0.41992,0.71505
4.656,-0.1631,107.51,1.5396,0.7002,0.43018,0.71505
4.664,-0.16738,104.92,1.5308,0.69482,0.43506,0.71017
4.672,-0.17104,101.94,1.5181,0.7002,0.43506,0.70528
4.68,-0.17471,98.665,1.5083,0.70508,0.43994,0.71017
4.688,-0.17838,95.344,1.5015,0.69482,0.43506,0.70528
4.696,-0.18326,92.218,1.4956,0.7002,0.43018,0.70039
4.704,-0.18754,89.189,1.4907,0.68506,0.43994,0.70039
4.712,-0.19304,86.356,1.4868,0.69482,0.43506,0.70528
4.72,-0.19853,83.816,1.4848,0.6748,0.43506,0.70528
4.728,-0.20403,81.423,1.4839,0.68018,0.43018,0.70528
4.736,-0.20953,79.176,1.4839,0.66992,0.43018,0.70528
4.744,-0.21503,77.027,1.4848,0.68018,0.43506,0.70528
4.752,-0.21991,75.073,1.4868,0.66504,0.43018,0.70528
4.76,-0.2248,73.168,1.4888,0.68018,0.43506,0.70528
4.768,-0.22908,71.41,1.4917,0.66016,0.43506,0.70528
4.776,-0.23335,69.798,1.4927,0.66992,0.43506,0.70528
4.784,-0.23763,68.431,1.4936,0.65479,0.43018,0.70528
4.792,-0.24191,67.161,1.4927,0.6748,0.43506,0.70528
4.8,-0.24618,66.135,1.4878,0.66504,0.4248,0.71017
4.808,-0.25046,65.305,1.4809,0.68018,0.41992,0.71017
4.816,-0.25473,64.621,1.4751,0.66992,0.40479,0.71994
4.824,-0.25901,64.132,1.4731,0.68018,0.41016,0.73021
4.832,-0.26268,63.742,1.48,0.66992,0.3999,0.73509
4.84,-0.26634,63.546,1.4946,0.66992,0.41016,0.73021
4.848,-0.27001,63.546,1.52,0.66992,0.41016,0.71017
4.856,-0.27367,63.79,1.567,0.7002,0.41504,0.68524
4.864,-0.27734,64.132,1.6334,0.70996,0.43506,0.68035
4.872,-0.281,64.621,1.7185,0.7002,0.44482,0.6652
4.88,-0.28467,65.158,1.8152,0.68018,0.43994,0.65005
4.888,-0.28833,65.842,1.9189,0.68506,0.4502,0.65005
4.896,-0.29139,66.623,2.0225,0.66992,0.45508,0.65494
4.904,-0.29444,67.356,2.1183,0.66016,0.4502,0.66031
4.912,-0.2975,68.089,2.1994,0.65479,0.4502,0.65494
4.92,-0.29994,68.821,2.263,0.6499,0.45508,0.6652
4.928,-0.30177,69.505,2.3069,0.64014,0.45996,0.6652
4.936,-0.3036,69.994,2.3343,0.62988,0.45508,0.6652
4.944,-0.30483,70.482,2.3451,0.64502,0.45508,0.67009
4.952,-0.30605,70.873,2.3421,0.64014,0.4502,0.67498
4.96,-0.30666,71.117,2.3275,0.65479,0.45508,0.67498
4.968,-0.30727,71.215,2.304,0.6499,0.44482,0.68035
4.976,-0.30727,71.215,2.2727,0.65479,0.4502,0.68524
4.984,-0.30666,71.117,2.2346,0.6499,0.4502,0.68524
4.992,-0.30544,70.873,2.1916,0.62988,0.4502,0.72532
5,-0.30422,70.531,2.1447,0.5752,0.41504,0.78006
5.008,-0.30238,70.091,2.0968,0.6001,0.33496,0.77517
5.016,-0.30055,69.652,2.0469,0.75488,0.31494,0.73998
5.024,-0.29872,69.163,1.999,1.1099,0.48486,0.58993
5.032,-0.29688,68.626,1.9521,1.2598,0.56006,0.41007
5.04,-0.29444,68.04,1.911,1.145,0.6499,0.3998
5.048,-0.292,67.503,1.8719,1,0.83008,0.37977
5.056,-0.28894,66.916,1.827,0.87012,0.72998,0.41984
5.064,-0.28589,66.379,1.7801,0.73975,0.56982,0.54985
5.072,-0.28283,65.842,1.7312,0.68506,0.5,0.66031
5.08,-0.27978,65.353,1.6833,0.6499,0.45996,0.71017
5.088,-0.27673,64.865,1.6373,0.63477,0.4502,0.72532
5.096,-0.27428,64.425,1.5934,0.625,0.43994,0.73509
5.104,-0.27123,63.986,1.5533,0.62012,0.43018,0.73509
5.112,-0.2694,63.546,1.52,0.625,0.41992,0.73509
5.12,-0.26695,63.155,1.4917,0.60986,0.41504,0.73998
5.128,-0.26573,62.716,1.4702,0.625,0.41016,0.73509
5.136,-0.2639,62.374,1.4555,0.62012,0.41016,0.74536
5.144,-0.26268,62.032,1.4477,0.62988,0.40479,0.73998
5.152,-0.26084,61.69,1.4467,0.625,0.40479,0.74536
5.16,-0.25901,61.348,1.4506,0.62988,0.3999,0.73509
5.168,-0.25718,61.006,1.4575,0.62012,0.38525,0.73998
5.176,-0.25596,60.664,1.4682,0.62988,0.37988,0.73998
5.184,-0.25473,60.42,1.4819,0.61475,0.36523,0.73998
5.192,-0.25412,60.029,1.4966,0.625,0.35986,0.73509
5.2,-0.25351,59.736,1.5112,0.60986,0.35498,0.73509
5.208,-0.25229,59.443,1.5259,0.60986,0.35986,0.73509
5.216,-0.25107,59.101,1.5406,0.58984,0.33496,0.73509
5.224,-0.24985,58.857,1.5562,0.58496,0.33496,0.73509
5.232,-0.24863,58.662,1.5709,0.56006,0.31494,0.73509
5.24,-0.2474,58.662,1.5846,0.56006,0.31982,0.73509
5.248,-0.24618,59.053,1.5982,0.53516,0.30518,0.73509
5.256,-0.24435,60.322,1.6119,0.54004,0.31006,0.73021
5.264,-0.24252,63.058,1.6266,0.5249,0.31494,0.73509
5.272,-0.2413,67.405,1.6383,0.52979,0.30029,0.73509
5.28,-0.23946,72.973,1.6461,0.5249,0.31006,0.73509
5.288,-0.23824,78.981,1.65,0.54004,0.31494,0.73998
5.296,-0.23641,84.793,1.65,0.5498,0.31494,0.73509
5.304,-0.23519,90.215,1.6481,0.56006,0.31494,0.73509
5.312,-0.23396,95.246,1.6442,0.5752,0.33008,0.73509
5.32,-0.23335,99.789,1.6403,0.58496,0.33496,0.73509
5.328,-0.23274,103.7,1.6354,0.59521,0.33496,0.73509
5.336,-0.23213,106.53,1.6305,0.60498,0.33984,0.73509
5.344,-0.23152,108.29,1.6276,0.62012,0.35498,0.73021
5.352,-0.23091,108.73,1.6246,0.61475,0.35986,0.73021
5.36,-0.22969,107.95,1.6207,0.63477,0.375,0.72532
5.368,-0.22969,106.04,1.6149,0.64502,0.38525,0.73021
5.376,-0.22908,103.35,1.608,0.65479,0.39014,0.71505
5.384,-0.22969,100.23,1.5992,0.64502,0.38525,0.71505
5.392,-0.2303,96.907,1.5904,0.66016,0.40479,0.71017
5.4,-0.2303,93.683,1.5816,0.65479,0.41016,0.70528
5.408,-0.2303,90.508,1.5738,0.66504,0.41504,0.70039
5.416,-0.2303,87.48,1.567,0.66016,0.41992,0.69501
5.424,-0.2303,84.696,1.5611,0.68018,0.43506,0.69013
5.432,-0.2303,82.107,1.5562,0.66992,0.43018,0.69013
5.44,-0.2303,79.665,1.5523,0.68018,0.43994,0.69013
5.448,-0.2303,77.418,1.5503,0.68018,0.44482,0.69013
5.456,-0.2303,75.318,1.5494,0.68506,0.4502,0.69013
5.464,-0.2303,73.315,1.5474,0.68018,0.44482,0.68524
5.472,-0.22969,71.41,1.5445,0.68994,0.45508,0.68524
5.48,-0.22908,69.749,1.5415,0.68018,0.4502,0.68035
5.488,-0.22847,68.186,1.5376,0.68994,0.45508,0.67498
5.496,-0.22908,66.819,1.5308,0.69482,0.45996,0.67498
5.504,-0.22908,65.598,1.52,0.68994,0.45508,0.67498
5.512,-0.22969,64.621,1.5073,0.70508,0.46484,0.68035
5.52,-0.2303,63.742,1.4966,0.7002,0.45508,0.68524
5.528,-0.23091,63.107,1.4888,0.71484,0.45508,0.69013
5.536,-0.23152,62.667,1.4858,0.70508,0.4502,0.69501
5.544,-0.23213,62.423,1.4897,0.7251,0.45508,0.69501
5.552,-0.23274,62.374,1.5044,0.71973,0.4502,0.69013
5.56,-0.23335,62.423,1.5367,0.71484,0.45508,0.67498
5.568,-0.23396,62.716,1.5885,0.70996,0.43994,0.66031
5.576,-0.23458,63.155,1.6618,0.7251,0.4502,0.65005
5.584,-0.23519,63.79,1.7546,0.69482,0.4502,0.64027
5.592,-0.23641,64.474,1.8602,0.68018,0.45508,0.63001
5.6,-0.23763,65.256,1.9726,0.66504,0.43506,0.63001
5.608,-0.23885,66.135,2.0841,0.66016,0.44482,0.6349
5.616,-0.24007,66.965,2.1848,0.64502,0.43506,0.64516
5.624,-0.2413,67.844,2.2688,0.64014,0.43506,0.64516
5.632,-0.24191,68.675,2.3343,0.625,0.4248,0.65005
5.64,-0.24191,69.407,2.3773,0.62012,0.43506,0.6652
5.648,-0.24191,70.091,2.4047,0.60498,0.41504,0.6652
5.656,-0.2413,70.726,2.4203,0.61475,0.41992,0.6652
5.664,-0.24007,71.166,2.4213,0.6001,0.41016,0.67009
5.672,-0.23824,71.557,2.4096,0.60986,0.41016,0.67009
5.68,-0.23641,71.752,2.3861,0.60498,0.40479,0.67498
5.688,-0.23213,71.801,2.3558,0.60498,0.41016,0.68524
5.696,-0.22786,71.752,2.3187,0.60986,0.39014,0.68524
5.704,-0.22175,71.557,2.2747,0.58008,0.38525,0.71505
5.712,-0.21503,71.215,2.2258,0.5249,0.36523,0.78006
5.72,-0.20831,70.922,2.174,0.51514,0.29004,0.78543
5.728,-0.20159,70.482,2.1212,0.68018,0.27002,0.75024
5.736,-0.19487,70.042,2.0714,1.0098,0.43018,0.60997
5.744,-0.18754,69.554,2.0225,1.2397,0.54004,0.40469
5.752,-0.17838,69.066,1.9697,1.1196,0.53516,0.37488
5.76,-0.16921,68.479,1.915,0.98486,0.76514,0.34506
5.768,-0.15883,67.991,1.8602,0.83984,0.69482,0.39492
5.776,-0.14783,67.551,1.8074,0.71973,0.54492,0.52493
5.784,-0.13745,67.063,1.7546,0.62988,0.4502,0.65005
5.792,-0.12706,66.672,1.7038,0.6001,0.41992,0.70528
5.8,-0.11668,66.233,1.6559,0.5752,0.39502,0.72532
5.808,-0.10568,65.94,1.609,0.58008,0.38525,0.72532
5.816,-0.094075,65.549,1.566,0.56006,0.375,0.73509
5.824,-0.081857,65.256,1.5298,0.5752,0.37988,0.73509
5.832,-0.069029,64.914,1.5015,0.56494,0.37012,0.73509
5.84,-0.0562,64.67,1.4829,0.5752,0.375,0.73509
5.848,-0.043372,64.377,1.4741,0.58008,0.36523,0.73509
5.856,-0.030544,64.132,1.4692,0.58984,0.37012,0.73509
5.864,-0.018326,63.839,1.4692,0.58984,0.36523,0.73509
5.872,-0.0054979,63.595,1.4761,0.60498,0.375,0.73509
5.88,0.0054979,63.448,1.4868,0.59521,0.35986,0.73021
5.888,0.017104,63.253,1.5005,0.60498,0.35498,0.73509
5.896,0.027489,63.107,1.5171,0.60498,0.35986,0.72532
5.904,0.037874,63.058,1.5367,0.61475,0.35498,0.71994
5.912,0.04887,62.911,1.5552,0.62012,0.36523,0.71994
5.92,0.060476,62.862,1.5738,0.60498,0.33984,0.72532
5.928,0.072083,62.814,1.5904,0.58496,0.33008,0.71505
5.936,0.08369,62.862,1.6051,0.58496,0.3252,0.71505
5.944,0.094685,63.009,1.6188,0.56982,0.33008,0.71994
5.952,0.10629,63.497,1.6334,0.56006,0.31494,0.71505
5.96,0.11729,64.572,1.6471,0.56494,0.31982,0.71505
5.968,0.12828,67.063,1.6608,0.54492,0.31494,0.71505
5.976,0.13989,71.41,1.6735,0.5498,0.31494,0.71994
5.984,0.1515,77.467,1.6852,0.53516,0.31494,0.71505
5.992,0.16371,84.305,1.696,0.55518,0.3252,0.71505
6,0.17593,91.045,1.7058,0.5498,0.3252,0.71505
6.008,0.18876,97.102,1.7116,0.58496,0.33984,0.71505
6.016,0.20159,102.57,1.7116,0.58984,0.3501,0.71017
6.024,0.21381,107.36,1.7077,0.625,0.37012,0.70039
6.032,0.22663,111.32,1.7019,0.62988,0.375,0.70039
6.04,0.23763,114.2,1.697,0.65479,0.39014,0.70039
6.048,0.24863,115.76,1.6931,0.66016,0.3999,0.69501
6.056,0.25779,115.86,1.6882,0.68506,0.41504,0.69013
6.064,0.26756,114.64,1.6833,0.68994,0.4248,0.69013
6.072,0.27734,112.29,1.6784,0.7002,0.43506,0.69013
6.08,0.28711,109.31,1.6735,0.7002,0.43506,0.68524
6.088,0.29688,105.94,1.6686,0.71484,0.45508,0.68035
6.096,0.30666,102.43,1.6647,0.71973,0.4502,0.68035
6.104,0.3146,99.056,1.6628,0.70996,0.4502,0.68524
6.112,0.32254,95.783,1.6618,0.68994,0.43994,0.69013
6.12,0.32865,92.755,1.6618,0.68506,0.43506,0.69013
6.128,0.33537,89.873,1.6628,0.68018,0.43994,0.69013
6.136,0.34026,87.236,1.6657,0.66992,0.43018,0.69013
6.144,0.34575,84.842,1.6706,0.6748,0.43506,0.69013
6.152,0.35003,82.693,1.6784,0.66504,0.43506,0.69013
6.16,0.35492,80.593,1.6872,0.66992,0.43506,0.69013
6.168,0.35919,78.688,1.697,0.66016,0.43506,0.69501
6.176,0.36347,76.881,1.7058,0.66992,0.43506,0.69013
6.184,0.36713,75.171,1.7146,0.66016,0.43506,0.69013
6.192,0.37141,73.608,1.7214,0.6748,0.43994,0.69013
6.2,0.37447,72.192,1.7253,0.66504,0.43506,0.69013
6.208,0.37752,70.873,1.7273,0.68018,0.44482,0.69013
6.216,0.37935,69.749,1.7283,0.66992,0.43506,0.69013
6.224,0.3818,68.821,1.7283,0.66992,0.43994,0.69501
6.232,0.38363,68.04,1.7312,0.65479,0.41992,0.70039
6.24,0.38546,67.503,1.7361,0.66016,0.41016,0.71017
6.248,0.38729,67.063,1.7458,0.6499,0.39502,0.71994
6.256,0.38913,66.819,1.7683,0.66016,0.39014,0.73509
6.264,0.39096,66.721,1.8055,0.65479,0.38525,0.73998
6.272,0.39279,66.916,1.8602,0.65479,0.38525,0.74536
6.28,0.39401,67.258,1.9326,0.6499,0.39014,0.71994
6.288,0.39585,67.747,2.0196,0.66504,0.37988,0.69501
6.296,0.39646,68.284,2.1163,0.68018,0.3999,0.67498
6.304,0.39768,69.066,2.218,0.66016,0.41504,0.66031
6.312,0.39829,69.847,2.3177,0.64014,0.41016,0.65005
6.32,0.3989,70.629,2.4096,0.64014,0.41504,0.65005
6.328,0.40012,71.41,2.4868,0.62988,0.40479,0.65005
6.336,0.40134,72.192,2.5396,0.62012,0.41016,0.6652
6.344,0.40318,72.924,2.5738,0.625,0.41504,0.67009
6.352,0.40501,73.51,2.5982,0.60498,0.40479,0.68035
6.36,0.40684,73.901,2.6109,0.6001,0.41016,0.68524
6.368,0.40867,74.243,2.6109,0.59521,0.3999,0.69013
6.376,0.4099,74.438,2.5973,0.60498,0.41016,0.69013
6.384,0.41173,74.438,2.5738,0.60498,0.40479,0.69013
6.392,0.41356,74.341,2.5415,0.61475,0.41504,0.69013
6.4,0.41539,74.194,2.5034,0.60986,0.41016,0.69013
6.408,0.41784,73.852,2.4604,0.62012,0.41992,0.69013
6.416,0.42028,73.413,2.4135,0.60498,0.40479,0.69501
6.424,0.42211,72.924,2.3656,0.58496,0.41016,0.75513
6.432,0.42456,72.387,2.3167,0.54004,0.36523,0.80499
6.44,0.42639,71.752,2.2698,0.60498,0.31494,0.80499
6.448,0.42822,71.068,2.2239,0.81006,0.36523,0.73998
6.456,0.43067,70.384,2.173,1.1899,0.54004,0.52981
6.464,0.43311,69.603,2.1212,1.2798,0.58984,0.34506
6.472,0.43555,68.919,2.0694,1.1396,0.68018,0.24487
6.48,0.438,68.235,2.0176,0.99512,0.81494,0.28983
6.488,0.44044,67.6,1.9658,0.8501,0.6748,0.43011
6.496,0.44288,66.916,1.914,0.72998,0.5498,0.58504
6.504,0.44472,66.281,1.8651,0.66992,0.47998,0.68524
6.512,0.44655,65.695,1.8201,0.625,0.44482,0.72532
6.52,0.44777,65.158,1.7771,0.60986,0.43018,0.74536
6.528,0.44899,64.621,1.7341,0.6001,0.41504,0.75024
6.536,0.4496,64.132,1.6989,0.59521,0.40479,0.76002
6.544,0.45021,63.693,1.6716,0.60498,0.3999,0.76002
6.552,0.44899,63.253,1.6461,0.58984,0.39014,0.7654
6.56,0.44838,62.814,1.6256,0.6001,0.38525,0.7654
6.568,0.44594,62.423,1.6109,0.58984,0.38525,0.77028
6.576,0.44411,62.032,1.6041,0.6001,0.375,0.77517
6.584,0.44166,61.69,1.6041,0.6001,0.37012,0.7654
6.592,0.43922,61.348,1.6109,0.60498,0.37012,0.76002
6.6,0.43616,61.104,1.6217,0.58984,0.35986,0.77028
6.608,0.43372,60.86,1.6364,0.6001,0.3501,0.76002
6.616,0.42883,60.616,1.651,0.58984,0.34521,0.7654
6.624,0.42456,60.371,1.6657,0.59521,0.33984,0.76002
6.632,0.41784,60.029,1.6823,0.5752,0.31982,0.76002
6.64,0.41173,59.785,1.696,0.58008,0.31494,0.7654
6.648,0.4044,59.59,1.7087,0.5498,0.29492,0.7654
6.656,0.39768,59.443,1.7214,0.54492,0.29004,0.76002
6.664,0.38974,59.297,1.7322,0.5249,0.2749,0.76002
6.672,0.3818,59.443,1.7419,0.5249,0.2749,0.7654
6.68,0.37385,60.127,1.7478,0.50488,0.26514,0.76002
6.688,0.36652,62.179,1.7537,0.50488,0.26025,0.7654
6.696,0.35919,66.037,1.7595,0.49023,0.26514,0.77028
6.704,0.35186,71.654,1.7625,0.5,0.27002,0.77028
6.712,0.34514,78.297,1.7634,0.49512,0.26514,0.77028
6.72,0.33842,84.842,1.7625,0.50977,0.27002,0.77028
6.728,0.3317,90.997,1.7586,0.52002,0.2749,0.77517
6.736,0.32498,96.565,1.7527,0.54492,0.29004,0.7654
6.744,0.31888,101.6,1.7439,0.56494,0.31006,0.76002
6.752,0.31277,105.94,1.7312,0.58496,0.3252,0.76002
6.76,0.30605,109.36,1.7136,0.60498,0.33984,0.76002
6.768,0.29994,111.56,1.695,0.625,0.35986,0.74536
6.776,0.29322,112.29,1.6764,0.64014,0.375,0.73998
6.784,0.2865,111.61,1.6598,0.6499,0.37988,0.73998
6.792,0.27917,109.75,1.6422,0.66016,0.39502,0.73021
6.8,0.27184,107.07,1.6246,0.66504,0.40479,0.72532
6.808,0.2639,103.79,1.608,0.68018,0.4248,0.71994
6.816,0.25596,100.23,1.5924,0.68018,0.43018,0.71505
6.824,0.2474,96.662,1.5767,0.69482,0.43506,0.71505
6.832,0.23885,93.243,1.5621,0.68994,0.43994,0.71017
6.84,0.2303,90.069,1.5503,0.7002,0.45508,0.70528
6.848,0.22175,86.991,1.5406,0.69482,0.4502,0.71017
6.856,0.21319,84.256,1.5308,0.7002,0.45996,0.70528
6.864,0.20464,81.716,1.522,0.7002,0.45508,0.70039
6.872,0.19487,79.469,1.5152,0.70996,0.46484,0.69501
6.88,0.18571,77.369,1.5093,0.7002,0.47021,0.69013
6.888,0.17593,75.415,1.5054,0.70996,0.4751,0.69013
6.896,0.16616,73.608,1.5034,0.70508,0.47998,0.69013
6.904,0.15699,71.85,1.5024,0.71484,0.48486,0.69013
6.912,0.14844,70.238,1.5015,0.71973,0.47998,0.68524
6.92,0.13989,68.724,1.4995,0.70508,0.49023,0.68035
6.928,0.13134,67.405,1.4946,0.7251,0.49512,0.68035
6.936,0.12156,66.281,1.4897,0.71973,0.49023,0.68524
6.944,0.1124,65.353,1.4848,0.72998,0.50488,0.68035
6.952,0.10202,64.621,1.477,0.71973,0.49023,0.68035
6.96,0.092242,63.986,1.4692,0.7251,0.47998,0.69013
6.968,0.081246,63.595,1.4663,0.71973,0.4751,0.70039
6.976,0.070861,63.302,1.4741,0.72998,0.47021,0.71505
6.984,0.059866,63.253,1.4976,0.73486,0.45996,0.71505
6.992,0.04887,63.351,1.5415,0.7251,0.4502,0.73021
7,0.038485,63.693,1.608,0.7002,0.43506,0.71994
7.008,0.0281,64.132,1.6911,0.71484,0.43994,0.69501
7.016,0.018326,64.67,1.7889,0.73486,0.43506,0.67009
7.024,0.0085522,65.305,1.8944,0.75,0.4751,0.65005
7.032,-0.00061087,66.037,1.998,0.69482,0.45508,0.64516
7.04,-0.009774,66.868,2.0821,0.68018,0.44482,0.64516
7.048,-0.018937,67.747,2.1515,0.65479,0.43506,0.65494
7.056,-0.027489,68.528,2.219,0.66016,0.45508,0.66031
7.064,-0.035431,69.31,2.2757,0.6499,0.44482,0.6652
7.072,-0.043372,69.994,2.3167,0.65479,0.45508,0.6652
7.08,-0.050702,70.629,2.3412,0.62988,0.4502,0.67009
7.088,-0.058033,71.068,2.3509,0.63477,0.45508,0.68035
7.096,-0.064753,71.361,2.348,0.625,0.43506,0.68035
7.104,-0.071472,71.557,2.3343,0.62988,0.43994,0.68035
7.112,-0.077581,71.605,2.3099,0.63477,0.44482,0.68524
7.12,-0.08369,71.508,2.2776,0.62988,0.43506,0.68524
7.128,-0.088577,71.312,2.2366,0.64014,0.43994,0.68524
7.136,-0.093464,70.97,2.1955,0.63477,0.43506,0.68524
7.144,-0.09774,70.531,2.1535,0.625,0.4248,0.69501
7.152,-0.10141,70.042,2.1065,0.58008,0.4248,0.7654
7.16,-0.10446,69.407,2.0577,0.56006,0.37012,0.78543
7.168,-0.1069,68.821,2.0068,0.62988,0.30029,0.77517
7.176,-0.10935,68.186,1.9541,0.89014,0.36523,0.68035
7.184,-0.11118,67.503,1.9003,1.2197,0.54004,0.5
7.192,-0.11301,66.868,1.8475,1.2598,0.5752,0.39492
7.2,-0.11484,66.233,1.7957,1.0649,0.74512,0.40469
7.208,-0.11607,65.598,1.7439,0.94482,0.82471,0.38514
7.216,-0.11729,65.06,1.6921,0.79004,0.64014,0.47019
7.224,-0.11912,64.572,1.6422,0.7002,0.5249,0.60508
7.232,-0.12095,64.035,1.5934,0.65479,0.47021,0.69013
7.24,-0.12279,63.595,1.5523,0.64014,0.44482,0.71505
7.248,-0.12462,63.155,1.5171,0.60986,0.4248,0.73021
7.256,-0.12706,62.716,1.4829,0.61475,0.41504,0.73509
7.264,-0.12951,62.374,1.4516,0.6001,0.3999,0.73998
7.272,-0.13256,62.032,1.4242,0.60498,0.3999,0.74536
7.28,-0.13561,61.739,1.4027,0.6001,0.39014,0.74536
7.288,-0.13806,61.446,1.3871,0.60498,0.39014,0.74536
7.296,-0.1405,61.104,1.3763,0.60498,0.38525,0.75024
7.304,-0.14294,60.811,1.3724,0.60498,0.38525,0.75024
7.312,-0.14539,60.469,1.3744,0.60986,0.37012,0.75024
7.32,-0.14783,60.176,1.3822,0.60498,0.35986,0.74536
7.328,-0.15027,59.883,1.3949,0.61475,0.35986,0.74536
7.336,-0.15272,59.59,1.4106,0.60498,0.35498,0.75024
7.344,-0.15455,59.346,1.4272,0.60986,0.34521,0.73998
7.352,-0.15699,59.101,1.4457,0.60498,0.33984,0.74536
7.36,-0.15944,58.808,1.4653,0.58496,0.31982,0.74536
7.368,-0.16249,58.466,1.4848,0.5752,0.30518,0.75513
7.376,-0.16494,58.222,1.5015,0.55518,0.29004,0.75513
7.384,-0.16738,57.978,1.5181,0.53516,0.28027,0.76002
7.392,-0.16921,57.88,1.5327,0.52979,0.28027,0.75513
7.4,-0.17043,57.978,1.5435,0.51514,0.27002,0.75513
7.408,-0.17166,58.613,1.5523,0.51514,0.2749,0.75024
7.416,-0.17349,60.42,1.5591,0.50977,0.28027,0.75024
7.424,-0.17532,63.937,1.565,0.52002,0.29004,0.75024
7.432,-0.17776,69.066,1.5709,0.51514,0.28516,0.75024
7.44,-0.18021,75.073,1.5758,0.53516,0.30029,0.73509
7.448,-0.18265,81.179,1.5797,0.54004,0.30518,0.73509
7.456,-0.18509,86.796,1.5806,0.5752,0.3252,0.73021
7.464,-0.18815,91.973,1.5787,0.58496,0.33984,0.73021
7.472,-0.19059,96.76,1.5748,0.62012,0.35498,0.71994
7.48,-0.19304,100.91,1.5699,0.62988,0.35986,0.71994
7.488,-0.19548,104.28,1.563,0.65479,0.38525,0.71505
7.496,-0.19792,106.53,1.5513,0.66016,0.39502,0.71505
7.504,-0.19976,107.6,1.5386,0.68018,0.41016,0.70528
7.512,-0.20281,107.36,1.5279,0.68994,0.4248,0.70039
7.52,-0.20525,105.94,1.5181,0.7002,0.43506,0.69501
7.528,-0.20892,103.55,1.5239,0.7002,0.43506,0.69501
7.536,-0.21258,100.67,1.5406,0.7002,0.43994,0.69013
7.544,-0.21564,97.493,1.5484,0.70508,0.44482,0.69013
7.552,-0.21869,94.171,1.5513,0.7002,0.43994,0.69013
7.56,-0.22236,90.948,1.5533,0.70508,0.44482,0.69013
7.568,-0.22541,87.724,1.5543,0.68994,0.43506,0.69501
7.576,-0.22908,84.793,1.5543,0.69482,0.44482,0.69013
7.584,-0.23274,82.009,1.5543,0.68018,0.43506,0.69013
7.592,-0.23641,79.372,1.5543,0.6748,0.43506,0.70039
7.6,-0.24007,76.929,1.5543,0.66016,0.43506,0.70039
7.608,-0.24374,74.683,1.5543,0.66992,0.43506,0.70039
7.616,-0.2474,72.533,1.5543,0.65479,0.4248,0.70528
7.624,-0.25107,70.531,1.5543,0.65479,0.4248,0.70528
7.632,-0.25412,68.724,1.5552,0.64502,0.41504,0.71017
7.64,-0.25657,67.112,1.5572,0.6499,0.41504,0.70528
7.648,-0.25901,65.598,1.5582,0.62988,0.41016,0.71017
7.656,-0.26084,64.279,1.5572,0.64014,0.41504,0.71017
7.664,-0.26268,63.155,1.5533,0.62988,0.41016,0.71017
7.672,-0.26451,62.276,1.5464,0.63477,0.41504,0.71017
7.68,-0.26634,61.592,1.5386,0.63477,0.40479,0.71505
7.688,-0.26878,61.104,1.5327,0.6499,0.3999,0.71505
7.696,-0.27062,60.811,1.5308,0.65479,0.39014,0.71994
7.704,-0.27245,60.664,1.5367,0.64502,0.39014,0.73509
7.712,-0.27367,60.664,1.5572,0.65479,0.38525,0.73509
7.72,-0.27489,60.909,1.5953,0.6499,0.38525,0.73021
7.728,-0.27611,61.299,1.65,0.66016,0.39502,0.71017
7.736,-0.27734,61.788,1.7087,0.68506,0.39014,0.69013
7.744,-0.27856,62.423,1.7752,0.7002,0.41992,0.68035
7.752,-0.28039,63.155,1.8592,0.68018,0.43018,0.65494
7.76,-0.28161,63.986,1.9511,0.6748,0.43506,0.64516
7.768,-0.28283,64.718,2.043,0.66504,0.43506,0.64027
7.776,-0.28406,65.549,2.13,0.65479,0.43994,0.65005
7.784,-0.28467,66.379,2.2053,0.6499,0.43506,0.65005
7.792,-0.28528,67.063,2.2649,0.65479,0.43506,0.64516
7.8,-0.28528,67.747,2.3089,0.62988,0.43506,0.66031
7.808,-0.28528,68.284,2.3372,0.62988,0.44482,0.6652
7.816,-0.28467,68.724,2.35,0.62988,0.43994,0.67009
7.824,-0.28406,69.114,2.347,0.64014,0.45508,0.67498
7.832,-0.28283,69.359,2.3333,0.64014,0.44482,0.67009
7.84,-0.281,69.505,2.3128,0.6499,0.44482,0.67009
7.848,-0.27917,69.407,2.2854,0.64014,0.43506,0.67009
7.856,-0.27673,69.31,2.2522,0.65479,0.4502,0.67009
7.864,-0.27428,69.114,2.2141,0.64502,0.43994,0.68035
7.872,-0.27123,68.724,2.173,0.625,0.4502,0.71505
7.88,-0.26817,68.382,2.13,0.58008,0.41992,0.77517
7.888,-0.26512,67.844,2.0841,0.61475,0.34521,0.7654
7.896,-0.26206,67.356,2.0352,0.7998,0.33008,0.71505
7.904,-0.2584,66.819,1.9853,1.145,0.50977,0.565
7.912,-0.25473,66.233,1.9355,1.2949,0.59521,0.37977
7.92,-0.25107,65.598,1.8847,1.1748,0.70508,0.37488
7.928,-0.24801,65.06,1.8328,1.0347,0.87012,0.35484
7.936,-0.24496,64.474,1.7859,0.89014,0.75,0.40469
7.944,-0.24252,63.986,1.7429,0.76514,0.6001,0.52981
7.952,-0.23946,63.497,1.6979,0.70996,0.52979,0.64027
7.96,-0.23702,63.058,1.6549,0.68506,0.5,0.69013
7.968,-0.23458,62.618,1.6139,0.66016,0.4751,0.71017
7.976,-0.23274,62.179,1.5767,0.6499,0.46484,0.71994
7.984,-0.2303,61.739,1.5445,0.64014,0.45508,0.71505
7.992,-0.22908,61.348,1.5171,0.6499,0.4502,0.71505
8,-0.22724,61.055,1.4966,0.63477,0.43506,0.71994
8.008,-0.22663,60.713,1.4839,0.64502,0.43994,0.71994
8.016,-0.22541,60.371,1.477,0.63477,0.4248,0.72532
8.024,-0.2248,59.981,1.4761,0.64502,0.41992,0.72532
8.032,-0.22419,59.687,1.48,0.64014,0.41504,0.72532
8.04,-0.22358,59.346,1.4888,0.6499,0.41016,0.72532
8.048,-0.22297,59.053,1.5024,0.63477,0.3999,0.72532
8.056,-0.22236,58.759,1.52,0.64502,0.39502,0.71994
8.064,-0.22175,58.418,1.5406,0.63477,0.38525,0.71994
8.072,-0.22114,58.173,1.5621,0.64502,0.38525,0.72532
8.08,-0.21991,57.88,1.5826,0.62988,0.375,0.71994
8.088,-0.21869,57.538,1.6012,0.61475,0.35498,0.71994
8.096,-0.21686,57.294,1.6188,0.58008,0.33008,0.73509
8.104,-0.21503,57.05,1.6413,0.56006,0.31494,0.73509
8.112,-0.21319,56.855,1.6559,0.5249,0.29004,0.75024
8.12,-0.21136,56.855,1.6696,0.50488,0.2749,0.75513
8.128,-0.20953,57.099,1.6891,0.47998,0.25488,0.76002
8.136,-0.2077,58.173,1.6979,0.46484,0.24512,0.76002
8.144,-0.20586,60.616,1.7048,0.45508,0.24023,0.7654
8.152,-0.20403,64.718,1.7077,0.4502,0.24512,0.7654
8.16,-0.2022,70.189,1.7067,0.45996,0.24023,0.76002
8.168,-0.19976,76.099,1.7038,0.45508,0.24512,0.76002
8.176,-0.19731,81.912,1.7009,0.4751,0.25,0.76002
8.184,-0.19548,87.187,1.695,0.49023,0.26025,0.75513
8.192,-0.19365,92.071,1.6911,0.50977,0.27002,0.75513
8.2,-0.19181,96.565,1.6862,0.52002,0.27002,0.75024
8.208,-0.18998,100.47,1.6804,0.54492,0.29004,0.75024
8.216,-0.18876,103.7,1.6755,0.55518,0.29492,0.74536
8.224,-0.18754,105.7,1.6696,0.5752,0.31494,0.73998
8.232,-0.18632,106.48,1.6618,0.56982,0.31982,0.73509
8.24,-0.18509,105.94,1.653,0.6001,0.34521,0.73509
8.248,-0.18387,104.28,1.6442,0.60498,0.34521,0.72532
8.256,-0.18265,101.74,1.6364,0.62012,0.36523,0.71505
8.264,-0.18143,98.616,1.6276,0.62012,0.37012,0.71505
8.272,-0.18021,95.246,1.6197,0.625,0.375,0.71505
8.28,-0.1796,91.778,1.6109,0.62988,0.37988,0.71505
8.288,-0.17899,88.506,1.6061,0.625,0.375,0.70528
8.296,-0.17899,85.379,1.6051,0.62988,0.38525,0.70039
8.304,-0.17899,82.449,1.6051,0.63477,0.38525,0.70039
8.312,-0.1796,79.762,1.6051,0.625,0.39014,0.70039
8.32,-0.1796,77.223,1.6051,0.62988,0.38525,0.70039
8.328,-0.18021,74.927,1.6041,0.63477,0.40479,0.69013
8.336,-0.18082,72.729,1.6012,0.6499,0.41504,0.69013
8.344,-0.18143,70.824,1.5973,0.65479,0.41504,0.68524
8.352,-0.18204,68.919,1.5914,0.6499,0.41992,0.68035
8.36,-0.18265,67.258,1.5806,0.66504,0.43994,0.67009
8.368,-0.18326,65.695,1.5699,0.66016,0.43506,0.67498
8.376,-0.18387,64.279,1.5611,0.68018,0.4502,0.6652
8.384,-0.18448,63.155,1.5552,0.66992,0.43994,0.67009
8.392,-0.18448,62.227,1.5533,0.68506,0.45508,0.6652
8.4,-0.18448,61.495,1.5572,0.68018,0.45508,0.6652
8.408,-0.18387,61.006,1.566,0.7002,0.4502,0.67009
8.416,-0.18326,60.616,1.5855,0.69482,0.43994,0.68035
8.424,-0.18204,60.42,1.6237,0.7002,0.43506,0.69013
8.432,-0.18021,60.42,1.6784,0.7002,0.43018,0.69501
8.44,-0.17838,60.616,1.7478,0.70508,0.43506,0.70039
8.448,-0.17593,60.909,1.8299,0.69482,0.43018,0.69013
8.456,-0.17288,61.495,1.9208,0.70996,0.43506,0.66031
8.464,-0.16982,62.13,2.0587,0.7251,0.43994,0.64027
8.472,-0.16555,62.862,2.1437,0.73975,0.47021,0.62023
8.48,-0.16066,63.693,2.218,0.70996,0.47021,0.60997
8.488,-0.15516,64.621,2.3069,0.71973,0.47998,0.6002
8.496,-0.14905,65.549,2.346,0.7002,0.4751,0.60997
8.504,-0.14294,66.477,2.3666,0.70996,0.48486,0.60997
8.512,-0.13684,67.356,2.3724,0.69482,0.47998,0.61486
8.52,-0.13012,68.186,2.3675,0.68994,0.48486,0.62023
8.528,-0.1234,68.87,2.3509,0.69482,0.48486,0.62023
8.536,-0.11484,69.505,2.3255,0.66992,0.47998,0.63001
8.544,-0.10568,70.042,2.2923,0.68018,0.48486,0.6349
8.552,-0.095296,70.433,2.2551,0.68018,0.4751,0.6349
8.56,-0.084301,70.726,2.2141,0.66992,0.45996,0.64027
8.568,-0.072083,70.922,2.1691,0.66016,0.4502,0.64516
8.576,-0.059866,70.922,2.1222,0.66992,0.45508,0.66031
8.584,-0.047037,70.873,2.0714,0.63477,0.43018,0.67009
8.592,-0.034209,70.677,2.0196,0.60986,0.41016,0.69501
8.6,-0.021991,70.433,1.9746,0.54492,0.38525,0.77517
8.608,-0.0091631,70.091,1.9306,0.5249,0.31006,0.79521
8.616,0.0030544,69.749,1.8827,0.60498,0.25,0.8001
8.624,0.015272,69.359,1.8328,0.88477,0.35986,0.68524
8.632,0.028711,68.919,1.782,1.2046,0.52002,0.47996
8.64,0.04215,68.431,1.7331,1.2349,0.56982,0.36999
8.648,0.056811,67.991,1.6862,1.0547,0.73486,0.31476
8.656,0.071472,67.503,1.6422,0.92969,0.7998,0.33969
8.664,0.084911,67.063,1.6022,0.77979,0.6001,0.45992
8.672,0.098962,66.623,1.567,0.69482,0.50977,0.59531
8.68,0.11179,66.184,1.5376,0.64502,0.4502,0.67498
8.688,0.12462,65.793,1.5152,0.63477,0.43506,0.70039
8.696,0.13806,65.353,1.4985,0.625,0.43506,0.70528
8.704,0.1515,65.012,1.4907,0.62988,0.43506,0.70528
8.712,0.16555,64.67,1.4888,0.64014,0.43994,0.71017
8.72,0.1796,64.377,1.4917,0.62988,0.43018,0.70528
8.728,0.19426,64.035,1.4995,0.63477,0.43506,0.71505
8.736,0.20892,63.742,1.5132,0.62988,0.43506,0.71505
8.744,0.22358,63.448,1.5288,0.64502,0.41992,0.71505
8.752,0.23885,63.155,1.5474,0.64014,0.41992,0.71505
8.76,0.25229,62.862,1.5679,0.6499,0.40479,0.71505
8.768,0.26634,62.618,1.5904,0.63477,0.39014,0.71505
8.776,0.27917,62.374,1.6129,0.625,0.37988,0.71505
8.784,0.292,62.13,1.6373,0.60986,0.35986,0.72532
8.792,0.30483,61.885,1.6618,0.6001,0.3501,0.73509
8.8,0.31827,61.69,1.6823,0.58496,0.33008,0.73509
8.808,0.3317,61.446,1.6989,0.56494,0.31006,0.73509
8.816,0.34575,61.251,1.7165,0.53516,0.28516,0.75024
8.824,0.35797,61.055,1.7331,0.52979,0.28027,0.75024
8.832,0.3708,60.86,1.7488,0.50488,0.26514,0.76002
8.84,0.38302,60.86,1.7625,0.5,0.25488,0.76002
8.848,0.39524,61.153,1.7742,0.4751,0.24023,0.76002
8.856,0.40745,62.374,1.784,0.46484,0.24023,0.77028
8.864,0.41967,65.158,1.7937,0.4502,0.23486,0.77028
8.872,0.43189,69.798,1.8025,0.44482,0.24023,0.77028
8.88,0.44411,75.904,1.8074,0.44482,0.23486,0.77517
8.888,0.45632,82.498,1.8104,0.45996,0.24512,0.77028
8.896,0.46854,88.75,1.8104,0.46484,0.23486,0.7654
8.904,0.48015,94.416,1.8084,0.49023,0.25488,0.76002
8.912,0.49175,99.593,1.8035,0.50488,0.27002,0.76002
8.92,0.50153,104.14,1.7967,0.52979,0.28516,0.75024
8.928,0.5113,107.8,1.7898,0.5498,0.30029,0.74536
8.936,0.51924,110.39,1.783,0.56982,0.31494,0.73998
8.944,0.52779,111.61,1.7761,0.58984,0.33496,0.73509
8.952,0.53574,111.56,1.7703,0.60986,0.3501,0.73021
8.96,0.54368,110.24,1.7664,0.625,0.35986,0.72532
8.968,0.5504,107.99,1.7644,0.62988,0.375,0.72532
8.976,0.55773,105.11,1.7605,0.64014,0.38525,0.71505
8.984,0.56323,101.79,1.7566,0.63477,0.39014,0.71017
8.992,0.56872,98.372,1.7546,0.65479,0.3999,0.70039
9,0.57239,94.904,1.7537,0.65479,0.40479,0.69501
9.008,0.57666,91.632,1.7537,0.66504,0.41504,0.69501
9.016,0.57972,88.554,1.7537,0.65479,0.41016,0.69013
9.024,0.58277,85.673,1.7546,0.66016,0.41992,0.69013
9.032,0.58522,82.986,1.7586,0.65479,0.41504,0.69501
9.04,0.58766,80.544,1.7634,0.66016,0.43018,0.70039
9.048,0.58888,78.297,1.7683,0.65479,0.41992,0.69501
9.056,0.59071,76.246,1.7722,0.66016,0.43506,0.69501
9.064,0.59133,74.341,1.7742,0.6499,0.41992,0.69501
9.072,0.59255,72.631,1.7752,0.66016,0.43018,0.69013
9.08,0.59255,70.97,1.7752,0.65479,0.43994,0.69501
9.088,0.59316,69.505,1.7752,0.65479,0.43506,0.69501
9.096,0.59255,68.089,1.7752,0.6499,0.4248,0.70039
9.104,0.59255,66.916,1.7761,0.66016,0.43506,0.70039
9.112,0.59133,65.988,1.782,0.65479,0.43506,0.70039
9.12,0.59071,65.256,1.7957,0.66016,0.43994,0.70528
9.128,0.58888,64.621,1.8231,0.66016,0.44482,0.70528
9.136,0.58705,64.132,1.8641,0.6748,0.43994,0.71505
9.144,0.58522,63.839,1.9208,0.68018,0.43506,0.71994
9.152,0.58338,63.742,1.9932,0.6748,0.4248,0.73021
9.16,0.58155,63.839,2.0792,0.68506,0.4248,0.74536
9.168,0.57972,64.132,2.1711,0.68506,0.41992,0.75024
9.176,0.57728,64.572,2.262,0.68506,0.43018,0.73509
9.184,0.57544,65.109,2.348,0.69482,0.43018,0.71017
9.192,0.573,65.744,2.4233,0.70996,0.43018,0.68524
9.2,0.57056,66.428,2.478,0.71973,0.45508,0.66031
9.208,0.5675,67.161,2.5171,0.71484,0.4751,0.64027
9.216,0.56506,67.942,2.5484,0.7002,0.47998,0.64027
9.224,0.562,68.675,2.566,0.70508,0.47998,0.64027
9.232,0.55895,69.359,2.5689,0.68018,0.47021,0.64516
9.24,0.55651,69.994,2.5591,0.68018,0.47021,0.65005
9.248,0.55406,70.531,2.5396,0.66504,0.46484,0.64516
9.256,0.55162,70.97,2.5112,0.66016,0.46484,0.66031
9.264,0.54918,71.312,2.4761,0.63477,0.4502,0.6652
9.272,0.54734,71.508,2.436,0.64014,0.45508,0.6652
9.28,0.54551,71.557,2.393,0.62988,0.4502,0.67498
9.288,0.54368,71.41,2.347,0.64014,0.44482,0.68524
9.296,0.54184,71.215,2.303,0.625,0.43018,0.69013
9.304,0.5394,70.922,2.261,0.62988,0.43506,0.69013
9.312,0.53696,70.482,2.2121,0.62012,0.41504,0.70039
9.32,0.5339,69.994,2.1584,0.61475,0.41504,0.69501
9.328,0.53146,69.407,2.1036,0.56982,0.41016,0.77028
9.336,0.52779,68.87,2.0499,0.5498,0.36523,0.80499
9.344,0.52413,68.235,1.9971,0.62012,0.31494,0.8001
9.352,0.51985,67.6,1.9453,0.88477,0.3999,0.70039
9.36,0.51558,67.063,1.8954,1.2349,0.54492,0.49511
9.368,0.51069,66.379,1.8475,1.2847,0.59521,0.34506
9.376,0.50641,65.744,1.8025,1.125,0.75,0.27468
9.384,0.50153,65.158,1.7615,0.98486,0.83008,0.31965
9.392,0.49664,64.621,1.7234,0.84473,0.66992,0.45015
9.4,0.49114,64.035,1.694,0.73486,0.55518,0.60508
9.408,0.48626,63.546,1.6716,0.68506,0.49512,0.69013
9.416,0.48076,63.107,1.651,0.6499,0.45996,0.71994
9.424,0.47526,62.667,1.6364,0.63477,0.4502,0.73509
9.432,0.46915,62.227,1.6266,0.61475,0.43018,0.73998
9.44,0.46304,61.788,1.6217,0.62012,0.41992,0.74536
9.448,0.45632,61.446,1.6217,0.6001,0.3999,0.75513
9.456,0.4496,61.055,1.6246,0.60498,0.39502,0.75513
9.464,0.44349,60.664,1.6315,0.58984,0.38525,0.76002
9.472,0.438,60.371,1.6403,0.58984,0.37988,0.7654
9.48,0.4325,60.029,1.652,0.58496,0.35986,0.77028
9.488,0.427,59.736,1.6647,0.58984,0.35498,0.76002
9.496,0.42028,59.443,1.6764,0.58008,0.34521,0.76002
9.504,0.41356,59.101,1.6872,0.58496,0.3501,0.7654
9.512,0.40562,58.857,1.697,0.58496,0.33008,0.76002
9.52,0.39829,58.613,1.7058,0.58496,0.3252,0.75513
9.528,0.39035,58.369,1.7155,0.58008,0.31982,0.75513
9.536,0.38241,58.124,1.7243,0.5752,0.31494,0.75513
9.544,0.37447,57.88,1.7253,0.56006,0.30518,0.75024
9.552,0.36652,57.538,1.7195,0.56006,0.29492,0.75024
9.56,0.35919,57.294,1.7165,0.54004,0.29004,0.75513
9.568,0.35186,57.196,1.7155,0.53516,0.28027,0.75513
9.576,0.34453,57.245,1.7146,0.52979,0.28516,0.75024
9.584,0.3372,57.783,1.7146,0.51514,0.27002,0.76002
9.592,0.32987,59.492,1.7116,0.50977,0.2749,0.76002
9.6,0.32254,63.009,1.7067,0.50977,0.27002,0.75513
9.608,0.31521,68.235,1.7009,0.51514,0.28027,0.75024
9.616,0.30788,74.536,1.6911,0.52002,0.27002,0.75024
9.624,0.30116,80.935,1.6784,0.53516,0.28516,0.75024
9.632,0.29505,86.796,1.6647,0.5498,0.29492,0.73998
9.64,0.28894,92.169,1.652,0.58008,0.31494,0.73509
9.648,0.28283,97.053,1.6413,0.59521,0.3252,0.73509
9.656,0.27611,101.35,1.6315,0.62988,0.35498,0.73509
9.664,0.27001,104.92,1.6217,0.63477,0.35986,0.73021
9.672,0.26268,107.36,1.6109,0.66016,0.38525,0.71994
9.68,0.25596,108.48,1.5982,0.66992,0.40479,0.71505
9.688,0.24801,108.24,1.5855,0.68994,0.41504,0.71505
9.696,0.24068,106.68,1.5738,0.68506,0.4248,0.70528
9.704,0.23213,104.14,1.566,0.7002,0.43506,0.71017
9.712,0.22419,100.91,1.5582,0.7002,0.43994,0.69501
9.72,0.21564,97.493,1.5494,0.7002,0.43506,0.69501
9.728,0.2077,93.976,1.5415,0.69482,0.43994,0.70039
9.736,0.19914,90.557,1.5357,0.7002,0.4502,0.69501
9.744,0.19059,87.284,1.5308,0.69482,0.43994,0.69501
9.752,0.18082,84.305,1.5249,0.68994,0.4502,0.69501
9.76,0.17166,81.472,1.5191,0.7002,0.4502,0.69013
9.768,0.16188,78.932,1.5142,0.68994,0.44482,0.69013
9.776,0.15211,76.636,1.5093,0.7002,0.4502,0.69013
9.784,0.14233,74.341,1.5054,0.68506,0.43994,0.68524
9.792,0.13256,72.387,1.5015,0.68994,0.45508,0.69013
9.8,0.1234,70.482,1.4985,0.68506,0.4502,0.69013
9.808,0.11423,68.724,1.4946,0.69482,0.45508,0.68524
9.816,0.10385,67.112,1.4878,0.68994,0.45508,0.69013
9.824,0.094075,65.695,1.48,0.7002,0.45996,0.68524
9.832,0.083079,64.377,1.4721,0.69482,0.45996,0.68035
9.84,0.072694,63.155,1.4682,0.70508,0.47021,0.68035
9.848,0.061698,62.179,1.4721,0.7002,0.45996,0.68524
9.856,0.050702,61.348,1.4878,0.70996,0.46484,0.68035
9.864,0.039096,60.713,1.5191,0.7002,0.45508,0.69013
9.872,0.0281,60.225,1.5689,0.70996,0.4502,0.69501
9.88,0.017715,59.932,1.6354,0.69482,0.43506,0.71505
9.888,0.0079414,59.785,1.7165,0.7002,0.4248,0.73021
9.896,-0.0012217,59.883,1.7957,0.6748,0.41504,0.73509
9.904,-0.009774,60.029,1.8739,0.68018,0.41504,0.71994
9.912,-0.018937,60.469,1.9619,0.68018,0.41016,0.70039
9.92,-0.0281,61.006,2.0479,0.70996,0.4248,0.68524
9.928,-0.037263,61.739,2.1251,0.69482,0.43506,0.66031
9.936,-0.046426,62.472,2.1887,0.68506,0.44482,0.65005
9.944,-0.054979,63.302,2.2356,0.6748,0.43506,0.64516
9.952,-0.06292,64.181,2.2649,0.68018,0.45508,0.64027
9.96,-0.070861,65.012,2.2786,0.6748,0.45508,0.64516
9.968,-0.078192,65.793,2.2776,0.66992,0.45996,0.64027
9.976,-0.084911,66.623,2.2659,0.68018,0.45508,0.64516
9.984,-0.091631,67.356,2.2454,0.65479,0.46484,0.66031
9.992,-0.098351,67.991,2.218,0.6499,0.45508,0.6652
10,-0.10446,68.479,2.1877,0.64014,0.45508,0.67498
10.008,-0.10935,68.87,2.1564,0.65479,0.45996,0.67009
10.016,-0.11423,69.066,2.1193,0.65479,0.45508,0.67009
10.024,-0.1179,69.066,2.0772,0.65479,0.4502,0.67009
10.032,-0.12156,68.968,2.0323,0.6499,0.44482,0.67498
10.04,-0.12462,68.821,1.9834,0.65479,0.45508,0.68524
10.048,-0.12706,68.528,1.9335,0.63477,0.43994,0.69501
10.056,-0.12889,68.186,1.8847,0.58984,0.44482,0.77028
10.064,-0.13073,67.747,1.8368,0.56982,0.35498,0.77517
10.072,-0.13256,67.161,1.7889,0.70996,0.31982,0.73998
10.08,-0.13378,66.526,1.7419,1.0098,0.43018,0.62512
10.088,-0.135,65.988,1.695,1.2798,0.56006,0.43011
10.096,-0.13622,65.353,1.6549,1.1948,0.63477,0.39003
10.104,-0.13684,64.816,1.6178,1.0698,0.83984,0.40469
10.112,-0.13745,64.23,1.5797,0.90967,0.85986,0.41007
10.12,-0.13806,63.693,1.5415,0.77979,0.61475,0.51515
10.128,-0.13867,63.107,1.5054,0.69482,0.52002,0.63001
10.136,-0.13928,62.618,1.4731,0.66992,0.47998,0.69501
10.144,-0.13989,62.179,1.4467,0.64014,0.45996,0.71994
10.152,-0.14111,61.69,1.4262,0.62988,0.45508,0.73021
10.16,-0.14233,61.299,1.4125,0.625,0.43994,0.73021
10.168,-0.14356,60.86,1.4047,0.62012,0.43018,0.73509
10.176,-0.14478,60.469,1.4027,0.625,0.41992,0.73509
10.184,-0.146,60.127,1.4066,0.60498,0.41016,0.73998
10.192,-0.14722,59.736,1.4145,0.61475,0.40479,0.74536
10.2,-0.14905,59.346,1.4252,0.60498,0.38525,0.73509
10.208,-0.15089,59.004,1.4389,0.62012,0.39014,0.73509
10.216,-0.15272,58.662,1.4555,0.60498,0.37988,0.73998
10.224,-0.15394,58.32,1.4731,0.62012,0.38525,0.73998
10.232,-0.15577,57.978,1.4907,0.60498,0.36523,0.73998
10.24,-0.15699,57.734,1.5083,0.61475,0.35986,0.73509
10.248,-0.15883,57.441,1.5239,0.60986,0.35498,0.73509
10.256,-0.16066,57.099,1.5386,0.60498,0.3501,0.73509
10.264,-0.16249,56.806,1.5533,0.58496,0.33496,0.73509
10.272,-0.16371,56.561,1.567,0.58496,0.3252,0.73509
10.28,-0.16555,56.317,1.5806,0.56006,0.31006,0.73998
10.288,-0.16677,56.122,1.5924,0.56006,0.31006,0.73509
10.296,-0.1686,55.926,1.6012,0.54004,0.30029,0.73509
10.304,-0.16982,55.975,1.607,0.53516,0.29492,0.73509
10.312,-0.17166,56.464,1.6129,0.51514,0.28516,0.73998
10.32,-0.17288,57.978,1.6178,0.5249,0.29004,0.74536
10.328,-0.1741,61.055,1.6227,0.52002,0.29492,0.73998
10.336,-0.17471,65.744,1.6266,0.52979,0.29004,0.73509
10.344,-0.17532,71.361,1.6276,0.53516,0.30518,0.73509
10.352,-0.17593,77.174,1.6256,0.55518,0.31494,0.73021
10.36,-0.17654,82.595,1.6197,0.56982,0.3252,0.73021
10.368,-0.17715,87.626,1.6119,0.58496,0.31982,0.71994
10.376,-0.17838,92.218,1.6031,0.60498,0.34521,0.71505
10.384,-0.17899,96.467,1.5924,0.625,0.35498,0.71505
10.392,-0.18021,100.18,1.5816,0.64502,0.37012,0.71505
10.4,-0.18143,102.87,1.5748,0.66016,0.38525,0.71017
10.408,-0.18265,104.48,1.5679,0.6748,0.40479,0.70528
10.416,-0.18387,104.72,1.5591,0.66992,0.3999,0.70528
10.424,-0.18509,103.84,1.5503,0.68506,0.41504,0.70528
10.432,-0.18632,101.94,1.5425,0.68018,0.41992,0.69501
10.44,-0.18754,99.251,1.5357,0.68994,0.43018,0.69501
10.448,-0.18876,96.125,1.5318,0.68018,0.41992,0.69501
10.456,-0.19059,92.804,1.5298,0.68506,0.4248,0.69013
10.464,-0.19181,89.482,1.5288,0.6748,0.41992,0.69501
10.472,-0.19426,86.259,1.5279,0.68018,0.43506,0.69013
10.48,-0.19609,83.182,1.5279,0.6748,0.4248,0.69501
10.488,-0.19853,80.251,1.5269,0.68018,0.4248,0.69501
10.496,-0.20098,77.564,1.5259,0.66504,0.41992,0.69501
10.504,-0.20342,75.073,1.5269,0.66992,0.4248,0.69501
10.512,-0.20586,72.631,1.5259,0.66016,0.43018,0.70039
10.52,-0.20831,70.433,1.5249,0.66504,0.4248,0.69501
10.528,-0.21014,68.431,1.522,0.65479,0.43018,0.69501
10.536,-0.21197,66.526,1.5152,0.66504,0.43506,0.69501
10.544,-0.21381,64.816,1.5073,0.65479,0.43506,0.70039
10.552,-0.21564,63.155,1.4995,0.66016,0.43506,0.69501
10.56,-0.21686,61.788,1.4946,0.66992,0.43994,0.69501
10.568,-0.21808,60.616,1.4946,0.66016,0.43018,0.70039
10.576,-0.2193,59.687,1.5034,0.66504,0.41992,0.70528
10.584,-0.22053,58.906,1.523,0.66992,0.41504,0.71505
10.592,-0.22175,58.369,1.5552,0.6748,0.41016,0.72532
10.6,-0.22297,57.978,1.5963,0.66504,0.40479,0.73509
10.608,-0.22419,57.734,1.6491,0.6748,0.40479,0.73509
10.616,-0.22602,57.734,1.7214,0.66016,0.40479,0.73021
10.624,-0.22724,57.88,1.8065,0.68018,0.41016,0.71017
10.632,-0.22908,58.222,1.8993,0.6748,0.41016,0.69013
10.64,-0.23091,58.662,1.9912,0.71484,0.43018,0.67009
10.648,-0.23274,59.346,2.0762,0.68018,0.43506,0.66031
10.656,-0.23458,60.127,2.1505,0.68018,0.43994,0.64516
10.664,-0.23702,60.909,2.2102,0.66504,0.43506,0.65005
10.672,-0.23885,61.788,2.2551,0.66504,0.43506,0.65005
10.68,-0.24007,62.716,2.2845,0.6499,0.43994,0.65494
10.688,-0.2413,63.595,2.2991,0.65479,0.43506,0.66031
10.696,-0.24191,64.474,2.3001,0.62988,0.44482,0.6652
10.704,-0.24191,65.353,2.2903,0.63477,0.45508,0.67009
10.712,-0.24191,66.037,2.2727,0.62988,0.43994,0.68035
10.72,-0.2413,66.672,2.2493,0.64014,0.44482,0.68035
10.728,-0.24007,67.161,2.218,0.64502,0.4502,0.68524
10.736,-0.23824,67.551,2.1808,0.64014,0.44482,0.68524
10.744,-0.23641,67.796,2.1388,0.6499,0.43994,0.68035
10.752,-0.23396,67.942,2.0948,0.64502,0.4502,0.68524
10.76,-0.23152,67.942,2.0489,0.66016,0.45508,0.68524
10.768,-0.22908,67.796,2.0039,0.61475,0.43506,0.73509
10.776,-0.22663,67.6,1.958,0.5752,0.3999,0.78006
10.784,-0.22358,67.258,1.9091,0.61475,0.33008,0.7654
10.792,-0.22053,66.819,1.8583,0.81494,0.31494,0.71017
10.8,-0.21747,66.281,1.8113,1.1499,0.49512,0.565
10.808,-0.21381,65.744,1.7674,1.2749,0.56982,0.39003
10.816,-0.21014,65.109,1.7185,1.1548,0.71484,0.41007
10.824,-0.20648,64.572,1.6706,1.02,0.875,0.39492
10.832,-0.2022,63.986,1.6256,0.85986,0.71973,0.43988
10.84,-0.19914,63.351,1.5846,0.75,0.5752,0.56012
10.848,-0.19548,62.862,1.5494,0.68018,0.50977,0.6652
10.856,-0.19304,62.276,1.5171,0.65479,0.47021,0.71017
10.864,-0.18998,61.788,1.4897,0.625,0.4502,0.71994
10.872,-0.18815,61.348,1.4682,0.62988,0.4502,0.73021
10.88,-0.18632,60.909,1.4516,0.61475,0.43018,0.73509
10.888,-0.18571,60.469,1.4389,0.62012,0.43506,0.73509
10.896,-0.18448,60.029,1.434,0.60986,0.41504,0.73509
10.904,-0.18387,59.59,1.436,0.61475,0.41016,0.73509
10.912,-0.18265,59.15,1.4428,0.60986,0.40479,0.73509
10.92,-0.18204,58.808,1.4545,0.62012,0.3999,0.73998
10.928,-0.18082,58.418,1.4702,0.61475,0.39502,0.73998
10.936,-0.18082,58.027,1.4868,0.62012,0.39014,0.73509
10.944,-0.18021,57.685,1.5044,0.60986,0.375,0.73021
10.952,-0.18021,57.343,1.523,0.62012,0.37012,0.73509
10.96,-0.18021,57.05,1.5406,0.61475,0.35986,0.73021
10.968,-0.1796,56.757,1.5572,0.62012,0.36523,0.73509
10.976,-0.17899,56.464,1.5738,0.60498,0.35498,0.73021
10.984,-0.17776,56.171,1.5894,0.6001,0.3501,0.73509
10.992,-0.17654,55.878,1.6041,0.58984,0.33984,0.72532
11,-0.17471,55.633,1.6168,0.5752,0.31982,0.73021
11.008,-0.17288,55.438,1.6295,0.55518,0.30518,0.73021
11.016,-0.17104,55.34,1.6432,0.53516,0.30029,0.73509
11.024,-0.16921,55.487,1.6549,0.53516,0.31006,0.73509
11.032,-0.16738,56.317,1.6637,0.51514,0.30029,0.73998
11.04,-0.16494,58.418,1.6676,0.52002,0.30518,0.73998
11.048,-0.16249,62.13,1.6696,0.51514,0.29492,0.73509
11.056,-0.16005,67.258,1.6706,0.52979,0.29492,0.73509
11.064,-0.15761,72.924,1.6716,0.52979,0.31006,0.73021
11.072,-0.15516,78.444,1.6706,0.56006,0.3252,0.72532
11.08,-0.15272,83.621,1.6676,0.56982,0.33008,0.71505
11.088,-0.15027,88.408,1.6637,0.59521,0.34521,0.71505
11.096,-0.14783,92.95,1.6608,0.60498,0.35498,0.71505
11.104,-0.14478,97.004,1.6579,0.62988,0.37012,0.71505
11.112,-0.14172,100.37,1.652,0.64014,0.38525,0.71017
11.12,-0.13867,102.82,1.6422,0.65479,0.39014,0.69501
11.128,-0.13561,103.99,1.6315,0.66504,0.39502,0.69013
11.136,-0.13256,104.04,1.6217,0.6748,0.41016,0.69013
11.144,-0.12951,103.01,1.6129,0.68018,0.41504,0.69013
11.152,-0.12645,101.06,1.6061,0.68506,0.41992,0.68524
11.16,-0.1234,98.421,1.6002,0.68994,0.43018,0.68035
11.168,-0.11973,95.441,1.5953,0.68018,0.41992,0.69013
11.176,-0.11607,92.218,1.5904,0.68018,0.4248,0.69013
11.184,-0.1124,89.092,1.5855,0.68018,0.41992,0.69013
11.192,-0.10874,86.112,1.5826,0.6748,0.4248,0.69013
11.2,-0.10446,83.23,1.5797,0.66992,0.41992,0.69013
11.208,-0.10018,80.495,1.5758,0.6748,0.43018,0.68524
11.216,-0.095907,77.906,1.5718,0.66992,0.4248,0.69013
11.224,-0.091631,75.562,1.566,0.66504,0.41992,0.69013
11.232,-0.087355,73.217,1.5591,0.65479,0.41504,0.69013
11.24,-0.083079,71.117,1.5523,0.66504,0.4248,0.69013
11.248,-0.078803,69.114,1.5445,0.66016,0.4248,0.69013
11.256,-0.073305,67.307,1.5357,0.66504,0.43018,0.69013
11.264,-0.067807,65.598,1.5269,0.65479,0.41992,0.69013
11.272,-0.061698,64.132,1.5181,0.66504,0.43506,0.69013
11.28,-0.054979,62.814,1.5103,0.65479,0.43018,0.69013
11.288,-0.048259,61.69,1.5073,0.66504,0.43018,0.69013
11.296,-0.040929,60.713,1.5112,0.66016,0.41504,0.69501
11.304,-0.033598,60.029,1.5269,0.66992,0.41016,0.70528
11.312,-0.025657,59.541,1.5572,0.66504,0.40479,0.71505
11.32,-0.018937,59.248,1.6061,0.6748,0.40479,0.71994
11.328,-0.011607,59.101,1.6745,0.65479,0.39502,0.73021
11.336,-0.004887,59.15,1.7586,0.66016,0.39014,0.70528
11.344,0.0018326,59.443,1.8504,0.66504,0.3999,0.68035
11.352,0.0085522,59.883,1.9453,0.68994,0.39502,0.6652
11.36,0.015883,60.42,2.0371,0.69482,0.43506,0.64516
11.368,0.023213,61.104,2.1232,0.66992,0.43506,0.64027
11.376,0.030544,61.934,2.1975,0.66504,0.43506,0.6349
11.384,0.037263,62.862,2.2551,0.65479,0.43506,0.64027
11.392,0.044594,63.79,2.2923,0.66016,0.43994,0.64516
11.4,0.051313,64.718,2.3148,0.64014,0.43506,0.64027
11.408,0.058033,65.695,2.3294,0.6499,0.43994,0.64516
11.416,0.065363,66.526,2.3333,0.625,0.44482,0.65494
11.424,0.073305,67.356,2.3255,0.62988,0.43506,0.6652
11.432,0.081857,68.04,2.3089,0.62012,0.43506,0.6652
11.44,0.09102,68.675,2.2854,0.62988,0.43994,0.6652
11.448,0.10141,69.114,2.2551,0.625,0.4248,0.6652
11.456,0.11179,69.505,2.219,0.63477,0.43506,0.6652
11.464,0.1234,69.749,2.1779,0.62988,0.4248,0.6652
11.472,0.135,69.847,2.1329,0.63477,0.43506,0.6652
11.48,0.146,69.847,2.087,0.60498,0.41504,0.69501
11.488,0.15761,69.652,2.0401,0.56982,0.41992,0.7654
11.496,0.1686,69.407,1.998,0.56006,0.3252,0.7654
11.504,0.1796,69.066,1.957,0.73486,0.30518,0.73509
11.512,0.19243,68.626,1.9091,1.0747,0.49512,0.58993
11.52,0.20525,68.089,1.8583,1.3149,0.61475,0.37977
11.528,0.2193,67.6,1.8065,1.2246,0.69482,0.32502
11.536,0.23335,67.063,1.7556,1.0947,0.875,0.28983
11.544,0.24618,66.428,1.7077,0.93506,0.78516,0.35484
11.552,0.25962,65.842,1.6628,0.79004,0.61475,0.50489
11.56,0.27184,65.305,1.6217,0.68994,0.51514,0.63001
11.568,0.28406,64.816,1.5855,0.6499,0.46484,0.69013
11.576,0.29688,64.279,1.5513,0.62012,0.43506,0.71017
11.584,0.30971,63.79,1.523,0.60986,0.41992,0.71505
11.592,0.32315,63.351,1.5171,0.6001,0.40479,0.71994
11.6,0.33659,62.862,1.5249,0.58984,0.39502,0.73021
11.608,0.35003,62.423,1.5239,0.6001,0.40479,0.73509
11.616,0.36408,61.983,1.5239,0.58496,0.38525,0.73998
11.624,0.37752,61.544,1.5279,0.59521,0.37988,0.73509
11.632,0.39157,61.153,1.5367,0.58496,0.36523,0.73509
11.64,0.40318,60.86,1.5513,0.59521,0.375,0.73509
11.648,0.41539,60.469,1.5679,0.58984,0.35986,0.73509
11.656,0.42578,60.127,1.5865,0.59521,0.35986,0.73021
11.664,0.43677,59.785,1.608,0.58496,0.33984,0.73509
11.672,0.44655,59.492,1.6325,0.6001,0.3501,0.73021
11.68,0.45693,59.248,1.6588,0.58496,0.33984,0.73021
11.688,0.46671,59.004,1.6872,0.58496,0.33008,0.73021
11.696,0.47648,58.759,1.7136,0.5752,0.31982,0.73509
11.704,0.48503,58.466,1.7361,0.56494,0.31006,0.73509
11.712,0.4942,58.222,1.7586,0.5498,0.30029,0.73509
11.72,0.50275,58.124,1.781,0.54492,0.29004,0.73509
11.728,0.5113,58.124,1.8035,0.52979,0.28516,0.73021
11.736,0.51985,58.418,1.825,0.52002,0.28516,0.73509
11.744,0.52902,59.541,1.8456,0.50488,0.2749,0.73509
11.752,0.53818,62.179,1.8622,0.50977,0.28516,0.73509
11.76,0.54734,66.672,1.8719,0.5,0.28027,0.73998
11.768,0.55712,72.68,1.8768,0.50977,0.28516,0.73998
11.776,0.5675,79.03,1.8778,0.52002,0.29004,0.73998
11.784,0.57789,85.233,1.8749,0.52979,0.30029,0.73509
11.792,0.58888,90.948,1.8719,0.55518,0.31494,0.73509
11.8,0.59805,96.125,1.868,0.5752,0.3252,0.73021
11.808,0.60721,100.81,1.8631,0.58984,0.33984,0.72532
11.816,0.61515,104.87,1.8583,0.60498,0.3501,0.71994
11.824,0.62309,107.95,1.8504,0.62988,0.37012,0.71994
11.832,0.63103,109.8,1.8407,0.63477,0.375,0.71994
11.84,0.63897,110.39,1.8299,0.65479,0.38525,0.71505
11.848,0.6463,109.56,1.8162,0.66016,0.40479,0.71017
11.856,0.65425,107.7,1.8016,0.68018,0.41504,0.70528
11.864,0.66097,105.01,1.7869,0.66992,0.41504,0.70528
11.872,0.6683,101.79,1.7742,0.68018,0.4248,0.70039
11.88,0.67379,98.372,1.7654,0.66992,0.41992,0.70039
11.888,0.6799,94.855,1.7595,0.68018,0.4248,0.69501
11.896,0.68418,91.534,1.7586,0.6748,0.41992,0.70039
11.904,0.68907,88.359,1.7605,0.68018,0.41992,0.70039
11.912,0.69273,85.428,1.7625,0.66992,0.4248,0.70039
11.92,0.69701,82.742,1.7625,0.68018,0.41992,0.70528
11.928,0.69884,80.251,1.7615,0.66016,0.41992,0.70528
11.936,0.70128,77.858,1.7595,0.66504,0.41992,0.70528
11.944,0.70128,75.562,1.7556,0.65479,0.41504,0.70528
11.952,0.70189,73.413,1.7507,0.66016,0.41992,0.70528
11.96,0.70067,71.41,1.7458,0.66504,0.41504,0.70528
11.968,0.70006,69.603,1.7419,0.65479,0.4248,0.71505
11.976,0.69701,67.942,1.738,0.66016,0.4248,0.70528
11.984,0.69456,66.428,1.7361,0.65479,0.43018,0.70528
11.992,0.69029,65.109,1.738,0.65479,0.43506,0.71017
12,0.68601,63.937,1.7449,0.66016,0.43506,0.70528
12.008,0.6799,63.009,1.7605,0.66504,0.43018,0.70528
12.016,0.67379,62.179,1.7918,0.65479,0.41992,0.71017
12.024,0.66707,61.544,1.8426,0.66504,0.41504,0.71994
12.032,0.66035,61.104,1.9159,0.66992,0.40479,0.73509
12.04,0.65241,60.909,2.0088,0.68018,0.40479,0.73998
12.048,0.64447,60.86,2.1183,0.66016,0.41016,0.75513
12.056,0.63287,60.909,2.2366,0.68018,0.40479,0.73021
12.064,0.62187,61.251,2.3568,0.6748,0.40479,0.69501
12.072,0.60782,61.739,2.4712,0.7002,0.43018,0.68035
12.08,0.59377,62.276,2.5728,0.68018,0.43506,0.66031
12.088,0.57789,63.058,2.6569,0.6748,0.4502,0.65494
12.096,0.56261,63.839,2.7155,0.66016,0.43506,0.65494
12.104,0.54551,64.718,2.7546,0.66504,0.44482,0.65494
12.112,0.52902,65.598,2.782,0.65479,0.4502,0.66031
12.12,0.51374,66.477,2.7928,0.6499,0.43506,0.66031
12.128,0.49908,67.307,2.7889,0.63477,0.44482,0.6652
12.136,0.48503,68.04,2.7732,0.62988,0.4502,0.67009
12.144,0.47159,68.675,2.7468,0.62988,0.44482,0.67498
12.152,0.45877,69.261,2.7116,0.64014,0.43994,0.68035
12.16,0.44594,69.603,2.6706,0.64502,0.4502,0.69013
12.168,0.43372,69.847,2.6246,0.64014,0.4502,0.68524
12.176,0.4215,70.042,2.5748,0.65479,0.45508,0.69013
12.184,0.41173,70.042,2.522,0.64502,0.44482,0.69013
12.192,0.40195,69.945,2.4721,0.65479,0.4502,0.69013
12.2,0.39401,69.652,2.4223,0.60986,0.43506,0.73998
12.208,0.38607,69.31,2.3666,0.58008,0.44482,0.78543
12.216,0.37996,68.87,2.3069,0.62012,0.33496,0.77517
12.224,0.37385,68.284,2.2434,0.83984,0.375,0.71017
12.232,0.36836,67.747,2.1799,1.1851,0.5249,0.54008
12.24,0.36347,67.161,2.1173,1.3047,0.59521,0.35484
12.248,0.35919,66.526,2.0557,1.1748,0.7251,0.32502
12.256,0.35553,65.988,1.9961,1.0498,0.875,0.34506
12.264,0.35186,65.353,1.9413,0.87012,0.71973,0.43011
12.272,0.34881,64.816,1.8915,0.75977,0.58496,0.57527
12.28,0.34637,64.23,1.8446,0.68506,0.50488,0.68035
12.288,0.34392,63.693,1.8006,0.65479,0.47021,0.71994
12.296,0.34148,63.155,1.7664,0.62988,0.44482,0.73509
12.304,0.33903,62.667,1.741,0.625,0.43506,0.74536
12.312,0.33537,62.227,1.7195,0.60498,0.43018,0.75024
12.32,0.3317,61.739,1.7048,0.60986,0.41992,0.75513
12.328,0.32682,61.299,1.695,0.60498,0.40479,0.75513
12.336,0.32193,60.909,1.6901,0.60986,0.3999,0.75513
12.344,0.31765,60.469,1.6901,0.61475,0.40479,0.75513
12.352,0.31338,60.127,1.6931,0.60986,0.39502,0.75513
12.36,0.3091,59.736,1.6999,0.625,0.39502,0.75513
12.368,0.30483,59.443,1.7116,0.62012,0.39014,0.76002
12.376,0.29933,59.053,1.7253,0.61475,0.37988,0.75024
12.384,0.29444,58.759,1.741,0.60986,0.36523,0.75024
12.392,0.28833,58.418,1.7537,0.62988,0.37012,0.75024
12.4,0.28283,58.124,1.7644,0.62012,0.35986,0.75024
12.408,0.27611,57.783,1.7752,0.625,0.35498,0.75024
12.416,0.27001,57.49,1.7859,0.60498,0.33984,0.75024
12.424,0.26329,57.196,1.7977,0.6001,0.33984,0.75024
12.432,0.25657,56.903,1.8074,0.58496,0.33008,0.75513
12.44,0.25046,56.757,1.8133,0.56494,0.31494,0.74536
12.448,0.24435,56.659,1.8162,0.55518,0.31494,0.75024
12.456,0.23885,56.903,1.8182,0.54492,0.31494,0.74536
12.464,0.23335,58.027,1.8192,0.53516,0.31006,0.75024
12.472,0.22724,60.616,1.8192,0.54004,0.31006,0.74536
12.48,0.22114,65.012,1.8182,0.53516,0.31006,0.74536
12.488,0.21442,70.629,1.8133,0.5498,0.31494,0.73998
12.496,0.20831,76.539,1.8065,0.5498,0.31006,0.74536
12.504,0.2022,82.253,1.7996,0.5752,0.3252,0.73509
12.512,0.19609,87.382,1.7898,0.58496,0.33496,0.73509
12.52,0.18998,92.12,1.7801,0.60986,0.3501,0.73021
12.528,0.18387,96.418,1.7713,0.61475,0.35986,0.73021
12.536,0.17715,100.18,1.7625,0.6499,0.37988,0.72532
12.544,0.17043,103.11,1.7507,0.65479,0.39014,0.72532
12.552,0.1631,104.92,1.737,0.6748,0.40479,0.71505
12.56,0.15638,105.5,1.7214,0.68506,0.41992,0.71505
12.568,0.14844,104.82,1.7058,0.69482,0.41992,0.70528
12.576,0.14111,103.11,1.6891,0.7002,0.43018,0.70528
12.584,0.13256,100.67,1.6755,0.69482,0.43506,0.70528
12.592,0.12462,97.737,1.6667,0.70508,0.43994,0.70528
12.6,0.11607,94.562,1.6588,0.69482,0.43506,0.70528
12.608,0.10812,91.29,1.652,0.7002,0.4502,0.71017
12.616,0.099572,88.115,1.6461,0.68018,0.43506,0.70528
12.624,0.091631,85.135,1.6403,0.68506,0.43994,0.70528
12.632,0.082468,82.253,1.6344,0.68018,0.43506,0.71017
12.64,0.073305,79.567,1.6295,0.68506,0.43994,0.70528
12.648,0.063531,77.125,1.6237,0.6748,0.43506,0.71017
12.656,0.053757,74.878,1.6178,0.68018,0.43994,0.71017
12.664,0.043983,72.778,1.6129,0.66504,0.43506,0.71017
12.672,0.03482,70.873,1.6061,0.6748,0.44482,0.71017
12.68,0.025657,69.066,1.5973,0.66504,0.43994,0.71017
12.688,0.016494,67.307,1.5865,0.68018,0.4502,0.71017
12.696,0.0079414,65.695,1.5787,0.66016,0.43994,0.70528
12.704,-0.00061087,64.23,1.5718,0.6748,0.44482,0.71017
12.712,-0.0091631,63.009,1.566,0.66504,0.43506,0.71017
12.72,-0.017715,61.934,1.564,0.68018,0.43506,0.71017
12.728,-0.026878,61.055,1.5718,0.6748,0.4248,0.71505
12.736,-0.035431,60.371,1.5963,0.68018,0.41992,0.72532
12.744,-0.044594,59.883,1.6422,0.68018,0.41016,0.73509
12.752,-0.053757,59.492,1.7077,0.68994,0.41992,0.73509
12.76,-0.062309,59.297,1.7928,0.6748,0.41992,0.73509
12.768,-0.07025,59.346,1.8964,0.68506,0.43018,0.71017
12.776,-0.077581,59.541,2.0088,0.7002,0.4248,0.69013
12.784,-0.084911,59.883,2.1212,0.70508,0.44482,0.67498
12.792,-0.092853,60.371,2.2131,0.68506,0.4502,0.6652
12.8,-0.10079,60.909,2.2913,0.68018,0.45508,0.65005
12.808,-0.10874,61.592,2.3675,0.68506,0.45508,0.65494
12.816,-0.11668,62.423,2.4321,0.66504,0.45508,0.66031
12.824,-0.1234,63.253,2.4819,0.65479,0.45508,0.65494
12.832,-0.12951,64.035,2.5152,0.6499,0.45508,0.66031
12.84,-0.135,64.865,2.5288,0.65479,0.45996,0.67009
12.848,-0.1405,65.598,2.5249,0.62988,0.45508,0.68035
12.856,-0.14539,66.379,2.5083,0.64014,0.4502,0.68035
12.864,-0.15027,66.965,2.4819,0.63477,0.4502,0.68035
12.872,-0.15516,67.503,2.4457,0.64502,0.4502,0.68524
12.88,-0.15944,67.942,2.4027,0.64014,0.4502,0.69013
12.888,-0.16371,68.235,2.3548,0.65479,0.45508,0.68524
12.896,-0.16738,68.431,2.3089,0.6499,0.4502,0.68524
12.904,-0.17104,68.431,2.2639,0.65479,0.44482,0.69013
12.912,-0.1741,68.284,2.2141,0.6001,0.43506,0.75024
12.92,-0.17654,68.089,2.1613,0.58008,0.37988,0.77517
12.928,-0.17838,67.796,2.1056,0.62012,0.31006,0.7654
12.936,-0.18021,67.356,2.0469,0.87012,0.35986,0.68524
12.944,-0.18143,66.916,1.9883,1.2197,0.5249,0.50978
12.952,-0.18265,66.477,1.9286,1.2847,0.5752,0.39003
12.96,-0.18326,65.988,1.869,1.1196,0.75977,0.41496
12.968,-0.18387,65.402,1.8104,0.98975,0.8501,0.40469
12.976,-0.18448,64.865,1.7527,0.83008,0.68018,0.46481
12.984,-0.18509,64.279,1.6989,0.72998,0.55518,0.59531
12.992,-0.18571,63.742,1.654,0.66992,0.49023,0.68524
13,-0.18632,63.253,1.6168,0.64014,0.45996,0.71505
13.008,-0.18693,62.667,1.5797,0.62012,0.43994,0.72532
13.016,-0.18815,62.179,1.5464,0.60986,0.43506,0.73509
13.024,-0.18937,61.739,1.5171,0.61475,0.43018,0.73509
13.032,-0.19059,61.251,1.4936,0.6001,0.41504,0.73998
13.04,-0.19181,60.811,1.478,0.60986,0.41016,0.73998
13.048,-0.19365,60.322,1.4692,0.60498,0.40479,0.74536
13.056,-0.19487,59.883,1.4673,0.61475,0.41016,0.74536
13.064,-0.1967,59.492,1.4721,0.60986,0.38525,0.74536
13.072,-0.19853,59.101,1.4829,0.625,0.39502,0.74536
13.08,-0.19976,58.662,1.4995,0.62012,0.38525,0.73998
13.088,-0.20098,58.32,1.5171,0.625,0.37988,0.73509
13.096,-0.20159,57.929,1.5357,0.61475,0.35986,0.73509
13.104,-0.2022,57.538,1.5562,0.62012,0.35986,0.73509
13.112,-0.20281,57.245,1.5758,0.60986,0.3501,0.73509
13.12,-0.20342,56.903,1.5973,0.60986,0.34521,0.73509
13.128,-0.20403,56.561,1.6188,0.58496,0.3252,0.73998
13.136,-0.20464,56.22,1.6403,0.58008,0.31982,0.73509
13.144,-0.20525,55.975,1.6637,0.56006,0.31494,0.73509
13.152,-0.20586,55.78,1.6862,0.55518,0.31006,0.73509
13.16,-0.20709,55.731,1.7077,0.53516,0.30518,0.73998
13.168,-0.2077,56.073,1.7263,0.52979,0.30029,0.73509
13.176,-0.20831,57.196,1.7429,0.52002,0.30518,0.73998
13.184,-0.20831,59.59,1.7537,0.51514,0.29492,0.74536
13.192,-0.20831,63.595,1.7595,0.52979,0.30518,0.74536
13.2,-0.20831,68.724,1.7625,0.5249,0.30518,0.73509
13.208,-0.20831,74.243,1.7625,0.5498,0.31494,0.73509
13.216,-0.20831,79.567,1.7595,0.56494,0.3252,0.73021
13.224,-0.20892,84.403,1.7556,0.58984,0.33984,0.73021
13.232,-0.20892,88.945,1.7507,0.60498,0.34521,0.71994
13.24,-0.20892,93.195,1.7458,0.63477,0.36523,0.71505
13.248,-0.20892,96.907,1.739,0.64502,0.37988,0.71017
13.256,-0.20892,99.984,1.7302,0.66992,0.39502,0.71017
13.264,-0.20892,102.13,1.7185,0.6748,0.40479,0.70039
13.272,-0.20953,103.06,1.7067,0.68994,0.41504,0.70039
13.28,-0.20953,102.82,1.6989,0.68506,0.41992,0.69501
13.288,-0.21075,101.55,1.6921,0.7002,0.43506,0.69013
13.296,-0.21197,99.495,1.6852,0.68506,0.4248,0.69013
13.304,-0.21319,96.809,1.6794,0.7002,0.43506,0.69013
13.312,-0.21442,93.878,1.6735,0.68018,0.4248,0.69013
13.32,-0.21564,90.801,1.6676,0.68018,0.41992,0.69013
13.328,-0.21686,87.724,1.6628,0.66992,0.41992,0.69501
13.336,-0.21869,84.793,1.6569,0.6748,0.4248,0.69501
13.344,-0.21991,81.912,1.651,0.6499,0.41016,0.70528
13.352,-0.22175,79.176,1.6461,0.65479,0.41016,0.70039
13.36,-0.22358,76.636,1.6403,0.66016,0.41504,0.70528
13.368,-0.22541,74.243,1.6344,0.6499,0.41504,0.71017
13.376,-0.22724,71.996,1.6266,0.65479,0.41992,0.70528
13.384,-0.22969,69.847,1.6139,0.64014,0.41016,0.71017
13.392,-0.23152,67.844,1.6041,0.64502,0.41504,0.71505
13.4,-0.23335,66.037,1.5963,0.62988,0.41016,0.71505
13.408,-0.23519,64.425,1.5865,0.63477,0.41016,0.71505
13.416,-0.23702,62.911,1.5758,0.62988,0.41016,0.71017
13.424,-0.23824,61.69,1.5679,0.62988,0.39014,0.71017
13.432,-0.23946,60.567,1.565,0.625,0.38525,0.71505
13.44,-0.24068,59.687,1.5738,0.64014,0.37988,0.72532
13.448,-0.24191,58.906,1.6002,0.63477,0.375,0.73998
13.456,-0.24313,58.418,1.6461,0.65479,0.38525,0.73509
13.464,-0.24435,58.027,1.7126,0.64014,0.37988,0.73021
13.472,-0.24557,57.88,1.7967,0.65479,0.39014,0.71017
13.48,-0.2474,57.88,1.8964,0.66992,0.38525,0.69013
13.488,-0.24863,58.027,1.9912,0.7002,0.41016,0.67498
13.496,-0.24985,58.418,2.0811,0.66504,0.4248,0.6652
13.504,-0.25107,58.906,2.1808,0.66992,0.43506,0.65005
13.512,-0.25229,59.541,2.2776,0.66016,0.4248,0.64516
13.52,-0.25351,60.322,2.3646,0.66504,0.43994,0.65005
13.528,-0.25412,61.104,2.436,0.64502,0.43506,0.65005
13.536,-0.25473,61.983,2.4897,0.65479,0.44482,0.65494
13.544,-0.25535,62.862,2.5249,0.63477,0.43994,0.6652
13.552,-0.25596,63.742,2.5425,0.62988,0.44482,0.6652
13.56,-0.25596,64.572,2.5445,0.62988,0.4502,0.67009
13.568,-0.25596,65.305,2.5318,0.64014,0.44482,0.6652
13.576,-0.25535,65.988,2.5054,0.64502,0.4502,0.6652
13.584,-0.25473,66.526,2.4702,0.64014,0.44482,0.6652
13.592,-0.25351,66.965,2.433,0.65479,0.45508,0.67009
13.6,-0.25229,67.356,2.3939,0.6499,0.44482,0.68035
13.608,-0.25046,67.551,2.348,0.65479,0.4502,0.68035
13.616,-0.24801,67.698,2.2972,0.625,0.43994,0.72532
13.624,-0.24557,67.6,2.2414,0.58496,0.44482,0.7654
13.632,-0.24313,67.405,2.1818,0.61475,0.33984,0.76002
13.64,-0.24007,67.161,2.0919,0.81006,0.3252,0.70039
13.648,-0.23702,66.819,1.9892,1.1499,0.49512,0.55523
13.656,-0.23396,66.379,1.914,1.2949,0.56982,0.37488
13.664,-0.23091,65.842,1.8534,1.1748,0.70508,0.39003
13.672,-0.22786,65.353,1.7986,1.0449,0.875,0.37977
13.68,-0.2248,64.816,1.7488,0.875,0.73486,0.43011
13.688,-0.22175,64.23,1.7077,0.75977,0.6001,0.55523
13.696,-0.21869,63.693,1.6696,0.68018,0.50977,0.6652
13.704,-0.21564,63.155,1.6285,0.6499,0.4751,0.70528
13.712,-0.21197,62.667,1.5885,0.62012,0.4502,0.71994
13.72,-0.21014,62.179,1.5513,0.60986,0.43506,0.73021
13.728,-0.2077,61.69,1.5191,0.58984,0.41016,0.73509
13.736,-0.20648,61.251,1.4936,0.58496,0.3999,0.73509
13.744,-0.20464,60.713,1.4761,0.5752,0.38525,0.73998
13.752,-0.20342,60.322,1.4663,0.58496,0.38525,0.74536
13.76,-0.2022,59.883,1.4633,0.58008,0.375,0.74536
13.768,-0.20098,59.492,1.4673,0.58496,0.37012,0.75024
13.776,-0.19976,59.101,1.4761,0.58496,0.35986,0.75024
13.784,-0.19853,58.759,1.4888,0.58496,0.35498,0.75513
13.792,-0.19731,58.369,1.5034,0.58496,0.3501,0.74536
13.8,-0.19609,57.978,1.52,0.58496,0.33984,0.74536
13.808,-0.19487,57.685,1.5406,0.58984,0.33008,0.75024
13.816,-0.19304,57.343,1.5601,0.5752,0.33008,0.74536
13.824,-0.1912,57.05,1.5787,0.58496,0.31494,0.73998
13.832,-0.18937,56.806,1.5973,0.56006,0.31006,0.74536
13.84,-0.18693,56.464,1.6158,0.56494,0.30518,0.73998
13.848,-0.18387,56.22,1.6344,0.54004,0.30029,0.73998
13.856,-0.18021,56.122,1.651,0.5249,0.28516,0.73509
13.864,-0.17593,56.073,1.6676,0.50488,0.2749,0.74536
13.872,-0.17166,56.317,1.6813,0.50977,0.28516,0.74536
13.88,-0.16738,57.196,1.6931,0.49023,0.2749,0.74536
13.888,-0.16249,59.346,1.7019,0.49023,0.28027,0.73998
13.896,-0.15761,63.107,1.7077,0.49023,0.2749,0.73998
13.904,-0.15211,68.089,1.7107,0.51514,0.29004,0.73509
13.912,-0.14539,73.755,1.7126,0.51514,0.29004,0.73509
13.92,-0.13867,79.127,1.7116,0.53516,0.31006,0.72532
13.928,-0.13012,84.11,1.7077,0.54492,0.31494,0.71505
13.936,-0.12156,88.75,1.7019,0.58008,0.33984,0.71505
13.944,-0.11301,93.048,1.696,0.6001,0.3501,0.71017
13.952,-0.10446,96.907,1.6901,0.625,0.35986,0.70039
13.96,-0.096518,100.18,1.6852,0.63477,0.37988,0.70039
13.968,-0.087966,102.47,1.6804,0.65479,0.3999,0.69013
13.976,-0.078803,103.6,1.6735,0.66504,0.41016,0.69013
13.984,-0.069029,103.5,1.6637,0.68018,0.41992,0.68524
13.992,-0.058644,102.38,1.6569,0.68994,0.43018,0.68035
14,-0.047648,100.37,1.651,0.68506,0.43506,0.67009
14.008,-0.036652,97.884,1.6442,0.7002,0.43994,0.6652
14.016,-0.025657,95.051,1.6364,0.71484,0.45508,0.6652
14.024,-0.014661,92.071,1.6305,0.70508,0.43994,0.67009
14.032,-0.0030544,89.092,1.6256,0.68506,0.43506,0.68035
14.04,0.0061087,86.161,1.6207,0.6748,0.43018,0.68524
14.048,0.015883,83.279,1.6158,0.66016,0.4248,0.69013
14.056,0.024435,80.69,1.6109,0.66504,0.41992,0.69013
14.064,0.032987,78.199,1.6061,0.64502,0.41016,0.69013
14.072,0.041539,75.855,1.6012,0.6499,0.41504,0.69013
14.08,0.050092,73.755,1.5943,0.62988,0.41016,0.69501
14.088,0.058644,71.654,1.5865,0.63477,0.41016,0.70528
14.096,0.067807,69.798,1.5777,0.625,0.39502,0.70528
14.104,0.075137,68.04,1.567,0.62988,0.39502,0.71017
14.112,0.083079,66.428,1.5552,0.60498,0.38525,0.71505
14.12,0.090409,65.012,1.5455,0.60986,0.38525,0.71505
14.128,0.09774,63.595,1.5376,0.60498,0.375,0.71505
14.136,0.10507,62.472,1.5367,0.60498,0.37012,0.71505
14.144,0.11301,61.544,1.5435,0.6001,0.35986,0.71994
14.152,0.12095,60.811,1.565,0.60498,0.3501,0.73509
14.16,0.12889,60.225,1.6031,0.6001,0.33496,0.74536
14.168,0.13622,59.883,1.6579,0.60986,0.34521,0.75024
14.176,0.14417,59.687,1.7273,0.59521,0.33984,0.73998
14.184,0.1515,59.687,1.8104,0.60986,0.3501,0.71994
14.192,0.15883,59.883,1.8886,0.62988,0.35498,0.69501
14.2,0.16432,60.225,1.9648,0.64014,0.38525,0.67498
14.208,0.17043,60.713,2.0518,0.625,0.39502,0.6652
14.216,0.17593,61.348,2.1378,0.62012,0.38525,0.65494
14.224,0.18143,62.13,2.2151,0.61475,0.39502,0.65005
14.232,0.18693,62.911,2.2805,0.60986,0.3999,0.65494
14.24,0.19304,63.839,2.3333,0.61475,0.41016,0.65494
14.248,0.19976,64.816,2.3695,0.6001,0.3999,0.6652
14.256,0.20648,65.744,2.3891,0.60498,0.41016,0.6652
14.264,0.21258,66.623,2.3949,0.58496,0.41016,0.67009
14.272,0.21869,67.405,2.39,0.60498,0.41992,0.67009
14.28,0.22419,68.089,2.3734,0.60498,0.41992,0.67009
14.288,0.2303,68.724,2.3509,0.625,0.43018,0.67009
14.296,0.23763,69.261,2.3236,0.625,0.43506,0.67009
14.304,0.24557,69.603,2.2903,0.62988,0.43506,0.67498
14.312,0.25473,69.847,2.2502,0.62988,0.43506,0.67009
14.32,0.2639,69.945,2.2053,0.62988,0.43506,0.67009
14.328,0.27428,69.847,2.1554,0.58984,0.43018,0.74536
14.336,0.28528,69.749,2.1026,0.56982,0.375,0.77028
14.344,0.29688,69.407,2.0499,0.63477,0.31494,0.75513
14.352,0.3091,69.066,1.999,0.91992,0.41504,0.66031
14.36,0.3201,68.626,1.9501,1.27,0.6001,0.47019
14.368,0.3317,68.186,1.9013,1.3398,0.66016,0.31965
14.376,0.3427,67.6,1.8534,1.1797,0.80469,0.26491
14.384,0.3537,67.063,1.8065,1.0347,0.87988,0.30499
14.392,0.3653,66.477,1.7664,0.87012,0.70996,0.42473
14.4,0.37752,65.94,1.7302,0.75488,0.56982,0.58016
14.408,0.39035,65.402,1.6911,0.68018,0.49512,0.67009
14.416,0.40318,64.914,1.653,0.64014,0.45508,0.69501
14.424,0.41478,64.425,1.6178,0.625,0.43994,0.71505
14.432,0.427,63.937,1.5855,0.60986,0.43506,0.71505
14.44,0.438,63.497,1.5591,0.60498,0.41992,0.71994
14.448,0.4496,63.058,1.5406,0.6001,0.41016,0.72532
14.456,0.4606,62.667,1.5288,0.60498,0.40479,0.72532
14.464,0.47159,62.227,1.5239,0.58984,0.39014,0.73021
14.472,0.48259,61.885,1.5259,0.60498,0.39014,0.73021
14.48,0.49359,61.495,1.5337,0.6001,0.375,0.73509
14.488,0.50336,61.153,1.5435,0.60498,0.375,0.73509
14.496,0.51313,60.811,1.5552,0.58984,0.35498,0.73998
14.504,0.52169,60.469,1.5718,0.59521,0.3501,0.73509
14.512,0.53085,60.225,1.5914,0.58496,0.33984,0.73998
14.52,0.53818,59.932,1.6129,0.58496,0.33008,0.73509
14.528,0.54612,59.687,1.6354,0.56494,0.30518,0.74536
14.536,0.55284,59.346,1.6579,0.56494,0.30029,0.74536
14.544,0.55956,59.101,1.6794,0.54492,0.29004,0.74536
14.552,0.56628,58.857,1.6989,0.54004,0.28516,0.74536
14.56,0.573,58.662,1.7175,0.5249,0.27002,0.74536
14.568,0.57911,58.613,1.7351,0.51514,0.27002,0.74536
14.576,0.58522,58.808,1.7507,0.49512,0.26514,0.75024
14.584,0.59071,59.59,1.7644,0.49023,0.27002,0.75024
14.592,0.59621,61.739,1.7752,0.5,0.26514,0.75024
14.6,0.6011,65.549,1.784,0.49023,0.27002,0.75513
14.608,0.6066,70.922,1.7918,0.49512,0.27002,0.75024
14.616,0.6121,77.027,1.7967,0.49023,0.27002,0.75513
14.624,0.61759,83.035,1.7996,0.51514,0.28516,0.75024
14.632,0.62309,88.554,1.7996,0.52979,0.29004,0.74536
14.64,0.62859,93.488,1.7957,0.55518,0.31006,0.73998
14.648,0.63409,97.981,1.7898,0.56982,0.31494,0.73509
14.656,0.63958,101.89,1.783,0.6001,0.33984,0.73021
14.664,0.64447,104.87,1.7761,0.61475,0.34521,0.73509
14.672,0.64997,106.82,1.7683,0.64502,0.36523,0.71994
14.68,0.65363,107.51,1.7595,0.64014,0.375,0.71505
14.688,0.65791,106.97,1.7517,0.66504,0.39014,0.71505
14.696,0.66035,105.41,1.7439,0.65479,0.39014,0.71505
14.704,0.66341,103.06,1.7361,0.66992,0.40479,0.71017
14.712,0.66402,100.23,1.7273,0.66016,0.3999,0.71017
14.72,0.66524,97.2,1.7185,0.6748,0.40479,0.70528
14.728,0.66463,94.123,1.7097,0.65479,0.40479,0.70528
14.736,0.66463,91.045,1.7019,0.66992,0.41016,0.70528
14.744,0.6628,88.115,1.697,0.65479,0.40479,0.70528
14.752,0.66158,85.379,1.694,0.66016,0.41016,0.70528
14.76,0.65852,82.742,1.6931,0.6499,0.3999,0.71017
14.768,0.65547,80.3,1.6911,0.65479,0.40479,0.70528
14.776,0.64875,78.004,1.6901,0.64502,0.41016,0.71017
14.784,0.64264,75.855,1.6911,0.6499,0.3999,0.71017
14.792,0.63287,73.852,1.6901,0.64014,0.40479,0.71017
14.8,0.6237,71.996,1.6891,0.63477,0.3999,0.70528
14.808,0.61148,70.238,1.6872,0.64502,0.41016,0.71017
14.816,0.59927,68.626,1.6833,0.62988,0.40479,0.71505
14.824,0.58522,67.112,1.6794,0.64014,0.41016,0.71505
14.832,0.57117,65.695,1.6774,0.62988,0.40479,0.71994
14.84,0.55712,64.425,1.6804,0.64014,0.41016,0.71994
14.848,0.54307,63.351,1.6891,0.63477,0.41016,0.71994
14.856,0.52841,62.472,1.7097,0.65479,0.3999,0.72532
14.864,0.51436,61.739,1.7478,0.64502,0.39014,0.73509
14.872,0.49847,61.153,1.8074,0.65479,0.38525,0.73998
14.88,0.4832,60.811,1.8837,0.6499,0.37988,0.75513
14.888,0.46671,60.616,1.9589,0.65479,0.38525,0.76002
14.896,0.45021,60.616,2.0381,0.64502,0.37988,0.73509
14.904,0.43433,60.713,2.1329,0.66504,0.38525,0.70528
14.912,0.41906,61.104,2.2317,0.68018,0.39502,0.69013
14.92,0.4044,61.592,2.3255,0.68506,0.4248,0.67009
14.928,0.38974,62.227,2.4086,0.65479,0.41504,0.6652
14.936,0.37508,62.911,2.4741,0.66016,0.41992,0.6652
14.944,0.36042,63.742,2.522,0.64502,0.4248,0.6652
14.952,0.34514,64.474,2.5533,0.6499,0.41992,0.6652
14.96,0.33048,65.305,2.566,0.62988,0.4248,0.6652
14.968,0.31704,66.135,2.563,0.62988,0.41504,0.67498
14.976,0.30422,66.868,2.5494,0.60498,0.41992,0.68524
14.984,0.292,67.6,2.5288,0.59521,0.41016,0.69013
14.992,0.27978,68.186,2.5005,0.60498,0.41504,0.69013
15,0.27001,68.675,2.4643,0.60498,0.41016,0.69501
15.008,0.26023,69.066,2.4233,0.60986,0.40479,0.70039
15.016,0.25229,69.261,2.3793,0.60498,0.3999,0.70039
15.024,0.24496,69.359,2.3314,0.60986,0.41016,0.70528
15.032,0.23824,69.31,2.2825,0.60498,0.40479,0.71017
15.04,0.23213,69.163,2.2297,0.60986,0.41016,0.72532
15.048,0.22663,68.919,2.175,0.5498,0.39014,0.8001
15.056,0.22114,68.528,2.1212,0.54492,0.33008,0.80499
15.064,0.21686,68.089,2.0674,0.66016,0.29492,0.77028
15.072,0.21319,67.551,2.0147,0.98975,0.41504,0.6349
15.08,0.21014,66.965,1.9629,1.2646,0.54004,0.435
15.088,0.2077,66.379,1.9169,1.21,0.60986,0.37488
15.096,0.20464,65.744,1.8749,1.0649,0.80469,0.35484
15.104,0.2022,65.158,1.8309,0.93506,0.84473,0.39003
15.112,0.19914,64.572,1.7859,0.77979,0.6001,0.52493
15.12,0.19609,63.986,1.7419,0.68994,0.50977,0.65494
15.128,0.19304,63.497,1.7009,0.63477,0.45508,0.71994
15.136,0.18998,62.911,1.6628,0.61475,0.43506,0.73509
15.144,0.18693,62.472,1.6305,0.59521,0.41992,0.74536
15.152,0.18387,61.983,1.6031,0.6001,0.41504,0.75024
15.16,0.18082,61.544,1.5816,0.58496,0.41016,0.75513
15.168,0.17776,61.153,1.566,0.59521,0.40479,0.75513
15.176,0.17471,60.713,1.5572,0.58984,0.39502,0.75513
15.184,0.17166,60.322,1.5543,0.60498,0.40479,0.75513
15.192,0.16738,59.932,1.5552,0.60986,0.3999,0.75513
15.2,0.16371,59.541,1.5582,0.60498,0.39502,0.75024
15.208,0.15883,59.248,1.564,0.60986,0.37988,0.75513
15.216,0.15394,58.857,1.5738,0.6001,0.37012,0.76002
15.224,0.14905,58.564,1.5855,0.60498,0.35986,0.76002
15.232,0.14417,58.222,1.5982,0.58984,0.3501,0.76002
15.24,0.13867,57.929,1.61,0.6001,0.33984,0.76002
15.248,0.13378,57.587,1.6217,0.58496,0.33008,0.76002
15.256,0.12767,57.294,1.6354,0.58984,0.3252,0.76002
15.264,0.12217,57.05,1.6491,0.56006,0.31006,0.76002
15.272,0.11546,56.806,1.6628,0.55518,0.31494,0.76002
15.28,0.10935,56.561,1.6745,0.53516,0.29004,0.76002
15.288,0.10263,56.366,1.6833,0.52979,0.28516,0.76002
15.296,0.095907,56.464,1.6891,0.50488,0.27002,0.7654
15.304,0.089188,57.196,1.695,0.5,0.27002,0.76002
15.312,0.082468,59.004,1.6979,0.49023,0.27002,0.76002
15.32,0.075748,62.423,1.697,0.5,0.2749,0.76002
15.328,0.069029,67.307,1.6931,0.49023,0.27002,0.76002
15.336,0.06292,72.875,1.6891,0.5,0.28027,0.76002
15.344,0.056811,78.346,1.6833,0.50977,0.28027,0.76002
15.352,0.050092,83.426,1.6745,0.54004,0.29492,0.75513
15.36,0.043372,88.115,1.6637,0.55518,0.30518,0.75024
15.368,0.036652,92.511,1.652,0.58496,0.31494,0.73998
15.376,0.029933,96.418,1.6422,0.59521,0.33496,0.73998
15.384,0.023824,99.691,1.6334,0.62012,0.35498,0.73509
15.392,0.018326,101.99,1.6266,0.62988,0.35986,0.73509
15.4,0.012828,103.16,1.6188,0.64502,0.37988,0.72532
15.408,0.0073305,103.26,1.61,0.65479,0.39014,0.71994
15.416,0.00061087,102.23,1.6012,0.65479,0.3999,0.71505
15.424,-0.0054979,100.33,1.5924,0.66504,0.41016,0.71505
15.432,-0.012828,97.786,1.5836,0.66016,0.41016,0.71505
15.44,-0.019548,95.002,1.5738,0.6748,0.41992,0.71017
15.448,-0.0281,91.973,1.566,0.66016,0.41016,0.71017
15.456,-0.036042,88.994,1.5582,0.66992,0.41992,0.70528
15.464,-0.045205,86.112,1.5533,0.66504,0.4248,0.71017
15.472,-0.054368,83.377,1.5513,0.68018,0.43506,0.70039
15.48,-0.06292,80.69,1.5503,0.66504,0.43018,0.70528
15.488,-0.070861,78.102,1.5494,0.68018,0.43994,0.70039
15.496,-0.078803,75.757,1.5494,0.66504,0.43506,0.70528
15.504,-0.086744,73.51,1.5494,0.6748,0.43994,0.70528
15.512,-0.094685,71.508,1.5474,0.66504,0.44482,0.70528
15.52,-0.10263,69.554,1.5435,0.68018,0.4502,0.70039
15.528,-0.11057,67.747,1.5367,0.66992,0.44482,0.70528
15.536,-0.11851,66.135,1.5288,0.68018,0.45508,0.69501
15.544,-0.12584,64.572,1.52,0.6748,0.45996,0.70039
15.552,-0.13256,63.107,1.5112,0.68506,0.46484,0.69501
15.56,-0.13928,61.934,1.5044,0.68994,0.45508,0.69501
15.568,-0.14539,60.86,1.5044,0.68506,0.4502,0.69501
15.576,-0.1515,60.029,1.5171,0.7002,0.43994,0.71017
15.584,-0.15761,59.443,1.5396,0.69482,0.43994,0.71505
15.592,-0.16432,58.906,1.5738,0.71973,0.44482,0.71505
15.6,-0.17043,58.662,1.6295,0.71484,0.45508,0.71505
15.608,-0.17776,58.613,1.7028,0.7251,0.45996,0.69013
15.616,-0.18448,58.662,1.7898,0.74512,0.45508,0.67009
15.624,-0.19243,58.857,1.8856,0.75488,0.46484,0.6652
15.632,-0.19976,59.248,1.9824,0.74512,0.47998,0.64027
15.64,-0.20648,59.736,2.0733,0.71973,0.47998,0.64027
15.648,-0.21319,60.371,2.1535,0.70996,0.4751,0.64027
15.656,-0.2193,61.055,2.219,0.71484,0.48486,0.64027
15.664,-0.2248,61.788,2.2688,0.68506,0.47021,0.64516
15.672,-0.22969,62.618,2.303,0.6748,0.46484,0.65005
15.68,-0.23458,63.448,2.3206,0.65479,0.45508,0.66031
15.688,-0.23885,64.23,2.3196,0.6499,0.46484,0.67009
15.696,-0.24313,64.914,2.306,0.62988,0.45508,0.68035
15.704,-0.24679,65.598,2.2874,0.64502,0.45996,0.67498
15.712,-0.24985,66.184,2.263,0.64014,0.4502,0.68035
15.72,-0.2529,66.672,2.2336,0.6499,0.4502,0.68524
15.728,-0.25535,66.965,2.1994,0.63477,0.43994,0.68524
15.736,-0.25718,67.258,2.1603,0.64502,0.44482,0.68524
15.744,-0.25901,67.356,2.1183,0.62988,0.43506,0.69013
15.752,-0.26084,67.405,2.0743,0.625,0.43994,0.70528
15.76,-0.26206,67.307,2.0283,0.56494,0.41504,0.77517
15.768,-0.26268,67.063,1.9795,0.56006,0.34521,0.7654
15.776,-0.26268,66.721,1.9296,0.68506,0.29492,0.74536
15.784,-0.26206,66.379,1.8847,1.0049,0.41016,0.62512
15.792,-0.26084,65.94,1.8426,1.27,0.53516,0.43011
15.8,-0.25962,65.402,1.7957,1.1948,0.60986,0.39003
15.808,-0.2584,64.865,1.7458,1.0449,0.81982,0.40469
15.816,-0.25718,64.377,1.697,0.90479,0.83496,0.41984
15.824,-0.25596,63.79,1.651,0.75977,0.6001,0.52981
15.832,-0.25473,63.302,1.608,0.6748,0.5,0.65005
15.84,-0.25351,62.814,1.567,0.64014,0.45996,0.71017
15.848,-0.2529,62.276,1.5298,0.61475,0.43994,0.73021
15.856,-0.25229,61.885,1.4985,0.60498,0.4248,0.73998
15.864,-0.25168,61.348,1.4731,0.59521,0.41016,0.74536
15.872,-0.25107,60.909,1.4536,0.60498,0.41504,0.74536
15.88,-0.25107,60.469,1.4399,0.58984,0.3999,0.75513
15.888,-0.25107,60.029,1.433,0.6001,0.38525,0.76002
15.896,-0.25168,59.59,1.4311,0.58496,0.37988,0.76002
15.904,-0.25168,59.15,1.4321,0.60498,0.38525,0.75513
15.912,-0.2529,58.808,1.437,0.58984,0.35986,0.76002
15.92,-0.25351,58.466,1.4457,0.6001,0.36523,0.75513
15.928,-0.25473,58.124,1.4575,0.58496,0.34521,0.76002
15.936,-0.25596,57.783,1.4731,0.6001,0.3501,0.75024
15.944,-0.25718,57.441,1.4907,0.58496,0.33984,0.75024
15.952,-0.2584,57.099,1.5112,0.6001,0.33984,0.75024
15.96,-0.25962,56.806,1.5327,0.58984,0.33496,0.75024
15.968,-0.26023,56.464,1.5543,0.59521,0.33008,0.74536
15.976,-0.26023,56.171,1.5728,0.58008,0.31494,0.75024
15.984,-0.26023,55.878,1.5885,0.5752,0.31494,0.74536
15.992,-0.25962,55.682,1.6022,0.55518,0.30518,0.74536
16,-0.25901,55.487,1.6158,0.53516,0.29492,0.75024
16.008,-0.2584,55.536,1.6295,0.52002,0.29004,0.75513
16.016,-0.25718,56.073,1.6403,0.51514,0.29004,0.75513
16.024,-0.25596,57.49,1.6481,0.50977,0.29004,0.75513
16.032,-0.25473,60.42,1.654,0.5,0.29004,0.76002
16.04,-0.25351,64.816,1.6598,0.51514,0.29004,0.76002
16.048,-0.25229,69.994,1.6647,0.5249,0.29004,0.75513
16.056,-0.25107,75.22,1.6686,0.54004,0.31006,0.74536
16.064,-0.24985,80.251,1.6696,0.56494,0.3252,0.73509
16.072,-0.24863,84.94,1.6676,0.59521,0.34521,0.73021
16.08,-0.24679,89.287,1.6637,0.60986,0.35498,0.72532
16.088,-0.24557,93.292,1.6608,0.6499,0.37988,0.71505
16.096,-0.24435,96.76,1.6588,0.66016,0.39502,0.71505
16.104,-0.24374,99.447,1.654,0.68018,0.41016,0.71505
16.112,-0.24313,101.06,1.6481,0.68506,0.41504,0.71017
16.12,-0.24252,101.69,1.6422,0.70508,0.43506,0.70039
16.128,-0.24191,101.16,1.6344,0.70508,0.43506,0.69501
16.136,-0.24191,99.74,1.6256,0.7251,0.4502,0.68035
16.144,-0.24191,97.591,1.6168,0.70508,0.43994,0.68524
16.152,-0.24313,94.904,1.609,0.71973,0.4502,0.68035
16.16,-0.24374,91.973,1.6012,0.70996,0.4502,0.68035
16.168,-0.24557,88.945,1.5943,0.71973,0.45508,0.68035
16.176,-0.2474,85.917,1.5885,0.70508,0.45508,0.68524
16.184,-0.24924,82.986,1.5846,0.7002,0.45508,0.67498
16.192,-0.25107,80.3,1.5816,0.70508,0.4502,0.68035
16.2,-0.25229,77.76,1.5777,0.69482,0.45508,0.67498
16.208,-0.25351,75.366,1.5728,0.7002,0.45508,0.68035
16.216,-0.25473,73.168,1.5689,0.68018,0.4502,0.68035
16.224,-0.25596,71.068,1.5621,0.68994,0.45508,0.68524
16.232,-0.25657,69.066,1.5533,0.68018,0.4502,0.68524
16.24,-0.25718,67.161,1.5435,0.68994,0.45508,0.68524
16.248,-0.2584,65.402,1.5347,0.6748,0.44482,0.69013
16.256,-0.25962,63.839,1.5249,0.66016,0.43506,0.70039
16.264,-0.26084,62.423,1.5171,0.64502,0.4248,0.70528
16.272,-0.26206,61.251,1.5132,0.66016,0.43506,0.70039
16.28,-0.26329,60.225,1.5161,0.65479,0.41992,0.71017
16.288,-0.2639,59.346,1.5239,0.66992,0.4248,0.71994
16.296,-0.2639,58.759,1.5406,0.64502,0.39014,0.73509
16.304,-0.2639,58.222,1.5748,0.65479,0.38525,0.73509
16.312,-0.2639,57.929,1.6266,0.64014,0.39014,0.72532
16.32,-0.2639,57.734,1.696,0.65479,0.3999,0.70528
16.328,-0.2639,57.783,1.7801,0.66992,0.39014,0.68524
16.336,-0.2639,57.929,1.8729,0.7002,0.4248,0.6652
16.344,-0.2639,58.32,1.9658,0.6748,0.43506,0.65494
16.352,-0.2639,58.759,2.0547,0.66504,0.43018,0.64516
16.36,-0.2639,59.346,2.1369,0.66992,0.43994,0.64027
16.368,-0.2639,60.029,2.2063,0.66016,0.4502,0.64027
16.376,-0.2639,60.811,2.262,0.66504,0.44482,0.64516
16.384,-0.2639,61.592,2.2991,0.6499,0.43994,0.65005
16.392,-0.2639,62.374,2.3216,0.63477,0.43994,0.65494
16.4,-0.2639,63.155,2.3353,0.62988,0.44482,0.6652
16.408,-0.2639,63.937,2.3363,0.62988,0.43506,0.6652
16.416,-0.26329,64.621,2.3255,0.63477,0.43994,0.67009
16.424,-0.26268,65.256,2.304,0.64014,0.44482,0.6652
16.432,-0.26145,65.793,2.2757,0.62988,0.43994,0.67498
16.44,-0.26023,66.233,2.2434,0.64502,0.4502,0.67009
16.448,-0.2584,66.526,2.2063,0.63477,0.43506,0.68035
16.456,-0.25596,66.672,2.1662,0.64502,0.43994,0.68035
16.464,-0.25351,66.721,2.1232,0.60498,0.4248,0.71994
16.472,-0.25046,66.721,2.0772,0.56006,0.39014,0.77517
16.48,-0.24679,66.623,2.0293,0.55518,0.30029,0.7654
16.488,-0.24313,66.379,1.9844,0.76514,0.28516,0.71505
16.496,-0.23946,66.037,1.9394,1.1001,0.45508,0.56989
16.504,-0.23641,65.695,1.8886,1.2749,0.55518,0.38514
16.512,-0.23274,65.256,1.8368,1.1548,0.66504,0.39003
16.52,-0.22969,64.718,1.7849,1.0249,0.83984,0.3651
16.528,-0.22663,64.279,1.7361,0.85986,0.70996,0.41496
16.536,-0.22297,63.79,1.6911,0.74512,0.56494,0.54497
16.544,-0.2193,63.351,1.6481,0.66016,0.47998,0.66031
16.552,-0.21503,62.911,1.6061,0.64014,0.45508,0.70528
16.56,-0.21075,62.472,1.5679,0.60986,0.43018,0.71505
16.568,-0.20648,62.032,1.5347,0.60498,0.4248,0.72532
16.576,-0.2022,61.592,1.5073,0.58496,0.40479,0.73509
16.584,-0.19731,61.251,1.4878,0.58496,0.3999,0.73509
16.592,-0.19243,60.811,1.4741,0.58496,0.40479,0.73509
16.6,-0.18815,60.42,1.4653,0.59521,0.38525,0.73509
16.608,-0.18387,60.029,1.4614,0.60498,0.39502,0.73509
16.616,-0.1796,59.59,1.4614,0.58984,0.38525,0.73998
16.624,-0.17532,59.248,1.4653,0.60986,0.39014,0.73509
16.632,-0.17043,58.906,1.4741,0.60498,0.38525,0.73021
16.64,-0.16494,58.613,1.4878,0.61475,0.37012,0.73021
16.648,-0.15883,58.222,1.5044,0.6001,0.35986,0.73509
16.656,-0.15211,57.929,1.521,0.60498,0.35986,0.73021
16.664,-0.14539,57.587,1.5357,0.60498,0.35498,0.73509
16.672,-0.13806,57.294,1.5523,0.60986,0.35986,0.72532
16.68,-0.13073,57.001,1.5689,0.58984,0.33984,0.73021
16.688,-0.12279,56.757,1.5836,0.59521,0.33496,0.73021
16.696,-0.11362,56.464,1.5992,0.56982,0.31982,0.73509
16.704,-0.10385,56.317,1.6139,0.56006,0.31982,0.73021
16.712,-0.093464,56.22,1.6285,0.54004,0.31494,0.73509
16.72,-0.082468,56.464,1.6422,0.54004,0.31006,0.73509
16.728,-0.070861,57.441,1.6549,0.5249,0.31006,0.73509
16.736,-0.058644,59.59,1.6647,0.53516,0.31494,0.73509
16.744,-0.045816,63.351,1.6706,0.5249,0.31006,0.73509
16.752,-0.032987,68.235,1.6735,0.54004,0.31494,0.73509
16.76,-0.02077,73.657,1.6735,0.5498,0.31982,0.73021
16.768,-0.0079414,78.981,1.6716,0.5752,0.33008,0.71994
16.776,0.0036652,83.865,1.6686,0.58496,0.33984,0.71505
16.784,0.015272,88.359,1.6657,0.62012,0.36523,0.70039
16.792,0.027489,92.56,1.6628,0.64014,0.38525,0.69501
16.8,0.039707,96.321,1.6598,0.66992,0.39502,0.69013
16.808,0.051924,99.447,1.654,0.68018,0.41016,0.69013
16.816,0.064753,101.69,1.6432,0.69482,0.41992,0.67498
16.824,0.075748,102.87,1.6334,0.7002,0.43018,0.67498
16.832,0.087355,102.91,1.6246,0.70508,0.43506,0.68035
16.84,0.09774,101.99,1.6149,0.71484,0.44482,0.68035
16.848,0.10874,100.18,1.608,0.70508,0.43506,0.67498
16.856,0.11912,97.737,1.6022,0.71484,0.43994,0.67009
16.864,0.13012,95.002,1.5973,0.7002,0.43506,0.67498
16.872,0.14111,92.071,1.5924,0.7002,0.43506,0.67498
16.88,0.15211,89.092,1.5885,0.68018,0.43506,0.68035
16.888,0.16249,86.259,1.5855,0.68506,0.43506,0.68035
16.896,0.17288,83.426,1.5816,0.66504,0.41992,0.68035
16.904,0.18265,80.739,1.5777,0.66016,0.4248,0.68035
16.912,0.19304,78.248,1.5728,0.64014,0.40479,0.69013
16.92,0.20098,75.904,1.567,0.63477,0.3999,0.69501
16.928,0.20953,73.803,1.5611,0.61475,0.37988,0.70528
16.936,0.21625,71.801,1.5543,0.61475,0.38525,0.70528
16.944,0.22297,69.994,1.5464,0.59521,0.36523,0.71505
16.952,0.22969,68.235,1.5396,0.6001,0.375,0.71505
16.96,0.23641,66.623,1.5337,0.58496,0.36523,0.71994
16.968,0.24252,65.109,1.5298,0.58496,0.36523,0.72532
16.976,0.24924,63.79,1.5279,0.58008,0.35986,0.73021
16.984,0.25473,62.667,1.5279,0.58496,0.35986,0.73021
16.992,0.26084,61.739,1.5327,0.59521,0.36523,0.73021
17,0.26634,61.055,1.5464,0.58984,0.35498,0.73509
17.008,0.27184,60.567,1.5748,0.60498,0.34521,0.74536
17.016,0.27734,60.176,1.6207,0.61475,0.3501,0.75513
17.024,0.28283,59.981,1.6843,0.625,0.35986,0.73998
17.032,0.28894,59.932,1.7625,0.60986,0.36523,0.72532
17.04,0.29505,60.029,1.8534,0.64014,0.375,0.69013
17.048,0.30055,60.371,1.9511,0.65479,0.3999,0.67009
17.056,0.30605,60.86,2.0479,0.66992,0.4248,0.64516
17.064,0.31093,61.495,2.1388,0.64502,0.41992,0.64027
17.072,0.31582,62.227,2.219,0.65479,0.43018,0.6349
17.08,0.32071,63.058,2.2776,0.62988,0.4248,0.64027
17.088,0.3256,63.937,2.3196,0.64014,0.43506,0.6349
17.096,0.33048,64.816,2.3539,0.62988,0.43506,0.64516
17.104,0.33537,65.695,2.3754,0.63477,0.44482,0.64516
17.112,0.34026,66.526,2.3842,0.61475,0.43994,0.66031
17.12,0.34514,67.405,2.3812,0.62988,0.43506,0.66031
17.128,0.35064,68.186,2.3685,0.62012,0.43018,0.66031
17.136,0.35614,68.821,2.349,0.64014,0.43994,0.6652
17.144,0.36164,69.31,2.3226,0.62988,0.43506,0.6652
17.152,0.36713,69.652,2.2913,0.64014,0.43018,0.67009
17.16,0.37263,69.847,2.2561,0.63477,0.43994,0.67009
17.168,0.37874,69.994,2.2151,0.6499,0.4502,0.6652
17.176,0.38607,69.945,2.1691,0.60986,0.43506,0.70528
17.184,0.39401,69.749,2.1271,0.58008,0.41016,0.7654
17.192,0.40257,69.505,2.085,0.6001,0.33496,0.76002
17.2,0.41173,69.114,2.0371,0.79004,0.31494,0.71505
17.208,0.4215,68.675,1.9853,1.1499,0.53516,0.54985
17.216,0.43189,68.186,1.9316,1.335,0.64502,0.34506
17.224,0.44227,67.6,1.8788,1.2246,0.73486,0.28495
17.232,0.45327,67.063,1.827,1.0898,0.88477,0.26491
17.24,0.46304,66.477,1.7752,0.92969,0.77002,0.37977
17.248,0.47282,65.94,1.7273,0.78516,0.60986,0.54008
17.256,0.48198,65.402,1.6823,0.70508,0.52002,0.65494
17.264,0.49114,64.865,1.6393,0.65479,0.4751,0.70039
17.272,0.50092,64.377,1.5992,0.63477,0.4502,0.71994
17.28,0.5113,63.839,1.5689,0.60986,0.43018,0.73509
17.288,0.52169,63.351,1.5484,0.60498,0.41504,0.73509
17.296,0.53207,62.911,1.5337,0.58984,0.3999,0.73998
17.304,0.54062,62.472,1.5249,0.59521,0.39014,0.75024
17.312,0.54979,62.032,1.522,0.58496,0.38525,0.75513
17.32,0.55712,61.592,1.5239,0.58984,0.37988,0.75513
17.328,0.56506,61.251,1.5288,0.58496,0.36523,0.76002
17.336,0.57239,60.86,1.5376,0.58984,0.36523,0.7654
17.344,0.57972,60.567,1.5484,0.5752,0.34521,0.76002
17.352,0.58644,60.225,1.563,0.58984,0.35498,0.76002
17.36,0.59377,59.883,1.5816,0.58008,0.33984,0.76002
17.368,0.60049,59.541,1.6031,0.58496,0.33984,0.76002
17.376,0.60721,59.248,1.6246,0.5752,0.3252,0.75513
17.384,0.61332,58.906,1.6452,0.58008,0.31982,0.76002
17.392,0.62004,58.613,1.6628,0.56494,0.31006,0.76002
17.4,0.62492,58.32,1.6804,0.56006,0.31006,0.76002
17.408,0.63042,58.027,1.6989,0.5498,0.30029,0.75513
17.416,0.63409,57.783,1.7175,0.54492,0.29492,0.76002
17.424,0.63836,57.734,1.7351,0.53516,0.29492,0.75513
17.432,0.64081,57.978,1.7488,0.53516,0.29492,0.76002
17.44,0.64386,59.248,1.7605,0.52979,0.30029,0.75513
17.448,0.64569,62.032,1.7703,0.52002,0.29004,0.76002
17.456,0.64753,66.526,1.7761,0.53516,0.30518,0.75513
17.464,0.64814,72.192,1.7791,0.53516,0.30518,0.75024
17.472,0.64936,78.053,1.7801,0.55518,0.31494,0.75024
17.48,0.64936,83.621,1.781,0.56006,0.31494,0.74536
17.488,0.64936,88.75,1.7801,0.58008,0.33008,0.73998
17.496,0.64692,93.341,1.7761,0.58496,0.33496,0.73998
17.504,0.64447,97.542,1.7693,0.62012,0.3501,0.73509
17.512,0.63958,101.16,1.7615,0.625,0.35986,0.73509
17.52,0.63531,103.94,1.7527,0.6499,0.375,0.73021
17.528,0.62859,105.5,1.7439,0.65479,0.37988,0.73021
17.536,0.62187,105.94,1.7351,0.6748,0.39502,0.72532
17.544,0.61332,105.11,1.7263,0.66504,0.3999,0.72532
17.552,0.60538,103.35,1.7175,0.68506,0.41504,0.71505
17.56,0.59621,101.01,1.7077,0.66992,0.41016,0.71505
17.568,0.58766,98.177,1.7009,0.68018,0.41504,0.71017
17.576,0.57789,95.099,1.6979,0.66992,0.41016,0.71017
17.584,0.56811,92.071,1.696,0.68018,0.41504,0.71017
17.592,0.55651,89.043,1.695,0.66016,0.41016,0.71505
17.6,0.5449,86.161,1.695,0.65479,0.41016,0.71017
17.608,0.53146,83.475,1.6921,0.66016,0.41504,0.71017
17.616,0.51863,80.886,1.6891,0.65479,0.41016,0.71505
17.624,0.5058,78.444,1.6862,0.64502,0.40479,0.71505
17.632,0.49297,76.197,1.6813,0.64014,0.40479,0.71505
17.64,0.48015,74.048,1.6755,0.6499,0.41016,0.71505
17.648,0.46793,71.996,1.6706,0.64014,0.41016,0.71505
17.656,0.45327,70.091,1.6657,0.65479,0.41504,0.71505
17.664,0.43922,68.382,1.6598,0.62988,0.3999,0.71994
17.672,0.42334,66.819,1.653,0.64014,0.41016,0.71505
17.68,0.40806,65.353,1.6481,0.62988,0.41016,0.71505
17.688,0.39218,64.035,1.6432,0.65479,0.41992,0.71017
17.696,0.3763,62.911,1.6403,0.64502,0.41504,0.71017
17.704,0.36042,61.934,1.6461,0.65479,0.41016,0.71505
17.712,0.34514,61.104,1.6647,0.65479,0.41016,0.71994
17.72,0.33048,60.469,1.6989,0.6748,0.41016,0.72532
17.728,0.31582,59.981,1.7517,0.6748,0.41016,0.73509
17.736,0.30177,59.687,1.8485,0.68018,0.41504,0.73509
17.744,0.28772,59.59,1.9765,0.6748,0.41016,0.72532
17.752,0.27367,59.687,2.1017,0.69482,0.41992,0.70039
17.76,0.25962,59.883,2.2209,0.7002,0.4248,0.68035
17.768,0.24496,60.225,2.3324,0.71973,0.45508,0.66031
17.776,0.23091,60.811,2.4321,0.69482,0.45508,0.64516
17.784,0.21747,61.348,2.5054,0.68994,0.45996,0.64027
17.792,0.20464,62.032,2.5582,0.7002,0.46484,0.64516
17.8,0.19243,62.716,2.6031,0.68506,0.45996,0.65005
17.808,0.18082,63.546,2.6364,0.6748,0.47021,0.65005
17.816,0.16982,64.377,2.653,0.66992,0.45996,0.65494
17.824,0.15883,65.109,2.653,0.6748,0.47021,0.6652
17.832,0.14844,65.842,2.6403,0.65479,0.45996,0.67498
17.84,0.13867,66.477,2.6149,0.66504,0.47021,0.68035
17.848,0.12951,66.965,2.5806,0.65479,0.45996,0.68035
17.856,0.12095,67.405,2.5406,0.6748,0.46484,0.67498
17.864,0.1124,67.747,2.4927,0.66504,0.45996,0.68035
17.872,0.10446,67.942,2.4389,0.6748,0.47021,0.68035
17.88,0.097129,67.991,2.3871,0.66992,0.46484,0.68524
17.888,0.090409,67.942,2.3333,0.68506,0.4751,0.68035
17.896,0.084301,67.796,2.2727,0.63477,0.47021,0.75024
17.904,0.078803,67.551,2.2092,0.62988,0.41016,0.77028
17.912,0.073916,67.258,2.1437,0.68506,0.33984,0.75024
17.92,0.06964,66.819,2.0762,0.96973,0.4248,0.65005
17.928,0.065363,66.379,2.0108,1.2749,0.56006,0.47507
17.936,0.061698,65.842,1.9472,1.3096,0.60498,0.37977
17.944,0.058644,65.305,1.8866,1.1147,0.78516,0.35484
17.952,0.055589,64.816,1.8289,0.98975,0.85986,0.37977
17.96,0.053146,64.23,1.7752,0.82471,0.6499,0.49022
17.968,0.050702,63.693,1.7243,0.73975,0.55518,0.62023
17.976,0.047648,63.155,1.6755,0.6748,0.49023,0.70039
17.984,0.044594,62.667,1.6354,0.65479,0.47021,0.72532
17.992,0.040929,62.179,1.6031,0.625,0.43994,0.73998
18,0.037263,61.69,1.5728,0.60986,0.43506,0.74536
18.008,0.033598,61.251,1.5455,0.6001,0.41504,0.75513
18.016,0.029933,60.811,1.5239,0.59521,0.41016,0.75513
18.024,0.025657,60.371,1.5073,0.60498,0.41016,0.75513
18.032,0.021381,59.932,1.4966,0.60986,0.40479,0.75513
18.04,0.017104,59.492,1.4927,0.61475,0.39502,0.75513
18.048,0.012828,59.101,1.4946,0.60986,0.39014,0.75513
18.056,0.0079414,58.808,1.5005,0.62988,0.39014,0.75024
18.064,0.0030544,58.418,1.5103,0.62012,0.38525,0.75513
18.072,-0.0018326,58.027,1.5249,0.62988,0.375,0.75024
18.08,-0.0067196,57.734,1.5396,0.62012,0.36523,0.74536
18.088,-0.011607,57.343,1.5543,0.62988,0.35986,0.73998
18.096,-0.016494,57.05,1.5689,0.62012,0.35498,0.74536
18.104,-0.021381,56.757,1.5855,0.625,0.35498,0.73998
18.112,-0.026268,56.464,1.6051,0.6001,0.33496,0.73998
18.12,-0.031155,56.171,1.6237,0.58984,0.33496,0.73998
18.128,-0.036042,55.926,1.6413,0.56982,0.3252,0.73998
18.136,-0.040929,55.731,1.6579,0.56982,0.3252,0.73998
18.144,-0.045816,55.731,1.6725,0.54004,0.31494,0.74536
18.152,-0.050702,56.122,1.6843,0.54004,0.31006,0.74536
18.16,-0.055589,57.49,1.6931,0.52979,0.30029,0.74536
18.168,-0.061087,60.225,1.6999,0.53516,0.31006,0.75024
18.176,-0.066585,64.572,1.7048,0.53516,0.30518,0.75024
18.184,-0.072694,69.798,1.7087,0.54004,0.31006,0.73998
18.192,-0.078803,75.318,1.7116,0.55518,0.31982,0.73998
18.2,-0.084301,80.446,1.7116,0.58008,0.33008,0.73509
18.208,-0.089188,85.184,1.7087,0.58496,0.33984,0.73509
18.216,-0.094075,89.531,1.7048,0.61475,0.33496,0.72532
18.224,-0.098962,93.634,1.6999,0.63477,0.35986,0.72532
18.232,-0.10446,97.102,1.695,0.6499,0.37012,0.72532
18.24,-0.10935,99.886,1.6891,0.66992,0.38525,0.71994
18.248,-0.11484,101.6,1.6794,0.68018,0.39502,0.71505
18.256,-0.12034,102.23,1.6676,0.68994,0.41016,0.71017
18.264,-0.12523,101.74,1.6569,0.69482,0.41992,0.71017
18.272,-0.13012,100.33,1.6471,0.7002,0.4248,0.70528
18.28,-0.13561,98.177,1.6393,0.68994,0.41992,0.70039
18.288,-0.1405,95.637,1.6334,0.7002,0.43018,0.70039
18.296,-0.14661,92.804,1.6256,0.68994,0.4248,0.70039
18.304,-0.15211,89.824,1.6168,0.7002,0.43506,0.69501
18.312,-0.15883,86.845,1.609,0.68018,0.4248,0.70039
18.32,-0.16494,84.012,1.6002,0.68994,0.43506,0.69501
18.328,-0.17166,81.228,1.5904,0.6748,0.43018,0.70528
18.336,-0.17838,78.737,1.5816,0.68018,0.43506,0.70528
18.344,-0.18571,76.343,1.5738,0.66504,0.4248,0.71017
18.352,-0.19243,74.097,1.566,0.6748,0.43018,0.71017
18.36,-0.19853,71.996,1.5582,0.66504,0.4248,0.71017
18.368,-0.20464,69.994,1.5484,0.6748,0.43506,0.70528
18.376,-0.21014,68.04,1.5415,0.66016,0.41992,0.71017
18.384,-0.21503,66.281,1.5347,0.65479,0.43018,0.70528
18.392,-0.21991,64.67,1.5259,0.6499,0.41992,0.71017
18.4,-0.22419,63.253,1.5161,0.65479,0.4248,0.71505
18.408,-0.22847,61.885,1.5093,0.65479,0.41504,0.71505
18.416,-0.23274,60.713,1.5073,0.66016,0.41016,0.71505
18.424,-0.23641,59.785,1.5142,0.65479,0.41016,0.72532
18.432,-0.24007,59.004,1.5347,0.66992,0.3999,0.73509
