Time [s], PLETH, RESP, II, V, AVR
0,0.39589,0.03912,0.72461,0.51961,0.18824
0.008,0.39296,0.046455,0.72461,0.51961,0.18824
0.016,0.39198,0.05379,0.73047,0.52941,0.18824
0.024,0.39101,0.05868,0.73047,0.52941,0.18431
0.032,0.39003,0.066015,0.74414,0.52941,0.17451
0.04,0.38905,0.07335,0.74023,0.53529,0.18431
0.048,0.38905,0.080685,0.75,0.52941,0.17451
0.056,0.38905,0.08802,0.75,0.52941,0.17451
0.064,0.38905,0.095355,0.75,0.53529,0.17451
0.072,0.38905,0.10269,0.75,0.53922,0.17451
0.08,0.38905,0.11002,0.75,0.53529,0.17451
0.088,0.38807,0.11736,0.74023,0.52941,0.17451
0.096,0.3871,0.12225,0.74414,0.53529,0.17451
0.104,0.38514,0.12958,0.75,0.53922,0.17451
0.112,0.38319,0.13447,0.73438,0.5451,0.17843
0.12,0.38123,0.13936,0.73438,0.53922,0.17451
0.128,0.3783,0.14425,0.75,0.55098,0.16863
0.136,0.37634,0.14914,0.76562,0.56078,0.16471
0.144,0.37439,0.15648,0.77539,0.56471,0.15882
0.152,0.37439,0.16137,0.7793,0.57059,0.14314
0.16,0.37634,0.16626,0.78906,0.57451,0.13922
0.168,0.38221,0.17115,0.79883,0.58039,0.12353
0.176,0.39003,0.17604,0.81445,0.56078,0.12353
0.184,0.3998,0.18093,0.80469,0.55098,0.12353
0.192,0.41642,0.18826,0.79492,0.5451,0.12353
0.2,0.43891,0.19315,0.77539,0.52549,0.13333
0.208,0.4653,0.19804,0.75,0.51961,0.15882
0.216,0.49658,0.20293,0.73047,0.51961,0.17451
0.224,0.52884,0.21027,0.72461,0.51569,0.18431
0.232,0.56207,0.21516,0.72461,0.51569,0.18824
0.24,0.59238,0.22005,0.70898,0.51961,0.19412
0.248,0.61877,0.22494,0.7207,0.51569,0.19412
0.256,0.6393,0.22983,0.70508,0.51569,0.19412
0.264,0.65396,0.23472,0.70898,0.51569,0.19412
0.272,0.66178,0.23716,0.71484,0.51569,0.18824
0.28,0.66373,0.24205,0.70508,0.56078,0.2
0.288,0.6608,0.2445,0.72461,0.66078,0.2098
0.296,0.65298,0.24694,0.875,0.6902,0.098039
0.304,0.64223,0.24939,1.2441,0.4549,-0.21176
0.312,0.62952,0.25183,1.4688,0.21373,-0.40784
0.32,0.61388,0.25428,1.3047,0.15882,-0.25294
0.328,0.59824,0.25672,1.0137,0.3451,0.0039216
0.336,0.5826,0.25917,0.76562,0.41569,0.18824
0.344,0.56696,0.26161,0.56445,0.43922,0.32353
0.352,0.55132,0.26406,0.46094,0.4,0.3902
0.36,0.53666,0.2665,0.41992,0.34902,0.40392
0.368,0.52493,0.26895,0.47461,0.33922,0.35882
0.376,0.5132,0.26895,0.55078,0.3902,0.3
0.384,0.50147,0.27139,0.62891,0.4451,0.2451
0.392,0.48974,0.27384,0.66016,0.48431,0.21961
0.4,0.47801,0.27628,0.67969,0.5,0.20392
0.408,0.46725,0.28117,0.69531,0.5,0.19412
0.416,0.45846,0.28362,0.70508,0.50588,0.18431
0.424,0.45161,0.28606,0.71484,0.5,0.17451
0.432,0.44673,0.28851,0.7207,0.5,0.16863
0.44,0.44477,0.29095,0.72461,0.49412,0.16471
0.448,0.44575,0.2934,0.73047,0.5,0.1549
0.456,0.44868,0.29584,0.73047,0.4902,0.1549
0.464,0.45357,0.29829,0.74023,0.48431,0.14902
0.472,0.45846,0.30073,0.74023,0.47451,0.14902
0.48,0.46334,0.30562,0.74023,0.47451,0.14902
0.488,0.46921,0.30807,0.74414,0.46471,0.13922
0.496,0.47507,0.31051,0.75,0.46078,0.12941
0.504,0.47996,0.3154,0.75977,0.4451,0.12353
0.512,0.48485,0.31785,0.76953,0.42549,0.11961
0.52,0.48778,0.32274,0.77539,0.4098,0.1098
0.528,0.48876,0.32518,0.77539,0.39412,0.10392
0.536,0.48876,0.33007,0.77539,0.37059,0.094118
0.544,0.48583,0.33252,0.77539,0.35882,0.094118
0.552,0.48192,0.33741,0.7793,0.3549,0.094118
0.56,0.47703,0.3423,0.77539,0.34902,0.094118
0.568,0.47116,0.34719,0.78516,0.3549,0.084314
0.576,0.4653,0.34963,0.77539,0.36471,0.098039
0.584,0.45846,0.35452,0.76953,0.38039,0.1098
0.592,0.45064,0.35697,0.75391,0.40392,0.12353
0.6,0.44379,0.36186,0.75,0.42549,0.13922
0.608,0.43597,0.3643,0.73438,0.4451,0.14902
0.616,0.43011,0.36675,0.72461,0.46471,0.16471
0.624,0.42424,0.36919,0.7207,0.48039,0.17451
0.632,0.41935,0.37164,0.71484,0.5,0.17451
0.64,0.41544,0.37408,0.70898,0.50588,0.18824
0.648,0.41251,0.37653,0.7207,0.5098,0.18824
0.656,0.40958,0.37897,0.70898,0.51569,0.19412
0.664,0.40762,0.38142,0.71484,0.51961,0.18431
0.672,0.40665,0.38142,0.7207,0.51961,0.18431
0.68,0.40665,0.38142,0.72461,0.52549,0.18431
0.688,0.40567,0.38142,0.72461,0.52941,0.17843
0.696,0.40567,0.38142,0.73047,0.52941,0.18431
0.704,0.40469,0.37897,0.72461,0.53529,0.17843
0.712,0.40371,0.37897,0.74023,0.53529,0.17451
0.72,0.40274,0.37653,0.74414,0.52941,0.17451
0.728,0.40176,0.37408,0.73438,0.53922,0.17451
0.736,0.3998,0.37164,0.74023,0.53529,0.17451
0.744,0.39883,0.36675,0.73438,0.53529,0.17451
0.752,0.39589,0.3643,0.73438,0.53922,0.17451
0.76,0.39394,0.36186,0.73047,0.53529,0.17451
0.768,0.39198,0.35697,0.73438,0.53922,0.17451
0.776,0.39003,0.35452,0.72461,0.53529,0.17843
0.784,0.38807,0.34719,0.74023,0.53922,0.17451
0.792,0.38514,0.3423,0.75,0.55098,0.16471
0.8,0.38319,0.33741,0.76562,0.5549,0.14902
0.808,0.38123,0.33252,0.76953,0.56471,0.14902
0.816,0.38025,0.32518,0.78516,0.57059,0.12353
0.824,0.38123,0.32029,0.78906,0.57059,0.12941
0.832,0.38612,0.31296,0.80469,0.57451,0.12353
0.84,0.39492,0.30807,0.81055,0.56078,0.12353
0.848,0.4086,0.30073,0.79492,0.5451,0.12353
0.856,0.42815,0.2934,0.77539,0.53529,0.12941
0.864,0.45357,0.28362,0.76562,0.52549,0.14314
0.872,0.47801,0.27628,0.73438,0.51961,0.16471
0.88,0.5044,0.2665,0.7207,0.51569,0.17843
0.888,0.53568,0.25917,0.70898,0.5098,0.19412
0.896,0.56989,0.24939,0.70508,0.5098,0.19412
0.904,0.60313,0.24205,0.70508,0.5098,0.19412
0.912,0.63245,0.23472,0.69922,0.51569,0.2
0.92,0.65591,0.22494,0.70508,0.5098,0.19412
0.928,0.67351,0.2176,0.70508,0.5098,0.2
0.936,0.68328,0.21027,0.70508,0.5098,0.19412
0.944,0.68622,0.20049,0.68945,0.57059,0.21373
0.952,0.68231,0.19315,0.7207,0.66471,0.21961
0.96,0.67351,0.18337,0.89453,0.68627,0.07451
0.968,0.66276,0.17604,1.2695,0.42549,-0.24314
0.976,0.64907,0.17115,1.4492,0.2,-0.40196
0.984,0.63343,0.16381,1.2598,0.17451,-0.22745
0.992,0.61779,0.15648,1.0039,0.38431,0.0078431
1,0.60117,0.15159,0.75977,0.44902,0.19412
1.008,0.58553,0.14425,0.56055,0.46471,0.32353
1.016,0.57087,0.13692,0.44922,0.39412,0.39412
1.024,0.55718,0.12958,0.41602,0.33922,0.4098
1.032,0.5435,0.12225,0.45508,0.32941,0.37451
1.04,0.53079,0.11491,0.53906,0.38431,0.3098
1.048,0.51711,0.10758,0.60938,0.43529,0.2549
1.056,0.5044,0.10024,0.65039,0.47059,0.22941
1.064,0.49169,0.095355,0.66992,0.48039,0.2098
1.072,0.48192,0.090465,0.67969,0.4902,0.2098
1.08,0.47312,0.08313,0.68945,0.4902,0.19412
1.088,0.4653,0.07824,0.69922,0.49412,0.18824
1.096,0.45943,0.070905,0.69922,0.5,0.17843
1.104,0.45552,0.066015,0.70898,0.4902,0.17451
1.112,0.45357,0.05868,0.72461,0.4902,0.16863
1.12,0.45357,0.05379,0.72461,0.48431,0.16471
1.128,0.4565,0.0489,0.73047,0.48431,0.1549
1.136,0.45943,0.04401,0.73438,0.47451,0.14902
1.144,0.46432,0.03912,0.73047,0.47451,0.14902
1.152,0.47019,0.03423,0.75,0.47059,0.14314
1.16,0.47605,0.02934,0.75,0.44902,0.13333
1.168,0.47996,0.026895,0.75391,0.43529,0.12353
1.176,0.48289,0.022005,0.76562,0.42549,0.11961
1.184,0.48583,0.017115,0.77539,0.40392,0.10392
1.192,0.4868,0.01467,0.77539,0.38431,0.098039
1.2,0.4868,0.00978,0.77539,0.37059,0.094118
1.208,0.48485,0.007335,0.78516,0.3549,0.084314
1.216,0.48192,0.00489,0.78906,0.34902,0.078431
1.224,0.47703,0.002445,0.78516,0.33922,0.084314
1.232,0.47116,0,0.78906,0.3549,0.088235
1.24,0.46432,-0.002445,0.77539,0.3549,0.094118
1.248,0.4565,-0.00489,0.77539,0.38039,0.10392
1.256,0.44966,-0.00489,0.75391,0.4,0.12353
1.264,0.44184,-0.007335,0.74414,0.42549,0.14314
1.272,0.435,-0.00978,0.73438,0.4451,0.1549
1.28,0.42913,-0.00978,0.72461,0.46471,0.16863
1.288,0.42326,-0.012225,0.7207,0.48039,0.17843
1.296,0.41838,-0.01467,0.71484,0.49412,0.18431
1.304,0.41447,-0.017115,0.71484,0.5,0.17843
1.312,0.41056,-0.01956,0.70898,0.51569,0.18824
1.32,0.40762,-0.01956,0.7207,0.51961,0.18824
1.328,0.40567,-0.022005,0.71484,0.51961,0.17843
1.336,0.40371,-0.02445,0.72461,0.51961,0.17843
1.344,0.40176,-0.02934,0.73047,0.53529,0.17451
1.352,0.3998,-0.031785,0.73438,0.51961,0.17451
1.36,0.39687,-0.03423,0.73438,0.53529,0.17451
1.368,0.39492,-0.03912,0.74023,0.53922,0.16863
1.376,0.39296,-0.041565,0.74414,0.52941,0.16863
1.384,0.39101,-0.04401,0.75,0.53922,0.15882
1.392,0.38905,-0.046455,0.74414,0.53529,0.16863
1.4,0.3871,-0.051345,0.75,0.53922,0.16471
1.408,0.38514,-0.05379,0.74023,0.53529,0.17451
1.416,0.38319,-0.056235,0.74414,0.53922,0.16863
1.424,0.38123,-0.05868,0.74023,0.53529,0.17451
1.432,0.3783,-0.06357,0.74414,0.53922,0.17451
1.44,0.37537,-0.066015,0.74023,0.53922,0.17451
1.448,0.37146,-0.06846,0.74414,0.5451,0.16471
1.456,0.36755,-0.070905,0.75,0.5549,0.1549
1.464,0.36461,-0.07335,0.76953,0.56471,0.14902
1.472,0.36266,-0.075795,0.78516,0.57059,0.13922
1.48,0.36168,-0.07824,0.79492,0.57451,0.12353
1.488,0.36168,-0.08313,0.81055,0.58039,0.12353
1.496,0.36461,-0.085575,0.82031,0.57059,0.1098
1.504,0.37146,-0.08802,0.81445,0.56078,0.1098
1.512,0.38221,-0.090465,0.80469,0.5451,0.11961
1.52,0.39883,-0.095355,0.79492,0.5451,0.12353
1.528,0.42033,-0.0978,0.76953,0.52549,0.13922
1.536,0.44673,-0.10269,0.74023,0.51569,0.15882
1.544,0.47703,-0.10513,0.72461,0.51961,0.18431
1.552,0.50929,-0.10758,0.7207,0.51961,0.18824
1.56,0.54252,-0.11002,0.71484,0.51961,0.18824
1.568,0.56989,-0.11491,0.7207,0.51961,0.18431
1.576,0.59238,-0.11736,0.70898,0.50588,0.19412
1.584,0.61388,-0.12225,0.70898,0.51569,0.19412
1.592,0.63148,-0.12469,0.70508,0.5098,0.18824
1.6,0.64321,-0.12958,0.71484,0.5098,0.18431
1.608,0.64907,-0.13203,0.69922,0.56471,0.19412
1.616,0.64907,-0.13447,0.7207,0.6549,0.20392
1.624,0.64418,-0.13692,0.88477,0.68627,0.07451
1.632,0.63539,-0.14181,1.25,0.4451,-0.23725
1.64,0.62268,-0.14425,1.4434,0.21961,-0.40784
1.648,0.60899,-0.1467,1.2793,0.18824,-0.24314
1.656,0.59335,-0.15159,1.0488,0.4,-0.015686
1.664,0.57771,-0.15403,0.81445,0.46471,0.16471
1.672,0.56305,-0.15648,0.5957,0.47451,0.31961
1.68,0.55034,-0.15892,0.46094,0.40392,0.3902
1.688,0.53568,-0.16137,0.41016,0.3451,0.40392
1.696,0.52102,-0.16381,0.45508,0.33529,0.37059
1.704,0.50538,-0.16626,0.5293,0.38039,0.3098
1.712,0.49071,-0.1687,0.61914,0.42941,0.24902
1.72,0.47605,-0.17115,0.6543,0.47059,0.21961
1.728,0.46237,-0.17359,0.67969,0.48039,0.20392
1.736,0.45064,-0.17359,0.68945,0.4902,0.19412
1.744,0.44086,-0.17604,0.69922,0.4902,0.18824
1.752,0.43304,-0.17604,0.69922,0.48431,0.17843
1.76,0.42815,-0.17604,0.71484,0.49412,0.17451
1.768,0.42522,-0.17848,0.72461,0.48431,0.17451
1.776,0.42229,-0.17848,0.7207,0.48431,0.16863
1.784,0.41935,-0.18093,0.73047,0.48039,0.14902
1.792,0.42033,-0.18093,0.73047,0.48039,0.1549
1.8,0.42326,-0.18093,0.74023,0.47059,0.14902
1.808,0.42815,-0.18093,0.74023,0.46471,0.14902
1.816,0.43304,-0.18093,0.74414,0.4549,0.13922
1.824,0.43793,-0.18093,0.75,0.4451,0.13333
1.832,0.44184,-0.18093,0.75391,0.43529,0.12353
1.84,0.44575,-0.18093,0.76562,0.41569,0.11961
1.848,0.4477,-0.18093,0.77539,0.4,0.098039
1.856,0.44966,-0.18093,0.7793,0.38039,0.098039
1.864,0.44868,-0.18093,0.78516,0.36471,0.088235
1.872,0.4477,-0.17848,0.79492,0.3549,0.078431
1.88,0.44477,-0.17848,0.78906,0.33922,0.078431
1.888,0.44184,-0.17848,0.79492,0.33529,0.078431
1.896,0.43695,-0.17848,0.78906,0.33922,0.078431
1.904,0.43206,-0.17604,0.78516,0.34902,0.088235
1.912,0.4262,-0.17604,0.7793,0.37059,0.098039
1.92,0.41935,-0.17604,0.76953,0.3902,0.11961
1.928,0.41349,-0.17604,0.75,0.41569,0.13922
1.936,0.40762,-0.17359,0.74023,0.43922,0.14902
1.944,0.40176,-0.17359,0.72461,0.46078,0.16863
1.952,0.39687,-0.17359,0.72461,0.47451,0.17451
1.96,0.39198,-0.17359,0.70898,0.4902,0.18824
1.968,0.38807,-0.17115,0.70898,0.5,0.18824
1.976,0.38612,-0.17115,0.70508,0.5,0.19412
1.984,0.38416,-0.17115,0.71484,0.50588,0.18824
1.992,0.38221,-0.17115,0.7207,0.51569,0.18824
2,0.38123,-0.1687,0.71484,0.51961,0.19412
2.008,0.38025,-0.1687,0.71484,0.52549,0.18824
2.016,0.38025,-0.1687,0.72461,0.51961,0.18431
2.024,0.38025,-0.1687,0.73438,0.52549,0.17843
2.032,0.38025,-0.16626,0.74023,0.52941,0.17451
2.04,0.38025,-0.16626,0.73047,0.52549,0.17451
2.048,0.38025,-0.16626,0.73438,0.51961,0.17843
2.056,0.37928,-0.16626,0.74023,0.52549,0.17451
2.064,0.3783,-0.16626,0.74414,0.51961,0.17451
2.072,0.37732,-0.16626,0.73047,0.52549,0.17843
2.08,0.37537,-0.16626,0.73438,0.52941,0.17451
2.088,0.37243,-0.16626,0.73047,0.52549,0.17451
2.096,0.3695,-0.16626,0.73438,0.51961,0.17451
2.104,0.36657,-0.16626,0.74414,0.52549,0.17451
2.112,0.36364,-0.16626,0.75,0.52941,0.16863
2.12,0.3607,-0.16626,0.75,0.5451,0.16471
2.128,0.35875,-0.16626,0.76953,0.5451,0.1549
2.136,0.35679,-0.1687,0.7793,0.56078,0.14314
2.144,0.35582,-0.1687,0.79492,0.57059,0.12941
2.152,0.35582,-0.1687,0.81445,0.58039,0.11373
2.16,0.35875,-0.17115,0.81055,0.57059,0.11961
2.168,0.36364,-0.17115,0.82031,0.56078,0.1098
2.176,0.37048,-0.17359,0.81055,0.5451,0.11961
2.184,0.38221,-0.17359,0.79883,0.53922,0.12353
2.192,0.39785,-0.17604,0.7793,0.52941,0.13333
2.2,0.41838,-0.17604,0.75391,0.51961,0.1549
2.208,0.44282,-0.17848,0.73047,0.51569,0.17451
2.216,0.47019,-0.18093,0.7207,0.5098,0.18824
2.224,0.49853,-0.18093,0.71484,0.50588,0.19412
2.232,0.52688,-0.18337,0.70898,0.50588,0.18824
2.24,0.5523,-0.18582,0.70898,0.5,0.19412
2.248,0.5738,-0.18582,0.70898,0.50588,0.19412
2.256,0.5914,-0.18826,0.71484,0.5098,0.19412
2.264,0.60117,-0.18826,0.70898,0.5098,0.19412
2.272,0.60704,-0.18826,0.69922,0.53529,0.20392
2.28,0.60802,-0.19071,0.70898,0.62549,0.21373
2.288,0.60508,-0.19071,0.81445,0.68039,0.13922
2.296,0.59824,-0.19315,1.1445,0.51569,-0.14706
2.304,0.58749,-0.19315,1.4082,0.25882,-0.38235
2.312,0.57576,-0.19315,1.4336,0.18824,-0.40196
2.32,0.56207,-0.1956,1.1035,0.36471,-0.05098
2.328,0.54741,-0.1956,0.87891,0.44902,0.12941
2.336,0.53372,-0.1956,0.6543,0.46471,0.2902
2.344,0.51906,-0.19804,0.49414,0.41569,0.38431
2.352,0.50538,-0.19804,0.41016,0.3451,0.42549
2.36,0.49169,-0.19804,0.4043,0.32353,0.40392
2.368,0.47996,-0.19804,0.50586,0.35882,0.33922
2.376,0.46921,-0.1956,0.58984,0.41961,0.27843
2.384,0.45846,-0.1956,0.64453,0.46078,0.23333
2.392,0.44673,-0.1956,0.66406,0.47451,0.21373
2.4,0.43597,-0.1956,0.67969,0.48039,0.20392
2.408,0.42717,-0.19315,0.68945,0.48431,0.18824
2.416,0.41935,-0.19315,0.70508,0.4902,0.17843
2.424,0.41447,-0.19315,0.70508,0.4902,0.17843
2.432,0.41153,-0.19315,0.71484,0.48431,0.17451
2.44,0.41153,-0.19071,0.71484,0.48039,0.17451
2.448,0.41349,-0.19071,0.72461,0.48039,0.15882
2.456,0.4174,-0.19071,0.72461,0.47451,0.16471
2.464,0.42131,-0.18826,0.73047,0.47451,0.1549
2.472,0.4262,-0.18582,0.73438,0.46471,0.14902
2.48,0.43109,-0.18582,0.74023,0.46078,0.14314
2.488,0.43597,-0.18337,0.74414,0.44902,0.13922
2.496,0.44184,-0.18093,0.75391,0.43922,0.12353
2.504,0.44575,-0.17848,0.76562,0.42549,0.11961
2.512,0.44966,-0.17604,0.77539,0.4098,0.10392
2.52,0.45161,-0.17359,0.7793,0.38431,0.098039
2.528,0.45161,-0.17115,0.78516,0.37451,0.088235
2.536,0.44966,-0.17115,0.79492,0.3549,0.078431
2.544,0.44673,-0.1687,0.79492,0.34902,0.078431
2.552,0.44282,-0.16626,0.79492,0.33922,0.078431
2.56,0.43695,-0.16381,0.79492,0.33922,0.078431
2.568,0.43206,-0.16381,0.78906,0.3549,0.084314
2.576,0.42717,-0.16137,0.78516,0.37059,0.094118
2.584,0.42131,-0.15892,0.76953,0.39412,0.1098
2.592,0.41544,-0.15648,0.75391,0.41569,0.12353
2.6,0.4086,-0.15403,0.74414,0.43529,0.13922
2.608,0.40274,-0.15159,0.72461,0.4549,0.15882
2.616,0.39687,-0.14914,0.72461,0.47451,0.16863
2.624,0.39101,-0.14914,0.72461,0.4902,0.17451
2.632,0.3871,-0.1467,0.71484,0.49412,0.18431
2.64,0.38319,-0.14425,0.70898,0.50588,0.18824
2.648,0.38025,-0.14425,0.71484,0.51569,0.18824
2.656,0.3783,-0.14181,0.71484,0.51961,0.18824
2.664,0.37732,-0.14181,0.72461,0.52549,0.18431
2.672,0.37634,-0.14181,0.73047,0.51961,0.17843
2.68,0.37634,-0.13936,0.74023,0.52549,0.17451
2.688,0.37537,-0.13936,0.73438,0.52549,0.17451
2.696,0.37537,-0.13936,0.74414,0.52549,0.16863
2.704,0.37439,-0.13692,0.74414,0.52941,0.16471
2.712,0.37341,-0.13692,0.74023,0.52549,0.17451
2.72,0.37243,-0.13692,0.75,0.52549,0.15882
2.728,0.37146,-0.13692,0.75,0.52941,0.15882
2.736,0.3695,-0.13692,0.75,0.53529,0.16471
2.744,0.36755,-0.13447,0.74414,0.52941,0.16863
2.752,0.36461,-0.13692,0.74414,0.53529,0.16471
2.76,0.36266,-0.13692,0.74023,0.52941,0.17451
2.768,0.3607,-0.13692,0.74414,0.53529,0.16863
2.776,0.35875,-0.13692,0.74023,0.52549,0.17451
2.784,0.35679,-0.13936,0.75,0.5451,0.15882
2.792,0.35484,-0.13936,0.75391,0.55098,0.1549
2.8,0.35288,-0.13936,0.7793,0.5549,0.13922
2.808,0.35093,-0.14181,0.78906,0.56471,0.12941
2.816,0.35093,-0.14181,0.81055,0.57059,0.11373
2.824,0.35191,-0.14425,0.80469,0.57451,0.11373
2.832,0.35679,-0.1467,0.82422,0.56078,0.10392
2.84,0.36461,-0.1467,0.82031,0.5451,0.1098
2.848,0.37732,-0.14914,0.80469,0.53922,0.1098
2.856,0.39394,-0.15159,0.78906,0.52941,0.11961
2.864,0.41056,-0.15159,0.76562,0.51569,0.13333
2.872,0.43011,-0.15403,0.73438,0.51569,0.16863
2.88,0.45455,-0.15648,0.72461,0.51961,0.17843
2.888,0.48192,-0.15648,0.72461,0.5098,0.18431
2.896,0.50929,-0.15892,0.73047,0.51569,0.18431
2.904,0.53666,-0.16137,0.73438,0.5098,0.17843
2.912,0.56012,-0.16137,0.73438,0.51569,0.17843
2.92,0.57869,-0.16381,0.72461,0.51569,0.18824
2.928,0.59335,-0.16626,0.71484,0.50588,0.19412
2.936,0.6002,-0.16626,0.7207,0.52549,0.19412
2.944,0.60215,-0.1687,0.69922,0.61569,0.21373
2.952,0.6002,-0.1687,0.78516,0.68627,0.16471
2.96,0.59335,-0.1687,1.0645,0.57451,-0.072549
2.968,0.58456,-0.1687,1.3789,0.30392,-0.35294
2.976,0.5738,-0.17115,1.4336,0.18824,-0.39804
2.984,0.56109,-0.17115,1.1387,0.33529,-0.092157
2.992,0.54741,-0.17115,0.91406,0.4451,0.10392
3,0.53372,-0.17115,0.68555,0.47451,0.25882
3.008,0.51906,-0.17115,0.51953,0.43922,0.36471
3.016,0.50538,-0.17115,0.42969,0.37059,0.4098
3.024,0.49071,-0.17115,0.41992,0.33529,0.4
3.032,0.47703,-0.1687,0.50586,0.3549,0.33922
3.04,0.46432,-0.1687,0.58984,0.4098,0.27843
3.048,0.45161,-0.1687,0.64453,0.44902,0.23333
3.056,0.43891,-0.16626,0.66992,0.48039,0.21961
3.064,0.42913,-0.16626,0.69531,0.48431,0.19412
3.072,0.42131,-0.16381,0.69922,0.4902,0.18824
3.08,0.41349,-0.16137,0.69922,0.4902,0.18431
3.088,0.40762,-0.15892,0.70898,0.49412,0.17843
3.096,0.40469,-0.15648,0.72461,0.49412,0.17451
3.104,0.40371,-0.15403,0.72461,0.48431,0.17451
3.112,0.40469,-0.15159,0.73047,0.48431,0.15882
3.12,0.40762,-0.1467,0.73438,0.48039,0.15882
3.128,0.41251,-0.14181,0.74414,0.47451,0.14902
3.136,0.4174,-0.13936,0.75,0.47059,0.14902
3.144,0.42326,-0.13447,0.74414,0.46078,0.13922
3.152,0.42913,-0.12958,0.75977,0.44902,0.13333
3.16,0.43304,-0.12469,0.76562,0.44902,0.12353
3.168,0.43695,-0.1198,0.76953,0.42941,0.12353
3.176,0.43891,-0.11247,0.77539,0.4098,0.1098
3.184,0.44086,-0.10513,0.77539,0.39412,0.10392
3.192,0.44086,-0.0978,0.78516,0.38039,0.098039
3.2,0.43988,-0.090465,0.79492,0.35882,0.088235
3.208,0.43793,-0.085575,0.79492,0.34902,0.078431
3.216,0.43402,-0.07824,0.78906,0.33922,0.078431
3.224,0.42913,-0.070905,0.78906,0.3451,0.084314
3.232,0.42326,-0.06357,0.78906,0.34902,0.084314
3.24,0.41642,-0.056235,0.79492,0.37059,0.098039
3.248,0.4086,-0.0489,0.77539,0.39412,0.1098
3.256,0.40176,-0.041565,0.75391,0.41569,0.13333
3.264,0.39687,-0.03423,0.75,0.43529,0.14902
3.272,0.39198,-0.02445,0.74023,0.4549,0.15882
3.28,0.3871,-0.01467,0.73047,0.47451,0.17451
3.288,0.38221,-0.007335,0.72461,0.4902,0.17843
3.296,0.37732,0,0.72461,0.5,0.17843
3.304,0.37341,0.00978,0.72461,0.50588,0.18431
3.312,0.37048,0.01467,0.72461,0.51569,0.18824
3.32,0.36755,0.022005,0.72461,0.51961,0.18431
3.328,0.36559,0.02934,0.73047,0.52549,0.18824
3.336,0.36364,0.03423,0.73047,0.52941,0.18431
3.344,0.36168,0.041565,0.73438,0.53529,0.17843
3.352,0.3607,0.0489,0.73438,0.52941,0.17451
3.36,0.35973,0.05379,0.74023,0.53529,0.17451
3.368,0.35973,0.061125,0.74414,0.53529,0.17451
3.376,0.35875,0.066015,0.74023,0.52941,0.16863
3.384,0.35875,0.070905,0.75391,0.52549,0.15882
3.392,0.35777,0.07824,0.75,0.52941,0.16471
3.4,0.35679,0.08313,0.75391,0.53529,0.1549
3.408,0.35679,0.08802,0.75,0.53529,0.16471
3.416,0.35582,0.09291,0.75,0.53529,0.16863
3.424,0.35386,0.0978,0.74414,0.53529,0.16863
3.432,0.35191,0.10513,0.75,0.53922,0.16863
3.44,0.34995,0.11247,0.74414,0.53529,0.17451
3.448,0.348,0.11736,0.75,0.53529,0.16863
3.456,0.34506,0.12469,0.75977,0.55098,0.15882
3.464,0.34311,0.12958,0.76562,0.56078,0.1549
3.472,0.34311,0.13447,0.77539,0.56471,0.14902
3.48,0.34311,0.13936,0.78906,0.57059,0.13333
3.488,0.34506,0.14425,0.80469,0.57451,0.12353
3.496,0.34995,0.15159,0.81445,0.57451,0.11373
3.504,0.35777,0.15648,0.82031,0.56078,0.11961
3.512,0.3695,0.16381,0.81055,0.5451,0.12353
3.52,0.38612,0.17115,0.79883,0.53922,0.12353
3.528,0.40665,0.17604,0.7793,0.52941,0.13333
3.536,0.43109,0.18093,0.75,0.51961,0.1549
3.544,0.45943,0.18826,0.73438,0.51961,0.17451
3.552,0.48876,0.19315,0.72461,0.51569,0.18431
3.56,0.51808,0.19804,0.72461,0.51569,0.17843
3.568,0.54154,0.20293,0.72461,0.51569,0.18431
3.576,0.56012,0.20782,0.72461,0.50588,0.18824
3.584,0.57771,0.21271,0.72461,0.5098,0.18824
3.592,0.5914,0.2176,0.72461,0.5098,0.19412
3.6,0.59922,0.22494,0.72461,0.51569,0.18431
3.608,0.60215,0.22983,0.70898,0.56078,0.19412
3.616,0.59922,0.23472,0.73047,0.6549,0.2
3.624,0.59335,0.23961,0.87891,0.68039,0.094118
3.632,0.5826,0.24205,1.25,0.46078,-0.21765
3.64,0.56989,0.24694,1.4746,0.20392,-0.41176
3.648,0.55621,0.24939,1.3145,0.14902,-0.27255
3.656,0.54154,0.25428,1.0254,0.3451,-0.015686
3.664,0.52493,0.25917,0.77539,0.41569,0.17451
3.672,0.51124,0.26161,0.57031,0.43922,0.31373
3.68,0.50147,0.2665,0.4707,0.39412,0.38039
3.688,0.48974,0.26895,0.42969,0.3451,0.38431
3.696,0.47801,0.27139,0.48047,0.32941,0.34902
3.704,0.4653,0.27628,0.56055,0.39412,0.29412
3.712,0.45455,0.27873,0.64062,0.43922,0.23922
3.72,0.44379,0.28117,0.66992,0.48039,0.2098
3.728,0.43304,0.28362,0.68945,0.5,0.19412
3.736,0.42424,0.28606,0.69922,0.5,0.18824
3.744,0.4174,0.28851,0.71484,0.5,0.17451
3.752,0.41349,0.29095,0.72461,0.5,0.17451
3.76,0.41056,0.2934,0.72461,0.5,0.17451
3.768,0.40958,0.29584,0.73047,0.49412,0.16863
3.776,0.41056,0.29829,0.73047,0.49412,0.16863
3.784,0.41251,0.30073,0.73047,0.4902,0.16471
3.792,0.41642,0.30318,0.73047,0.4902,0.15882
3.8,0.42229,0.30562,0.74023,0.48039,0.1549
3.808,0.42717,0.31051,0.74414,0.47451,0.14902
3.816,0.43304,0.31296,0.75,0.46471,0.14314
3.824,0.44282,0.31785,0.75391,0.4549,0.13922
3.832,0.45455,0.32029,0.76562,0.4451,0.12941
3.84,0.46237,0.32518,0.76953,0.42549,0.12353
3.848,0.46725,0.32763,0.77539,0.40392,0.10392
3.856,0.46921,0.33007,0.7793,0.39412,0.098039
3.864,0.46921,0.33496,0.78516,0.37451,0.094118
3.872,0.46725,0.33741,0.78516,0.3549,0.094118
3.88,0.46432,0.33985,0.78906,0.3451,0.084314
3.888,0.45943,0.34474,0.7793,0.33529,0.088235
3.896,0.45259,0.34719,0.78516,0.33529,0.084314
3.904,0.44673,0.35208,0.77539,0.34902,0.098039
3.912,0.43891,0.35452,0.76953,0.37059,0.1098
3.92,0.43206,0.35697,0.75977,0.4,0.11961
3.928,0.42522,0.36186,0.75,0.4098,0.12941
3.936,0.41838,0.3643,0.73438,0.42941,0.14902
3.944,0.41153,0.36675,0.72461,0.44902,0.16471
3.952,0.40567,0.36919,0.7207,0.46471,0.17451
3.96,0.40078,0.37164,0.7207,0.48431,0.17843
3.968,0.39785,0.37408,0.70898,0.5,0.18431
3.976,0.39492,0.37653,0.70508,0.5,0.18824
3.984,0.39198,0.37897,0.70898,0.50588,0.19412
3.992,0.39101,0.38142,0.70508,0.51569,0.19412
4,0.39003,0.38386,0.71484,0.51961,0.18824
4.008,0.38905,0.38386,0.72461,0.52549,0.17843
4.016,0.38905,0.38631,0.72461,0.52941,0.17843
4.024,0.38905,0.38631,0.72461,0.52549,0.18431
4.032,0.38905,0.38631,0.73438,0.52549,0.17451
4.04,0.38905,0.38631,0.74023,0.52941,0.17843
4.048,0.3871,0.38386,0.74023,0.53529,0.17451
4.056,0.38612,0.38386,0.74414,0.53529,0.17843
4.064,0.38514,0.38142,0.74414,0.53529,0.17451
4.072,0.38319,0.37897,0.75,0.53922,0.17451
4.08,0.38221,0.37408,0.74414,0.53529,0.17451
4.088,0.38025,0.36919,0.73438,0.52941,0.17451
4.096,0.3783,0.36675,0.73438,0.53529,0.17843
4.104,0.37634,0.36186,0.73047,0.53922,0.17451
4.112,0.37439,0.35697,0.73438,0.53529,0.17451
4.12,0.37146,0.35452,0.75,0.5451,0.16471
4.128,0.3695,0.34963,0.74414,0.5549,0.16863
4.136,0.36657,0.3423,0.76953,0.56471,0.14902
4.144,0.36559,0.33741,0.7793,0.56471,0.14314
4.152,0.36657,0.33007,0.79492,0.57059,0.12941
4.16,0.3695,0.32274,0.79883,0.57059,0.13333
4.168,0.37439,0.3154,0.81055,0.5549,0.12353
4.176,0.38612,0.31051,0.79883,0.5451,0.12353
4.184,0.40274,0.30318,0.79492,0.52941,0.12941
4.192,0.42424,0.29584,0.77539,0.51961,0.13922
4.2,0.45259,0.29095,0.74414,0.51569,0.16471
4.208,0.48485,0.28362,0.7207,0.51961,0.18824
4.216,0.51906,0.27628,0.70898,0.5098,0.19412
4.224,0.55523,0.2665,0.70508,0.50588,0.19412
4.232,0.58847,0.25917,0.70508,0.50588,0.20392
4.24,0.61779,0.24939,0.69922,0.5,0.2
4.248,0.64223,0.23961,0.70508,0.5,0.19412
4.256,0.65982,0.23227,0.69922,0.5,0.20392
4.264,0.6696,0.22249,0.70508,0.5,0.2
4.272,0.67253,0.21516,0.69922,0.53922,0.21373
4.28,0.6696,0.20782,0.71484,0.6451,0.21961
4.288,0.66276,0.19804,0.84375,0.67059,0.12353
4.296,0.652,0.19071,1.1992,0.48039,-0.18235
4.304,0.63832,0.18093,1.4434,0.22353,-0.39804
4.312,0.6217,0.17115,1.3242,0.16471,-0.28235
4.32,0.60411,0.16381,1.0488,0.3549,-0.027451
4.328,0.58749,0.15648,0.81445,0.42941,0.1549
4.336,0.57185,0.14914,0.58398,0.44902,0.31373
4.344,0.55718,0.14181,0.45508,0.40392,0.39412
4.352,0.54252,0.13203,0.4043,0.33922,0.41569
4.36,0.52981,0.12469,0.43555,0.32353,0.3902
4.368,0.51906,0.11736,0.51953,0.37059,0.32353
4.376,0.50635,0.11002,0.59961,0.41961,0.26471
4.384,0.49365,0.10269,0.64062,0.46078,0.22941
4.392,0.48192,0.095355,0.66992,0.48039,0.21373
4.4,0.47116,0.090465,0.68555,0.48431,0.2
4.408,0.46139,0.08313,0.68945,0.48039,0.19412
4.416,0.45357,0.075795,0.70508,0.4902,0.18431
4.424,0.4477,0.070905,0.69922,0.48431,0.18824
4.432,0.44282,0.06357,0.70898,0.4902,0.17843
4.44,0.44184,0.05868,0.71484,0.48039,0.17451
4.448,0.44184,0.051345,0.7207,0.47451,0.16863
4.456,0.44477,0.046455,0.72461,0.47451,0.17451
4.464,0.44868,0.041565,0.73047,0.47059,0.16471
4.472,0.45357,0.03423,0.73047,0.46471,0.15882
4.48,0.45943,0.02934,0.74023,0.4549,0.14902
4.488,0.46628,0.026895,0.74414,0.43922,0.14902
4.496,0.47214,0.022005,0.75,0.42941,0.13333
4.504,0.47703,0.01956,0.75,0.41569,0.12941
4.512,0.47996,0.01467,0.75977,0.40392,0.12353
4.52,0.48192,0.012225,0.76562,0.4098,0.11961
4.528,0.48192,0.007335,0.76562,0.41961,0.11961
4.536,0.47898,0.002445,0.76562,0.4098,0.11373
4.544,0.47507,-0.002445,0.7793,0.3451,0.088235
4.552,0.47019,-0.00489,0.78516,0.33529,0.094118
4.56,0.4653,-0.00978,0.77539,0.33529,0.094118
4.568,0.45943,-0.01467,0.7793,0.33922,0.094118
4.576,0.45259,-0.01956,0.77539,0.34902,0.094118
4.584,0.44575,-0.022005,0.75977,0.38431,0.11961
4.592,0.43793,-0.02445,0.75,0.4098,0.13333
4.6,0.43011,-0.02934,0.73438,0.43529,0.1549
4.608,0.42229,-0.031785,0.7207,0.44902,0.17451
4.616,0.41544,-0.03423,0.70898,0.46471,0.18431
4.624,0.40958,-0.03912,0.70508,0.47451,0.19412
4.632,0.40274,-0.041565,0.70898,0.4902,0.18824
4.64,0.39785,-0.046455,0.70508,0.5,0.19412
4.648,0.39492,-0.0489,0.70898,0.50588,0.19412
4.656,0.39198,-0.05379,0.70898,0.51569,0.19412
4.664,0.39003,-0.056235,0.7207,0.51961,0.18431
4.672,0.38905,-0.05868,0.71484,0.51961,0.18824
4.68,0.38807,-0.06357,0.72461,0.51961,0.17843
4.688,0.3871,-0.06846,0.72461,0.51961,0.18431
4.696,0.38612,-0.070905,0.72461,0.52549,0.17843
4.704,0.38514,-0.075795,0.73047,0.51961,0.17843
4.712,0.38416,-0.080685,0.74023,0.52549,0.17451
4.72,0.38221,-0.08313,0.73438,0.52549,0.17451
4.728,0.38025,-0.08802,0.73438,0.52941,0.17451
4.736,0.37928,-0.09291,0.74023,0.52549,0.17451
4.744,0.37732,-0.095355,0.73438,0.51961,0.17451
4.752,0.37439,-0.10024,0.73438,0.51961,0.17451
4.76,0.37243,-0.10269,0.72461,0.52549,0.17451
4.768,0.37048,-0.10758,0.72461,0.51961,0.17451
4.776,0.36755,-0.11247,0.73438,0.52941,0.17451
4.784,0.36559,-0.11491,0.74414,0.5451,0.16863
4.792,0.36266,-0.1198,0.75,0.5451,0.15882
4.8,0.35973,-0.12225,0.76953,0.5549,0.14902
4.808,0.35777,-0.12714,0.7793,0.56078,0.13333
4.816,0.35777,-0.12958,0.79492,0.57059,0.12353
4.824,0.35875,-0.13203,0.79492,0.57059,0.12353
4.832,0.36461,-0.13447,0.80469,0.5549,0.11961
4.84,0.37341,-0.13692,0.78906,0.53922,0.12353
4.848,0.38807,-0.14181,0.78516,0.52549,0.12353
4.856,0.4086,-0.1467,0.76562,0.51961,0.13922
4.864,0.42913,-0.14914,0.74023,0.50588,0.16471
4.872,0.45161,-0.15403,0.71484,0.5098,0.18431
4.88,0.47996,-0.15892,0.70898,0.50588,0.19412
4.888,0.51026,-0.16137,0.70508,0.5,0.19412
4.896,0.54154,-0.16626,0.69922,0.5,0.2
4.904,0.56989,-0.1687,0.69922,0.5,0.19412
4.912,0.59335,-0.17359,0.70508,0.5,0.2
4.92,0.61193,-0.17604,0.70508,0.5,0.19412
4.928,0.62463,-0.18093,0.69922,0.5,0.2
4.936,0.6305,-0.18582,0.69531,0.53922,0.2098
4.944,0.6305,-0.19071,0.71484,0.63529,0.21961
4.952,0.62463,-0.1956,0.85547,0.67059,0.10392
4.96,0.61681,-0.19804,1.1934,0.47451,-0.19216
4.968,0.60606,-0.20293,1.4297,0.22941,-0.40196
4.976,0.59238,-0.20538,1.2949,0.17843,-0.26275
4.984,0.57674,-0.20782,1.0586,0.3902,-0.027451
4.992,0.56109,-0.21027,0.82422,0.46078,0.1549
5,0.54545,-0.21516,0.61523,0.47059,0.3
5.008,0.52981,-0.2176,0.48047,0.4098,0.38039
5.016,0.51417,-0.22005,0.41992,0.3451,0.40392
5.024,0.49951,-0.22249,0.44922,0.32941,0.38039
5.032,0.48485,-0.22494,0.52539,0.37059,0.31961
5.04,0.47116,-0.22738,0.61523,0.42549,0.24902
5.048,0.45748,-0.22983,0.6543,0.46078,0.21373
5.056,0.44379,-0.22983,0.67578,0.47059,0.19412
5.064,0.43304,-0.22983,0.68945,0.47451,0.18431
5.072,0.42424,-0.23227,0.69531,0.47451,0.17843
5.08,0.41544,-0.23227,0.70508,0.48039,0.16863
5.088,0.4086,-0.23227,0.71484,0.47451,0.15882
5.096,0.40469,-0.23227,0.72461,0.48039,0.15882
5.104,0.40176,-0.23472,0.7207,0.47451,0.1549
5.112,0.40274,-0.23472,0.73047,0.47451,0.14902
5.12,0.40567,-0.23472,0.73438,0.47059,0.14314
5.128,0.41056,-0.23472,0.74023,0.47059,0.14314
5.136,0.4174,-0.23472,0.74414,0.46471,0.14314
5.144,0.42326,-0.23472,0.75,0.4549,0.13333
5.152,0.43011,-0.23472,0.75,0.4451,0.12353
5.16,0.435,-0.23472,0.75977,0.43529,0.11373
5.168,0.43891,-0.23472,0.76953,0.41569,0.1098
5.176,0.44282,-0.23472,0.7793,0.40392,0.094118
5.184,0.44477,-0.23472,0.78906,0.38431,0.088235
5.192,0.44575,-0.23227,0.78516,0.36471,0.078431
5.2,0.44575,-0.23227,0.79492,0.34902,0.078431
5.208,0.44379,-0.22983,0.79492,0.34902,0.07451
5.216,0.43988,-0.22983,0.79492,0.3451,0.068627
5.224,0.43597,-0.22738,0.78906,0.33922,0.078431
5.232,0.43011,-0.22738,0.78906,0.3549,0.078431
5.24,0.42424,-0.22494,0.78516,0.38039,0.094118
5.248,0.4174,-0.22494,0.77539,0.4,0.11373
5.256,0.41153,-0.22249,0.75,0.41961,0.13333
5.264,0.40567,-0.22249,0.75,0.4451,0.14314
5.272,0.40078,-0.22005,0.73438,0.46078,0.15882
5.28,0.39492,-0.22005,0.73047,0.47451,0.16471
5.288,0.39003,-0.2176,0.7207,0.4902,0.17451
5.296,0.38416,-0.2176,0.7207,0.5,0.17843
5.304,0.38025,-0.21516,0.71484,0.5,0.18431
5.312,0.37537,-0.21516,0.72461,0.51569,0.17843
5.32,0.37146,-0.21516,0.72461,0.51961,0.18431
5.328,0.36852,-0.21516,0.73438,0.51961,0.17451
5.336,0.36559,-0.21271,0.74023,0.52941,0.17451
5.344,0.36461,-0.21271,0.73438,0.52549,0.17451
5.352,0.36266,-0.21271,0.74414,0.52941,0.17451
5.36,0.36266,-0.21271,0.75,0.53529,0.17451
5.368,0.36168,-0.21271,0.75,0.53922,0.17451
5.376,0.3607,-0.21271,0.74414,0.52941,0.16471
5.384,0.35973,-0.21271,0.75,0.53529,0.16863
5.392,0.35777,-0.21271,0.74414,0.53922,0.16471
5.4,0.35582,-0.21271,0.75,0.52941,0.16471
5.408,0.35386,-0.21271,0.74414,0.53529,0.16863
5.416,0.35093,-0.21271,0.73438,0.53529,0.17451
5.424,0.34897,-0.21271,0.74023,0.53922,0.17451
5.432,0.34604,-0.21271,0.74023,0.53529,0.17451
5.44,0.34213,-0.21271,0.74414,0.53922,0.16863
5.448,0.3392,-0.21271,0.75,0.5549,0.16471
5.456,0.33627,-0.21027,0.76953,0.56471,0.14902
5.464,0.33431,-0.21027,0.78516,0.57059,0.14314
5.472,0.33431,-0.21027,0.79492,0.57451,0.12353
5.48,0.33431,-0.21027,0.81055,0.58039,0.11961
5.488,0.33627,-0.21027,0.82031,0.57451,0.1098
5.496,0.34018,-0.21027,0.82031,0.5549,0.10392
5.504,0.348,-0.21271,0.80469,0.5451,0.11961
5.512,0.36168,-0.21271,0.81055,0.53922,0.12353
5.52,0.37928,-0.21271,0.76953,0.51961,0.13922
5.528,0.40176,-0.21516,0.73438,0.51961,0.16471
5.536,0.42913,-0.21516,0.72461,0.51961,0.18431
5.544,0.45943,-0.2176,0.72461,0.51961,0.18824
5.552,0.49071,-0.2176,0.7207,0.51569,0.18431
5.56,0.51808,-0.22005,0.71484,0.51569,0.18824
5.568,0.54154,-0.22005,0.70898,0.51569,0.19412
5.576,0.56403,-0.22249,0.70898,0.5098,0.19412
5.584,0.58456,-0.22249,0.70898,0.51569,0.19412
5.592,0.59922,-0.22249,0.70898,0.5098,0.19412
5.6,0.60899,-0.22494,0.69922,0.58039,0.21373
5.608,0.61193,-0.22494,0.74023,0.67647,0.19412
5.616,0.60997,-0.22494,0.94531,0.68627,0.033333
5.624,0.60313,-0.22494,1.2988,0.3902,-0.28824
5.632,0.59238,-0.22738,1.4336,0.2,-0.40196
5.64,0.57869,-0.22738,1.2246,0.28431,-0.17647
5.648,0.56305,-0.22738,1,0.43529,0.033333
5.656,0.54545,-0.22738,0.76562,0.47451,0.2
5.664,0.53079,-0.22494,0.57031,0.48039,0.33529
5.672,0.51613,-0.22494,0.44922,0.39412,0.40392
5.68,0.50049,-0.22494,0.41602,0.33922,0.41569
5.688,0.48485,-0.22249,0.4707,0.33529,0.37059
5.696,0.47019,-0.22249,0.56055,0.4,0.3
5.704,0.45455,-0.22005,0.63477,0.4451,0.2451
5.712,0.43793,-0.2176,0.66406,0.47451,0.21373
5.72,0.42326,-0.2176,0.67969,0.48431,0.20392
5.728,0.41349,-0.21516,0.69531,0.4902,0.19412
5.736,0.40371,-0.21271,0.69922,0.4902,0.18431
5.744,0.39687,-0.21027,0.70898,0.49412,0.17451
5.752,0.39198,-0.21027,0.71484,0.4902,0.17451
5.76,0.39003,-0.20782,0.72461,0.5,0.16863
5.768,0.39003,-0.20538,0.73047,0.48431,0.16863
5.776,0.39101,-0.20538,0.72461,0.48039,0.15882
5.784,0.39492,-0.20293,0.73438,0.48039,0.15882
5.792,0.40078,-0.20049,0.73047,0.47451,0.14902
5.8,0.40762,-0.20049,0.75,0.46078,0.14314
5.808,0.41447,-0.19804,0.75,0.4549,0.13922
5.816,0.42229,-0.1956,0.75,0.44902,0.13333
5.824,0.42913,-0.19315,0.75977,0.43529,0.12353
5.832,0.435,-0.19071,0.77539,0.41961,0.1098
5.84,0.43891,-0.19071,0.77539,0.40392,0.098039
5.848,0.44184,-0.18826,0.78906,0.38039,0.088235
5.856,0.44379,-0.18582,0.78906,0.35882,0.088235
5.864,0.44282,-0.18582,0.79492,0.34902,0.078431
5.872,0.44086,-0.18337,0.78516,0.33529,0.078431
5.88,0.43793,-0.18337,0.79492,0.3451,0.078431
5.888,0.43304,-0.18093,0.78906,0.34902,0.078431
5.896,0.42815,-0.17848,0.78516,0.35882,0.088235
5.904,0.42229,-0.17848,0.77539,0.38431,0.1098
5.912,0.41544,-0.17604,0.75977,0.40392,0.12353
5.92,0.40958,-0.17359,0.74023,0.42941,0.14314
5.928,0.40371,-0.17115,0.73047,0.44902,0.15882
5.936,0.39785,-0.1687,0.7207,0.47059,0.17451
5.944,0.39296,-0.16626,0.71484,0.48431,0.18431
5.952,0.38807,-0.16381,0.70898,0.49412,0.18824
5.96,0.38514,-0.16137,0.70508,0.5,0.19412
5.968,0.38221,-0.16137,0.71484,0.51569,0.18824
5.976,0.38025,-0.15892,0.71484,0.51961,0.19412
5.984,0.3783,-0.15648,0.72461,0.51569,0.18824
5.992,0.37634,-0.15648,0.72461,0.51961,0.18431
6,0.37537,-0.15648,0.73047,0.52549,0.18431
6.008,0.37341,-0.15403,0.73438,0.53529,0.18431
6.016,0.37243,-0.15403,0.74023,0.52549,0.17451
6.024,0.37243,-0.15403,0.74414,0.52941,0.17451
6.032,0.37146,-0.15403,0.75,0.53529,0.16863
6.04,0.37146,-0.15403,0.75,0.53529,0.17451
6.048,0.37146,-0.15403,0.75,0.53922,0.16863
6.056,0.37048,-0.15403,0.75,0.52941,0.17451
6.064,0.37048,-0.15403,0.75,0.53529,0.17451
6.072,0.3695,-0.15403,0.74414,0.53529,0.17451
6.08,0.36852,-0.15403,0.74414,0.52941,0.17451
6.088,0.36657,-0.15403,0.74023,0.52549,0.17451
6.096,0.36461,-0.15403,0.74414,0.52941,0.16863
6.104,0.36168,-0.15648,0.75,0.53922,0.16863
6.112,0.35973,-0.15648,0.76562,0.55098,0.15882
6.12,0.35777,-0.15648,0.77539,0.57059,0.14314
6.128,0.35582,-0.15648,0.78906,0.57059,0.12941
6.136,0.35484,-0.15648,0.80469,0.57059,0.11961
6.144,0.35582,-0.15648,0.81055,0.58039,0.11373
6.152,0.35973,-0.15892,0.82031,0.57059,0.11373
6.16,0.36461,-0.15892,0.81445,0.5549,0.11373
6.168,0.37243,-0.15892,0.79883,0.5451,0.11961
6.176,0.38514,-0.16137,0.78906,0.53529,0.12353
6.184,0.40176,-0.16137,0.76562,0.52549,0.14314
6.192,0.42229,-0.16381,0.73438,0.51961,0.16863
6.2,0.4477,-0.16381,0.72461,0.51961,0.17451
6.208,0.47605,-0.16381,0.71484,0.51569,0.18824
6.216,0.5044,-0.16626,0.69922,0.5098,0.19412
6.224,0.53275,-0.16626,0.70898,0.50588,0.19412
6.232,0.55816,-0.16626,0.70898,0.5098,0.19412
6.24,0.57967,-0.16626,0.70898,0.5098,0.19412
6.248,0.59629,-0.1687,0.70898,0.51569,0.19412
6.256,0.60704,-0.1687,0.70508,0.52549,0.2
6.264,0.61193,-0.1687,0.69922,0.6,0.21961
6.272,0.6129,-0.1687,0.76562,0.68627,0.17843
6.28,0.60899,-0.17115,1.0391,0.59608,-0.05098
6.288,0.60215,-0.17115,1.3496,0.32353,-0.32745
6.296,0.5914,-0.17115,1.4238,0.18431,-0.38824
6.304,0.57869,-0.17115,1.1445,0.31961,-0.10196
6.312,0.565,-0.17115,0.92969,0.43529,0.088235
6.32,0.55034,-0.17115,0.69531,0.46471,0.2549
6.328,0.53568,-0.17115,0.52539,0.43529,0.37059
6.336,0.52102,-0.17115,0.42578,0.37059,0.41569
6.344,0.50733,-0.1687,0.41992,0.32353,0.41961
6.352,0.49365,-0.1687,0.48047,0.34902,0.35882
6.36,0.48094,-0.1687,0.57031,0.4098,0.28431
6.368,0.46921,-0.1687,0.63477,0.4549,0.23922
6.376,0.45748,-0.16626,0.66406,0.48431,0.21961
6.384,0.44575,-0.16626,0.67969,0.4902,0.20392
6.392,0.435,-0.16381,0.69531,0.5,0.19412
6.4,0.4262,-0.16381,0.69922,0.5,0.18431
6.408,0.41838,-0.16137,0.70898,0.49412,0.17843
6.416,0.41349,-0.16137,0.72461,0.5,0.17451
6.424,0.41056,-0.15892,0.72461,0.49412,0.16863
6.432,0.41056,-0.15648,0.73438,0.48431,0.16471
6.44,0.41349,-0.15403,0.73438,0.48039,0.15882
6.448,0.4174,-0.14914,0.74414,0.48039,0.14902
6.456,0.42229,-0.1467,0.74414,0.47451,0.1549
6.464,0.42717,-0.14181,0.75,0.46471,0.14902
6.472,0.43304,-0.13692,0.75,0.4549,0.13922
6.48,0.43988,-0.13203,0.76562,0.43922,0.12353
6.488,0.44575,-0.12714,0.76953,0.42941,0.11961
6.496,0.45064,-0.12225,0.77539,0.41961,0.1098
6.504,0.45455,-0.11491,0.7793,0.4,0.10392
6.512,0.45748,-0.11002,0.78516,0.38039,0.094118
6.52,0.45748,-0.10269,0.7793,0.35882,0.088235
6.528,0.4565,-0.095355,0.78906,0.34902,0.078431
6.536,0.45357,-0.08802,0.78516,0.33529,0.084314
6.544,0.44966,-0.080685,0.78906,0.33922,0.084314
6.552,0.44477,-0.070905,0.7793,0.3549,0.094118
6.56,0.43988,-0.06357,0.77539,0.37059,0.098039
6.568,0.435,-0.056235,0.76953,0.3902,0.11373
6.576,0.42815,-0.046455,0.75391,0.41569,0.12941
6.584,0.42229,-0.03912,0.75,0.43529,0.14314
6.592,0.41544,-0.031785,0.74023,0.4549,0.15882
6.6,0.40958,-0.022005,0.72461,0.47059,0.17451
6.608,0.40371,-0.012225,0.72461,0.4902,0.17843
6.616,0.39883,-0.002445,0.71484,0.49412,0.18431
6.624,0.39492,0.007335,0.71484,0.5,0.18824
6.632,0.39296,0.017115,0.70898,0.5098,0.19412
6.64,0.39003,0.026895,0.72461,0.51961,0.18824
6.648,0.38905,0.036675,0.73047,0.52549,0.18824
6.656,0.38807,0.04401,0.72461,0.51961,0.18824
6.664,0.3871,0.05379,0.73438,0.52549,0.17843
6.672,0.3871,0.061125,0.74023,0.52941,0.18431
6.68,0.38612,0.06846,0.74414,0.53529,0.17451
6.688,0.38514,0.075795,0.74414,0.52549,0.17843
6.696,0.38416,0.08313,0.75,0.53529,0.16471
6.704,0.38221,0.08802,0.75,0.52941,0.16863
6.712,0.38123,0.095355,0.75,0.53529,0.16471
6.72,0.37928,0.10269,0.75,0.52941,0.16863
6.728,0.37732,0.10758,0.75,0.52549,0.16863
6.736,0.37537,0.11247,0.74414,0.52941,0.17451
6.744,0.37341,0.11736,0.75,0.52941,0.17451
6.752,0.37243,0.12469,0.74414,0.52549,0.17451
6.76,0.37146,0.12958,0.75,0.53529,0.16863
6.768,0.37048,0.13692,0.75,0.5451,0.16863
6.776,0.3695,0.14425,0.75391,0.55098,0.17451
6.784,0.36852,0.14914,0.77539,0.56078,0.14902
6.792,0.36755,0.15648,0.79492,0.57059,0.13333
6.8,0.36657,0.16381,0.80469,0.57059,0.12353
6.808,0.36852,0.17115,0.81055,0.58039,0.12353
6.816,0.37146,0.17604,0.82031,0.56471,0.11373
6.824,0.3783,0.18337,0.81445,0.5549,0.11961
6.832,0.39003,0.18826,0.80469,0.5451,0.11961
6.84,0.40567,0.19315,0.78906,0.52941,0.12353
6.848,0.4262,0.20049,0.75977,0.51961,0.14314
6.856,0.44673,0.20782,0.74023,0.51961,0.17451
6.864,0.46823,0.21271,0.72461,0.51961,0.18431
6.872,0.49462,0.22005,0.72461,0.51569,0.17843
6.88,0.52199,0.22494,0.73047,0.5098,0.17843
6.888,0.54936,0.23227,0.72461,0.51569,0.18431
6.896,0.57283,0.23716,0.7207,0.5098,0.18824
6.904,0.59335,0.24205,0.72461,0.5098,0.18824
6.912,0.60802,0.24694,0.7207,0.51569,0.19412
6.92,0.61681,0.25183,0.71484,0.5098,0.19412
6.928,0.61975,0.25672,0.72461,0.62941,0.2
6.936,0.61779,0.26406,0.81445,0.69608,0.14902
6.944,0.61095,0.26895,1.125,0.5549,-0.10588
6.952,0.6002,0.27384,1.4434,0.26863,-0.38235
6.96,0.58847,0.27873,1.4746,0.1549,-0.41176
6.968,0.57674,0.28362,1.0938,0.3,-0.072549
6.976,0.56207,0.28606,0.83398,0.4,0.12941
6.984,0.54839,0.29095,0.625,0.43529,0.27843
6.992,0.53372,0.2934,0.48438,0.4098,0.37451
7,0.51906,0.29829,0.42969,0.35882,0.39412
7.008,0.50538,0.30073,0.45508,0.33529,0.37059
7.016,0.49267,0.30318,0.5293,0.37059,0.31373
7.024,0.47996,0.30562,0.60938,0.42941,0.2549
7.032,0.46725,0.31051,0.6543,0.47059,0.22353
7.04,0.4565,0.31296,0.67578,0.49412,0.2098
7.048,0.44575,0.3154,0.69531,0.5,0.2
7.056,0.43695,0.31785,0.69922,0.5,0.18824
7.064,0.43011,0.32029,0.71484,0.50588,0.17843
7.072,0.42522,0.32274,0.70898,0.5,0.17843
7.08,0.42131,0.32518,0.72461,0.5,0.17451
7.088,0.41935,0.33007,0.72461,0.5,0.17451
7.096,0.41935,0.33252,0.74023,0.5,0.15882
7.104,0.42131,0.33741,0.74414,0.49412,0.15882
7.112,0.42522,0.3423,0.74414,0.48431,0.1549
7.12,0.42913,0.34719,0.74414,0.47451,0.14902
7.128,0.43402,0.35208,0.75,0.47059,0.14314
7.136,0.43891,0.35697,0.75,0.46078,0.14314
7.144,0.44379,0.35941,0.75977,0.4451,0.12941
7.152,0.44868,0.3643,0.76953,0.42549,0.12353
7.16,0.45161,0.36675,0.77539,0.4098,0.1098
7.168,0.45357,0.37164,0.7793,0.4,0.098039
7.176,0.45552,0.37653,0.78516,0.38039,0.094118
7.184,0.45552,0.37897,0.78906,0.36471,0.084314
7.192,0.45455,0.38386,0.79492,0.34902,0.084314
7.2,0.45161,0.38875,0.79492,0.33922,0.084314
7.208,0.4477,0.39364,0.79492,0.3451,0.084314
7.216,0.44282,0.39853,0.78906,0.34902,0.088235
7.224,0.43695,0.40098,0.77539,0.37451,0.10392
7.232,0.43011,0.40587,0.76953,0.39412,0.11961
7.24,0.42326,0.41076,0.75977,0.41961,0.13333
7.248,0.4174,0.41565,0.74023,0.43529,0.1549
7.256,0.41251,0.41809,0.72461,0.46078,0.16863
7.264,0.40762,0.42298,0.72461,0.47451,0.17451
7.272,0.40274,0.42787,0.7207,0.48431,0.18431
7.28,0.39883,0.43276,0.7207,0.50588,0.18824
7.288,0.39492,0.43765,0.70898,0.50588,0.18431
7.296,0.39198,0.4401,0.71484,0.51569,0.19412
7.304,0.38905,0.44254,0.70898,0.51961,0.18824
7.312,0.3871,0.44499,0.72461,0.51961,0.18431
7.32,0.38514,0.44743,0.72461,0.52549,0.18824
7.328,0.38319,0.44988,0.72461,0.53529,0.17843
7.336,0.38221,0.45232,0.72461,0.52941,0.18431
7.344,0.37928,0.45232,0.73047,0.52941,0.17451
7.352,0.37732,0.45232,0.74023,0.52941,0.17451
7.36,0.37634,0.45477,0.74414,0.52941,0.17451
7.368,0.37634,0.45477,0.74023,0.52941,0.17451
7.376,0.37439,0.45477,0.74414,0.53529,0.17451
7.384,0.37341,0.45477,0.74023,0.53529,0.17451
7.392,0.37146,0.45232,0.74023,0.52941,0.17451
7.4,0.3695,0.44988,0.73438,0.52549,0.16863
7.408,0.36657,0.44743,0.73047,0.52549,0.17451
7.416,0.36461,0.44254,0.73438,0.52941,0.16863
7.424,0.36168,0.43765,0.74414,0.53529,0.16471
7.432,0.35973,0.43521,0.75391,0.5451,0.1549
7.44,0.35679,0.42787,0.76562,0.5549,0.14902
7.448,0.35484,0.42298,0.7793,0.56078,0.13922
7.456,0.35386,0.41809,0.79492,0.57059,0.11961
7.464,0.35288,0.4132,0.79883,0.58039,0.11961
7.472,0.35484,0.40831,0.81055,0.57059,0.11373
7.48,0.35777,0.40342,0.82031,0.56078,0.1098
7.488,0.36559,0.39609,0.80469,0.5451,0.11373
7.496,0.37732,0.38875,0.78906,0.52941,0.12353
7.504,0.39296,0.38142,0.76562,0.51569,0.14314
7.512,0.41447,0.37408,0.74414,0.51569,0.1549
7.52,0.43891,0.36919,0.72461,0.51961,0.17451
7.528,0.4653,0.36186,0.72461,0.51569,0.17843
7.536,0.49365,0.35452,0.70898,0.5098,0.18824
7.544,0.52004,0.34719,0.71484,0.50588,0.19412
7.552,0.54057,0.33985,0.70898,0.5098,0.19412
7.56,0.55621,0.33252,0.7207,0.5098,0.18824
7.568,0.56989,0.32518,0.70898,0.5098,0.19412
7.576,0.57967,0.3154,0.70508,0.50588,0.19412
7.584,0.58456,0.30562,0.69922,0.58039,0.21373
7.592,0.58358,0.29829,0.74023,0.67647,0.19412
7.6,0.57771,0.28851,0.95508,0.68627,0.029412
7.608,0.56891,0.27873,1.3242,0.38039,-0.28824
7.616,0.55816,0.27139,1.459,0.18824,-0.40196
7.624,0.54545,0.26161,1.209,0.26471,-0.17647
7.632,0.53177,0.25428,0.97461,0.40392,0.043137
7.64,0.51906,0.24694,0.73047,0.44902,0.21373
7.648,0.50635,0.23961,0.53906,0.4549,0.3451
7.656,0.4956,0.22983,0.42969,0.3902,0.40392
7.664,0.48583,0.22249,0.41602,0.33922,0.4098
7.672,0.47507,0.21516,0.47461,0.33529,0.35882
7.68,0.4653,0.20782,0.55469,0.4,0.3
7.688,0.45455,0.20049,0.61914,0.4451,0.24902
7.696,0.44282,0.19315,0.6543,0.47451,0.21961
7.704,0.43206,0.18582,0.66992,0.4902,0.21373
7.712,0.42229,0.18093,0.68555,0.4902,0.19412
7.72,0.41251,0.17359,0.69531,0.49412,0.19412
7.728,0.40469,0.16626,0.69922,0.49412,0.18431
7.736,0.39785,0.16137,0.70508,0.49412,0.18824
7.744,0.39394,0.15403,0.7207,0.49412,0.17451
7.752,0.39198,0.14914,0.72461,0.48431,0.16863
7.76,0.39296,0.14181,0.73047,0.49412,0.16471
7.768,0.39492,0.13692,0.73047,0.48431,0.15882
7.776,0.39785,0.13203,0.73438,0.48039,0.1549
7.784,0.40176,0.12714,0.73438,0.47059,0.1549
7.792,0.40665,0.12469,0.74414,0.46471,0.14902
7.8,0.41153,0.1198,0.74023,0.46471,0.14902
7.808,0.41642,0.11736,0.74023,0.46471,0.14902
7.816,0.42033,0.11247,0.75391,0.42941,0.12353
7.824,0.42326,0.10758,0.77539,0.40392,0.098039
7.832,0.42424,0.10513,0.78516,0.38039,0.088235
7.84,0.42424,0.10024,0.79492,0.36471,0.078431
7.848,0.42326,0.0978,0.79492,0.34902,0.078431
7.856,0.42033,0.095355,0.79883,0.3451,0.068627
7.864,0.4174,0.090465,0.79492,0.33922,0.07451
7.872,0.41447,0.08802,0.78906,0.3549,0.084314
7.88,0.40958,0.085575,0.79492,0.36471,0.088235
7.888,0.40371,0.08313,0.77539,0.3902,0.1098
7.896,0.39785,0.080685,0.76953,0.4098,0.12353
7.904,0.39198,0.075795,0.75,0.42941,0.13922
7.912,0.38612,0.07335,0.74414,0.44902,0.14902
7.92,0.37537,0.070905,0.72461,0.47059,0.17451
7.928,0.36364,0.06846,0.72461,0.48039,0.17843
7.936,0.35484,0.066015,0.71484,0.49412,0.18824
7.944,0.34897,0.06357,0.71484,0.50588,0.18431
7.952,0.34506,0.061125,0.70898,0.50588,0.19412
7.96,0.34311,0.061125,0.71484,0.51569,0.18824
7.968,0.34115,0.056235,0.71484,0.51961,0.19412
7.976,0.3392,0.05379,0.72461,0.51961,0.18431
7.984,0.33627,0.051345,0.72461,0.52549,0.18824
7.992,0.33431,0.0489,0.72461,0.52941,0.18431
8,0.33236,0.046455,0.73047,0.52549,0.17451
8.008,0.32942,0.041565,0.73438,0.52549,0.17451
8.016,0.32649,0.03912,0.74023,0.53529,0.17451
8.024,0.32454,0.036675,0.74023,0.52941,0.16863
8.032,0.3216,0.03423,0.75,0.53529,0.16471
8.04,0.31965,0.02934,0.74414,0.53529,0.16863
8.048,0.31672,0.026895,0.74023,0.53529,0.17451
8.056,0.31476,0.02445,0.74023,0.53529,0.17451
8.064,0.31378,0.022005,0.73438,0.52941,0.17451
8.072,0.31085,0.017115,0.74023,0.53922,0.17451
8.08,0.30792,0.01467,0.75,0.5451,0.15882
8.088,0.30499,0.012225,0.75,0.55098,0.15882
8.096,0.30108,0.00978,0.76562,0.56078,0.14902
8.104,0.29814,0.007335,0.7793,0.56471,0.13922
8.112,0.29619,0.002445,0.79492,0.57059,0.11961
8.12,0.29423,0,0.80469,0.58039,0.11373
8.128,0.29423,-0.002445,0.81055,0.57451,0.11373
8.136,0.29619,-0.007335,0.82031,0.56471,0.11961
8.144,0.30303,-0.00978,0.81445,0.55098,0.11373
8.152,0.31085,-0.01467,0.79883,0.5451,0.1098
8.16,0.32258,-0.017115,0.78516,0.53529,0.12353
8.168,0.34604,-0.022005,0.75,0.51961,0.1549
8.176,0.37146,-0.02445,0.72461,0.51961,0.17451
8.184,0.39101,-0.026895,0.7207,0.51961,0.17843
8.192,0.41447,-0.031785,0.7207,0.51961,0.18431
8.2,0.4477,-0.03423,0.71484,0.51961,0.19412
8.208,0.47703,-0.03912,0.71484,0.51961,0.19412
8.216,0.4956,-0.04401,0.7207,0.51569,0.18824
8.224,0.51222,-0.0489,0.70898,0.5098,0.19412
8.232,0.52493,-0.05379,0.7207,0.5098,0.17843
8.24,0.53079,-0.05868,0.70508,0.5549,0.2
8.248,0.53079,-0.06357,0.69922,0.65098,0.2098
8.256,0.5259,-0.06846,0.86523,0.68627,0.094118
8.264,0.51711,-0.070905,1.2148,0.47451,-0.20196
8.272,0.50929,-0.075795,1.4434,0.23922,-0.40784
8.28,0.50049,-0.07824,1.3047,0.19412,-0.26667
8.288,0.48485,-0.08313,1.0703,0.39412,-0.037255
8.296,0.46628,-0.085575,0.83398,0.4549,0.14314
8.304,0.44966,-0.090465,0.61523,0.47059,0.3
8.312,0.43597,-0.09291,0.48047,0.4098,0.38039
8.32,0.42229,-0.0978,0.42578,0.34902,0.40392
8.328,0.40958,-0.10024,0.46484,0.33529,0.37059
8.336,0.39785,-0.10269,0.53516,0.38039,0.31373
8.344,0.3871,-0.10513,0.61523,0.42941,0.24902
8.352,0.3783,-0.10758,0.6543,0.47059,0.21961
8.36,0.36852,-0.11002,0.67969,0.48431,0.2
8.368,0.35777,-0.11247,0.69531,0.4902,0.19412
8.376,0.34897,-0.11491,0.70508,0.49412,0.17843
8.384,0.34311,-0.11736,0.71484,0.4902,0.17451
8.392,0.33724,-0.1198,0.7207,0.49412,0.16471
8.4,0.33333,-0.12225,0.72461,0.4902,0.16471
8.408,0.33138,-0.12469,0.73438,0.4902,0.15882
8.416,0.33333,-0.12469,0.74023,0.48039,0.1549
8.424,0.33627,-0.12714,0.73438,0.48431,0.15882
8.432,0.34018,-0.12958,0.75,0.47451,0.14902
8.44,0.34604,-0.12958,0.75,0.47059,0.14314
8.448,0.35093,-0.13203,0.75391,0.46078,0.13922
8.456,0.35582,-0.13203,0.75,0.44902,0.12941
8.464,0.35973,-0.13203,0.76953,0.43529,0.11961
8.472,0.36364,-0.13203,0.77539,0.42549,0.1098
8.48,0.36559,-0.13447,0.7793,0.40392,0.098039
8.488,0.36657,-0.13447,0.77539,0.38431,0.088235
8.496,0.36657,-0.13447,0.78906,0.37451,0.078431
8.504,0.36461,-0.13447,0.79492,0.3549,0.078431
8.512,0.36168,-0.13447,0.79883,0.3451,0.07451
8.52,0.35875,-0.13447,0.79883,0.33529,0.068627
8.528,0.35386,-0.13447,0.79492,0.34902,0.078431
8.536,0.34995,-0.13447,0.78516,0.35882,0.084314
8.544,0.34604,-0.13447,0.7793,0.38039,0.098039
8.552,0.34213,-0.13447,0.76953,0.4,0.11373
8.56,0.33822,-0.13447,0.75977,0.42549,0.12941
8.568,0.33333,-0.13447,0.74414,0.44902,0.14902
8.576,0.32845,-0.13447,0.73047,0.46471,0.16471
8.584,0.32356,-0.13447,0.71484,0.48039,0.17843
8.592,0.31867,-0.13447,0.7207,0.49412,0.17843
8.6,0.31574,-0.13447,0.70508,0.5,0.18824
8.608,0.31281,-0.13447,0.71484,0.51569,0.19412
8.616,0.31085,-0.13447,0.7207,0.51961,0.18431
8.624,0.3089,-0.13447,0.71484,0.52549,0.19412
8.632,0.30694,-0.13447,0.72461,0.52941,0.18431
8.64,0.30596,-0.13447,0.72461,0.52941,0.18431
8.648,0.30499,-0.13447,0.72461,0.53529,0.17843
8.656,0.30499,-0.13447,0.72461,0.52941,0.17451
8.664,0.30401,-0.13447,0.74023,0.52941,0.17451
8.672,0.30303,-0.13447,0.73438,0.53529,0.17451
8.68,0.30108,-0.13447,0.74023,0.53922,0.17451
8.688,0.3001,-0.13447,0.74023,0.53529,0.17451
8.696,0.29814,-0.13692,0.74414,0.53529,0.17451
8.704,0.29619,-0.13692,0.74023,0.53922,0.17451
8.712,0.29423,-0.13692,0.75,0.5451,0.16863
8.72,0.29228,-0.13692,0.74023,0.53922,0.17451
8.728,0.29032,-0.13936,0.74023,0.53529,0.16863
8.736,0.28935,-0.13936,0.73438,0.53922,0.17451
8.744,0.28837,-0.13936,0.74414,0.5451,0.15882
8.752,0.28739,-0.14181,0.75977,0.55098,0.1549
8.76,0.28641,-0.14181,0.77539,0.56078,0.14314
8.768,0.28641,-0.14425,0.78906,0.57059,0.12353
8.776,0.28641,-0.14425,0.80469,0.57451,0.1098
8.784,0.28739,-0.1467,0.81055,0.58431,0.1098
8.792,0.2913,-0.1467,0.82031,0.56471,0.1098
8.8,0.29912,-0.14914,0.81445,0.56078,0.1098
8.808,0.30987,-0.14914,0.80469,0.5451,0.1098
8.816,0.32551,-0.15159,0.79492,0.53922,0.11373
8.824,0.34506,-0.15403,0.76953,0.52941,0.13922
8.832,0.36755,-0.15648,0.74023,0.52549,0.16863
8.84,0.39296,-0.15892,0.72461,0.52549,0.17843
8.848,0.41544,-0.16137,0.7207,0.52549,0.18824
8.856,0.435,-0.16381,0.71484,0.51961,0.19412
8.864,0.45552,-0.16626,0.70898,0.51961,0.19412
8.872,0.4741,-0.1687,0.71484,0.51569,0.19412
8.88,0.48876,-0.1687,0.71484,0.51569,0.18824
8.888,0.49951,-0.17115,0.70898,0.51569,0.19412
8.896,0.50342,-0.17359,0.70898,0.5098,0.19412
8.904,0.50342,-0.17604,0.69531,0.60588,0.22353
8.912,0.49853,-0.17604,0.76562,0.68627,0.17843
8.92,0.49071,-0.17848,1.0098,0.61569,-0.027451
8.928,0.47996,-0.18093,1.3496,0.33922,-0.33333
8.936,0.46823,-0.18093,1.4336,0.19412,-0.40196
8.944,0.45748,-0.18093,1.1797,0.32353,-0.13725
8.952,0.44673,-0.18337,0.94922,0.44902,0.07451
8.96,0.435,-0.18337,0.7207,0.47451,0.23333
8.968,0.42326,-0.18337,0.53906,0.44902,0.3549
8.976,0.41153,-0.18337,0.43555,0.38039,0.40392
8.984,0.3998,-0.18337,0.41992,0.32941,0.41569
8.992,0.38807,-0.18337,0.49023,0.3549,0.34902
9,0.37634,-0.18337,0.56445,0.4098,0.2902
9.008,0.36461,-0.18093,0.63477,0.4549,0.23922
9.016,0.35386,-0.18093,0.66016,0.48039,0.21961
9.024,0.34409,-0.18093,0.67969,0.4902,0.2
9.032,0.33529,-0.18093,0.69922,0.4902,0.18824
9.04,0.32845,-0.17848,0.69922,0.5,0.18431
9.048,0.32454,-0.17848,0.70898,0.49412,0.17451
9.056,0.32258,-0.17848,0.71484,0.4902,0.17451
9.064,0.32258,-0.17848,0.72461,0.5,0.16863
9.072,0.32356,-0.17604,0.73047,0.4902,0.15882
9.08,0.32747,-0.17604,0.73047,0.48431,0.1549
9.088,0.33333,-0.17604,0.73438,0.48039,0.1549
9.096,0.34115,-0.17604,0.74023,0.47451,0.14902
9.104,0.348,-0.17359,0.74414,0.47059,0.14314
9.112,0.35484,-0.17359,0.75,0.4549,0.12941
9.12,0.36168,-0.17359,0.75391,0.44902,0.13333
9.128,0.36559,-0.17359,0.76562,0.42549,0.11373
9.136,0.3695,-0.17115,0.76953,0.40392,0.10392
9.144,0.37146,-0.17115,0.7793,0.3902,0.098039
9.152,0.37146,-0.1687,0.78516,0.37059,0.088235
9.16,0.37048,-0.1687,0.79492,0.35882,0.078431
9.168,0.36852,-0.16626,0.78906,0.3451,0.084314
9.176,0.36461,-0.16381,0.79492,0.33922,0.078431
9.184,0.35973,-0.16381,0.78906,0.33529,0.078431
9.192,0.35484,-0.16137,0.78906,0.34902,0.088235
9.2,0.34995,-0.15892,0.78516,0.37059,0.098039
9.208,0.34409,-0.15648,0.77539,0.39412,0.1098
9.216,0.3392,-0.15403,0.75977,0.41569,0.12353
9.224,0.33333,-0.15159,0.75,0.43529,0.14314
9.232,0.32845,-0.14914,0.73438,0.44902,0.15882
9.24,0.32356,-0.1467,0.72461,0.47451,0.17451
9.248,0.3216,-0.1467,0.7207,0.4902,0.17843
9.256,0.31965,-0.14425,0.71484,0.5,0.19412
9.264,0.31867,-0.14181,0.70898,0.5098,0.19412
9.272,0.31769,-0.14181,0.70508,0.51569,0.19412
9.28,0.31769,-0.13936,0.71484,0.51961,0.18824
9.288,0.31769,-0.13936,0.71484,0.51961,0.19412
9.296,0.31769,-0.13936,0.7207,0.52941,0.18824
9.304,0.31672,-0.13692,0.72461,0.53529,0.18431
9.312,0.31574,-0.13692,0.73438,0.52941,0.18431
9.32,0.31476,-0.13692,0.73438,0.53529,0.17451
9.328,0.31378,-0.13447,0.74023,0.53529,0.17451
9.336,0.31281,-0.13447,0.73438,0.53529,0.17451
9.344,0.31281,-0.13447,0.74023,0.53529,0.16863
9.352,0.31183,-0.13447,0.74023,0.52941,0.17451
9.36,0.31183,-0.13203,0.75,0.53922,0.16863
9.368,0.30987,-0.13203,0.75,0.53922,0.16863
9.376,0.3089,-0.13203,0.75,0.53922,0.17451
9.384,0.30694,-0.13203,0.74414,0.52941,0.17451
9.392,0.30499,-0.13203,0.74023,0.53529,0.17451
9.4,0.30303,-0.13203,0.74023,0.53922,0.17451
9.408,0.30108,-0.13203,0.75,0.5451,0.15882
9.416,0.3001,-0.13203,0.76562,0.5549,0.1549
9.424,0.29912,-0.13203,0.7793,0.57059,0.14314
9.432,0.29912,-0.13447,0.78906,0.57059,0.12941
9.44,0.3001,-0.13447,0.81055,0.57451,0.11373
9.448,0.30303,-0.13447,0.81445,0.58039,0.11373
9.456,0.30792,-0.13447,0.82031,0.57059,0.1098
9.464,0.31672,-0.13692,0.81445,0.55098,0.1098
9.472,0.32845,-0.13692,0.79883,0.53529,0.11961
9.48,0.34506,-0.13936,0.78516,0.52941,0.12353
9.488,0.36559,-0.13936,0.75391,0.51961,0.14314
9.496,0.38807,-0.14181,0.73438,0.51961,0.16863
9.504,0.41153,-0.14425,0.7207,0.51961,0.18431
9.512,0.435,-0.1467,0.70898,0.51569,0.18824
9.52,0.45748,-0.14914,0.70898,0.51569,0.19412
9.528,0.47605,-0.15403,0.7207,0.5098,0.19412
9.536,0.48974,-0.15648,0.70898,0.51569,0.19412
9.544,0.49951,-0.15892,0.71484,0.5098,0.18824
9.552,0.50342,-0.16137,0.70898,0.51569,0.19412
9.56,0.50342,-0.16381,0.70508,0.52941,0.20392
9.568,0.50049,-0.16381,0.69922,0.62549,0.21961
9.576,0.49365,-0.16626,0.79492,0.68627,0.1549
9.584,0.48485,-0.16626,1.0996,0.55098,-0.10588
9.592,0.4741,-0.1687,1.4043,0.2902,-0.37843
9.6,0.46139,-0.1687,1.4492,0.18824,-0.41176
9.608,0.44966,-0.1687,1.125,0.34902,-0.086275
9.616,0.43695,-0.1687,0.90039,0.4451,0.1098
9.624,0.42522,-0.1687,0.66016,0.46471,0.26863
9.632,0.41349,-0.1687,0.50977,0.42549,0.36471
9.64,0.40274,-0.1687,0.42578,0.37059,0.4098
9.648,0.39394,-0.1687,0.41992,0.33529,0.39412
9.656,0.38416,-0.1687,0.5,0.36471,0.34902
9.664,0.37439,-0.1687,0.5957,0.41569,0.27843
9.672,0.36364,-0.16626,0.64453,0.46471,0.23922
9.68,0.35386,-0.16626,0.66992,0.48431,0.21373
9.688,0.34506,-0.16381,0.67969,0.49412,0.20392
9.696,0.33724,-0.16381,0.69922,0.5,0.18824
9.704,0.33138,-0.16137,0.69531,0.5,0.19412
9.712,0.32845,-0.16137,0.70898,0.4902,0.18431
9.72,0.32747,-0.15892,0.70898,0.4902,0.17843
9.728,0.32845,-0.15892,0.7207,0.49412,0.17451
9.736,0.33236,-0.15648,0.72461,0.4902,0.16863
9.744,0.33822,-0.15403,0.73047,0.48431,0.15882
9.752,0.34311,-0.15159,0.73438,0.47451,0.1549
9.76,0.34995,-0.14914,0.74414,0.47059,0.15882
9.768,0.35582,-0.1467,0.75,0.46078,0.14314
9.776,0.3607,-0.14425,0.75391,0.44902,0.13333
9.784,0.36461,-0.14181,0.75977,0.43529,0.12353
9.792,0.36852,-0.13692,0.76953,0.42549,0.11373
9.8,0.37146,-0.13203,0.77539,0.40392,0.10392
9.808,0.37341,-0.12714,0.77539,0.3902,0.098039
9.816,0.37439,-0.12225,0.78516,0.37451,0.088235
9.824,0.37439,-0.11491,0.79492,0.3549,0.084314
9.832,0.37243,-0.10758,0.78906,0.3451,0.084314
9.84,0.37048,-0.10024,0.79492,0.33922,0.078431
9.848,0.36755,-0.09291,0.78516,0.33922,0.084314
9.856,0.36266,-0.085575,0.78516,0.3549,0.094118
9.864,0.35777,-0.07824,0.76953,0.37451,0.1098
9.872,0.35191,-0.070905,0.75391,0.39412,0.12353
9.88,0.34702,-0.06357,0.75,0.41961,0.13333
9.888,0.34213,-0.056235,0.74023,0.43922,0.1549
9.896,0.33627,-0.046455,0.73047,0.46078,0.16863
9.904,0.33236,-0.036675,0.7207,0.47451,0.17843
9.912,0.32845,-0.026895,0.71484,0.4902,0.18824
9.92,0.32454,-0.01956,0.70898,0.5,0.18824
9.928,0.32258,-0.00978,0.70508,0.5098,0.19412
9.936,0.31965,-0.002445,0.71484,0.51961,0.19412
9.944,0.31867,0.007335,0.71484,0.52549,0.19412
9.952,0.31867,0.01467,0.70898,0.52941,0.2
9.96,0.33236,0.022005,0.72461,0.52549,0.17843
9.968,0.35288,0.031785,0.73047,0.52941,0.18431
9.976,0.36266,0.03912,0.73047,0.53529,0.17843
9.984,0.36755,0.0489,0.74023,0.53529,0.17451
9.992,0.37048,0.056235,0.74023,0.53529,0.17843
10,0.37146,0.06357,0.74023,0.52941,0.17451
10.008,0.37146,0.070905,0.75,0.53922,0.17843
10.016,0.37048,0.07824,0.74414,0.53529,0.17451
10.024,0.36755,0.08313,0.74414,0.53529,0.17451
10.032,0.36559,0.090465,0.74414,0.53529,0.16863
10.04,0.36364,0.095355,0.75,0.53922,0.17451
10.048,0.36266,0.10024,0.75,0.53529,0.16863
10.056,0.3607,0.10758,0.74414,0.53922,0.17451
10.064,0.35777,0.11491,0.74414,0.5451,0.17451
10.072,0.35582,0.12225,0.75,0.5451,0.17451
10.08,0.35288,0.12714,0.75977,0.55098,0.16471
10.088,0.35191,0.13203,0.77539,0.56471,0.14902
10.096,0.35191,0.13692,0.7793,0.57059,0.14314
10.104,0.35386,0.14181,0.79492,0.57059,0.12941
10.112,0.3607,0.14914,0.79492,0.58039,0.12941
10.12,0.37048,0.15403,0.81055,0.57059,0.12353
10.128,0.38612,0.16137,0.81445,0.5549,0.11961
10.136,0.40762,0.1687,0.78906,0.5451,0.12353
10.144,0.43011,0.17359,0.7793,0.53922,0.12941
10.152,0.45357,0.18093,0.75,0.51961,0.14902
10.16,0.48289,0.18826,0.73047,0.51961,0.16863
10.168,0.5132,0.1956,0.72461,0.52549,0.17843
10.176,0.54448,0.20049,0.72461,0.51961,0.17451
10.184,0.57185,0.20782,0.7207,0.51569,0.18824
10.192,0.59433,0.21271,0.7207,0.51569,0.18824
10.2,0.60997,0.2176,0.71484,0.51569,0.19412
10.208,0.61975,0.22249,0.71484,0.5098,0.18824
10.216,0.6217,0.22738,0.71484,0.5098,0.18824
10.224,0.61877,0.23227,0.70898,0.52549,0.19412
10.232,0.60997,0.23716,0.70508,0.61569,0.21373
10.24,0.59922,0.24205,0.75977,0.6902,0.18431
10.248,0.58749,0.24694,0.76562,0.66078,0.19412
10.256,0.57283,0.24939,0.75391,0.66078,0.18824
10.264,0.55718,0.25428,0.81445,0.61569,0.13922
10.272,0.54154,0.25672,1.0742,0.32941,-0.060784
10.28,0.52688,0.26161,0.88867,0.37451,0.088235
10.288,0.5132,0.26406,0.67969,0.40392,0.23333
10.296,0.50049,0.26895,0.54492,0.38431,0.32353
10.304,0.48778,0.27139,0.46484,0.33922,0.37451
10.312,0.47507,0.27384,0.48438,0.3098,0.34902
10.32,0.46334,0.27873,0.55078,0.33922,0.3
10.328,0.45161,0.28117,0.64062,0.4,0.23333
10.336,0.43988,0.28362,0.69531,0.4451,0.19412
10.344,0.43011,0.28606,0.70898,0.46471,0.17843
10.352,0.42229,0.29095,0.7207,0.47451,0.17451
10.36,0.41349,0.2934,0.73438,0.47451,0.16471
10.368,0.40665,0.29584,0.73438,0.48039,0.1549
10.376,0.40274,0.30073,0.75,0.48039,0.14902
10.384,0.40078,0.30318,0.74414,0.47451,0.14902
10.392,0.40176,0.30807,0.75391,0.47451,0.14314
10.4,0.40665,0.31051,0.75391,0.47451,0.14314
10.408,0.41349,0.31296,0.75977,0.47059,0.12941
10.416,0.42131,0.31785,0.76562,0.46471,0.13333
10.424,0.42913,0.32029,0.76953,0.4549,0.12353
10.432,0.43793,0.32274,0.77539,0.44902,0.12941
10.44,0.44477,0.32763,0.77539,0.4451,0.12353
10.448,0.45064,0.33007,0.78906,0.43529,0.11373
10.456,0.4565,0.33496,0.78516,0.41569,0.098039
10.464,0.45943,0.33985,0.79883,0.4,0.094118
10.472,0.46139,0.34474,0.79883,0.38039,0.084314
10.48,0.46139,0.34963,0.80469,0.35882,0.078431
10.488,0.46041,0.35452,0.81055,0.3451,0.078431
10.496,0.45846,0.35941,0.81445,0.33529,0.07451
10.504,0.45455,0.3643,0.81055,0.32941,0.07451
10.512,0.45064,0.36919,0.80469,0.32941,0.078431
10.52,0.44477,0.37408,0.79492,0.33922,0.084314
10.528,0.43891,0.37897,0.78906,0.3549,0.094118
10.536,0.43206,0.38386,0.76953,0.38039,0.11373
10.544,0.42717,0.38875,0.75977,0.39412,0.12941
10.552,0.42229,0.39364,0.74414,0.41961,0.14902
10.56,0.41838,0.39853,0.74023,0.43922,0.15882
10.568,0.41447,0.40342,0.72461,0.44902,0.16863
10.576,0.40958,0.40587,0.72461,0.47451,0.17451
10.584,0.40665,0.41076,0.72461,0.48039,0.17451
10.592,0.40371,0.4132,0.7207,0.4902,0.17843
10.6,0.40176,0.41809,0.72461,0.5,0.18431
10.608,0.40078,0.42054,0.71484,0.50588,0.18824
10.616,0.40176,0.42543,0.7207,0.5098,0.18824
10.624,0.40176,0.42787,0.72461,0.51961,0.18431
10.632,0.40274,0.43032,0.73047,0.51961,0.17843
10.64,0.40371,0.43276,0.73438,0.51961,0.17451
10.648,0.40469,0.43521,0.74023,0.51961,0.17451
10.656,0.40469,0.43765,0.74414,0.51961,0.16863
10.664,0.40469,0.4401,0.75,0.51961,0.16471
10.672,0.40371,0.4401,0.74414,0.52549,0.17451
10.68,0.40274,0.4401,0.75,0.52941,0.16863
10.688,0.3998,0.4401,0.74414,0.52549,0.17451
10.696,0.39687,0.4401,0.74414,0.51961,0.17451
10.704,0.39394,0.43765,0.74414,0.51961,0.17451
10.712,0.39101,0.43521,0.73438,0.51961,0.17451
10.72,0.38807,0.43521,0.74023,0.51961,0.16863
10.728,0.38514,0.43276,0.75,0.52549,0.16471
10.736,0.38416,0.43032,0.74414,0.53529,0.16863
10.744,0.38319,0.42787,0.76562,0.5451,0.14902
10.752,0.38319,0.42543,0.77539,0.5549,0.14902
10.76,0.38319,0.42298,0.78906,0.56078,0.13333
10.768,0.38612,0.41809,0.79883,0.57059,0.12353
10.776,0.39101,0.4132,0.79492,0.57059,0.12353
10.784,0.40078,0.40831,0.81055,0.56471,0.12353
10.792,0.41642,0.40342,0.80469,0.5451,0.11961
10.8,0.43695,0.39609,0.79492,0.52549,0.12353
10.808,0.46237,0.3912,0.78516,0.52941,0.12353
10.816,0.49267,0.38386,0.75391,0.5098,0.14902
10.824,0.5259,0.37897,0.73047,0.51569,0.16863
10.832,0.55816,0.37164,0.7207,0.50588,0.17843
10.84,0.58553,0.36675,0.7207,0.50588,0.18824
10.848,0.60802,0.35941,0.71484,0.5,0.18431
10.856,0.62659,0.35208,0.70898,0.5,0.18824
10.864,0.64125,0.34474,0.70508,0.50588,0.18824
10.872,0.65005,0.33496,0.70508,0.5,0.18824
10.88,0.65298,0.32763,0.71484,0.5,0.18431
10.888,0.65103,0.32029,0.69922,0.51961,0.19412
10.896,0.64321,0.31296,0.69531,0.60588,0.21373
10.904,0.63245,0.30562,0.76562,0.67647,0.17451
10.912,0.61877,0.29829,1.0645,0.57451,-0.072549
10.92,0.60411,0.29095,1.3945,0.30392,-0.35686
10.928,0.58944,0.28117,1.4648,0.16471,-0.41765
10.936,0.57576,0.27384,1.1289,0.3,-0.10196
10.944,0.56403,0.26406,0.89453,0.41569,0.094118
10.952,0.55425,0.25428,0.6543,0.4451,0.26863
10.96,0.5435,0.24694,0.5,0.41569,0.36471
10.968,0.53275,0.23716,0.41602,0.35882,0.4098
10.976,0.52199,0.22983,0.41016,0.32353,0.39412
10.984,0.51222,0.22005,0.49414,0.34902,0.3451
10.992,0.50049,0.21271,0.58398,0.4098,0.27451
11,0.48876,0.20782,0.64062,0.4549,0.23333
11.008,0.47801,0.19804,0.66016,0.48431,0.21961
11.016,0.46725,0.19071,0.67969,0.4902,0.20392
11.024,0.45846,0.18337,0.68555,0.4902,0.19412
11.032,0.45064,0.17604,0.69922,0.49412,0.18824
11.04,0.44673,0.1687,0.69922,0.49412,0.18431
11.048,0.44477,0.16137,0.70898,0.48431,0.17451
11.056,0.44477,0.15403,0.70898,0.48039,0.17451
11.064,0.4477,0.14914,0.72461,0.47451,0.17451
11.072,0.45259,0.14181,0.72461,0.47451,0.16863
11.08,0.45846,0.13692,0.73047,0.47059,0.16471
11.088,0.4653,0.12958,0.73438,0.47059,0.15882
11.096,0.47214,0.12469,0.73438,0.46078,0.14902
11.104,0.47898,0.1198,0.73438,0.44902,0.14902
11.112,0.48583,0.11491,0.75,0.4451,0.14314
11.12,0.49267,0.11002,0.75,0.42549,0.12941
11.128,0.49756,0.10513,0.75977,0.40392,0.11961
11.136,0.50147,0.10269,0.76953,0.3902,0.1098
11.144,0.50342,0.0978,0.77539,0.37451,0.094118
11.152,0.50342,0.09291,0.78516,0.3549,0.094118
11.16,0.50147,0.090465,0.78516,0.3451,0.084314
11.168,0.49756,0.085575,0.78906,0.3451,0.084314
11.176,0.49267,0.08313,0.79492,0.33922,0.078431
11.184,0.4868,0.07824,0.78516,0.34902,0.088235
11.192,0.47996,0.075795,0.7793,0.37451,0.094118
11.2,0.47312,0.07335,0.76562,0.3902,0.11373
11.208,0.46628,0.070905,0.75,0.4098,0.12941
11.216,0.46041,0.06846,0.74023,0.42941,0.14902
11.224,0.45455,0.066015,0.72461,0.4549,0.16471
11.232,0.44966,0.06357,0.7207,0.47059,0.16863
11.24,0.44575,0.061125,0.71484,0.48431,0.17451
11.248,0.44379,0.05868,0.70508,0.49412,0.18431
11.256,0.44282,0.056235,0.70508,0.50588,0.19412
11.264,0.44086,0.051345,0.70898,0.5098,0.19412
11.272,0.44086,0.0489,0.71484,0.51569,0.19412
11.28,0.43988,0.046455,0.71484,0.51961,0.18824
11.288,0.43988,0.041565,0.71484,0.51961,0.18824
11.296,0.43891,0.03912,0.72461,0.51961,0.17843
11.304,0.43695,0.036675,0.73047,0.51961,0.17843
11.312,0.435,0.03423,0.73438,0.52549,0.17451
11.32,0.43206,0.031785,0.73438,0.52549,0.17451
11.328,0.43011,0.02934,0.74023,0.53529,0.17451
11.336,0.42815,0.026895,0.74023,0.52941,0.17451
11.344,0.4262,0.022005,0.74023,0.52549,0.17451
11.352,0.42424,0.01956,0.74023,0.53529,0.17451
11.36,0.42131,0.01467,0.74023,0.52941,0.17451
11.368,0.41838,0.012225,0.73438,0.52549,0.17451
11.376,0.41544,0.00978,0.74414,0.52941,0.17451
11.384,0.41251,0.007335,0.74023,0.52549,0.17451
11.392,0.40958,0.002445,0.74023,0.52549,0.17451
11.4,0.40665,0,0.74023,0.52941,0.17451
11.408,0.40469,-0.00489,0.75391,0.5451,0.16471
11.416,0.40274,-0.00978,0.76953,0.5549,0.14902
11.424,0.40274,-0.012225,0.78906,0.56078,0.13922
11.432,0.40371,-0.017115,0.79883,0.57059,0.12353
11.44,0.40665,-0.01956,0.81055,0.57059,0.11961
11.448,0.41349,-0.02445,0.81445,0.56471,0.11961
11.456,0.42424,-0.026895,0.82031,0.56078,0.11961
11.464,0.43988,-0.02934,0.80469,0.53922,0.11373
11.472,0.46041,-0.031785,0.79492,0.52941,0.11961
11.48,0.48583,-0.036675,0.77539,0.51961,0.13333
11.488,0.5132,-0.03912,0.74414,0.51961,0.15882
11.496,0.54252,-0.04401,0.72461,0.51961,0.17451
11.504,0.56989,-0.046455,0.7207,0.51569,0.18431
11.512,0.59531,-0.051345,0.71484,0.5098,0.18824
11.52,0.61486,-0.056235,0.70508,0.5098,0.19412
11.528,0.62952,-0.05868,0.7207,0.50588,0.19412
11.536,0.63734,-0.06357,0.7207,0.5,0.19412
11.544,0.6393,-0.06846,0.71484,0.5098,0.19412
11.552,0.63734,-0.07335,0.70898,0.51569,0.19412
11.56,0.6305,-0.075795,0.69922,0.5549,0.20392
11.568,0.62072,-0.080685,0.7207,0.65098,0.21373
11.576,0.60802,-0.08313,0.88477,0.68039,0.078431
11.584,0.59335,-0.08802,1.25,0.42941,-0.23725
11.592,0.57869,-0.090465,1.4492,0.21373,-0.41765
11.6,0.56403,-0.095355,1.2852,0.18431,-0.24314
11.608,0.54936,-0.10024,1.0449,0.4,-0.011765
11.616,0.53568,-0.10269,0.80469,0.46078,0.17451
11.624,0.52199,-0.10758,0.58398,0.47059,0.31961
11.632,0.50831,-0.11002,0.45508,0.39412,0.39412
11.64,0.49658,-0.11247,0.41602,0.33922,0.4098
11.648,0.48583,-0.11491,0.45508,0.32941,0.37451
11.656,0.47507,-0.11736,0.5293,0.38431,0.31373
11.664,0.46432,-0.12225,0.61523,0.42941,0.2549
11.672,0.45357,-0.12469,0.6543,0.47451,0.21961
11.68,0.44379,-0.12714,0.66992,0.48039,0.2098
11.688,0.435,-0.12958,0.68555,0.4902,0.19412
11.696,0.42815,-0.13203,0.69922,0.4902,0.18824
11.704,0.42326,-0.13447,0.70508,0.4902,0.17843
11.712,0.42131,-0.13447,0.7207,0.4902,0.17451
11.72,0.42131,-0.13692,0.72461,0.4902,0.16863
11.728,0.42326,-0.13692,0.72461,0.48039,0.16471
11.736,0.42717,-0.13692,0.72461,0.48039,0.15882
11.744,0.43206,-0.13936,0.73047,0.47451,0.14902
11.752,0.43891,-0.13936,0.73438,0.47451,0.14902
11.76,0.44673,-0.13936,0.74414,0.46078,0.13922
11.768,0.45357,-0.13936,0.74414,0.4549,0.13333
11.776,0.46041,-0.14181,0.75391,0.4451,0.12353
11.784,0.46432,-0.14181,0.75977,0.42941,0.12353
11.792,0.46725,-0.14181,0.77539,0.41569,0.1098
11.8,0.46725,-0.14181,0.77539,0.4,0.098039
11.808,0.46628,-0.14181,0.78516,0.38039,0.088235
11.816,0.46334,-0.14181,0.79492,0.35882,0.078431
11.824,0.46041,-0.14181,0.79883,0.3549,0.068627
11.832,0.45552,-0.14181,0.79883,0.33922,0.062745
11.84,0.45161,-0.14181,0.79883,0.33529,0.062745
11.848,0.4477,-0.14181,0.79492,0.33922,0.062745
11.856,0.44379,-0.14181,0.79492,0.3549,0.078431
11.864,0.43793,-0.13936,0.7793,0.38039,0.094118
11.872,0.43304,-0.13936,0.76953,0.39412,0.1098
11.88,0.42717,-0.13936,0.75977,0.41961,0.11961
11.888,0.42229,-0.13692,0.75,0.43922,0.13333
11.896,0.4174,-0.13692,0.73438,0.4549,0.1549
11.904,0.41447,-0.13692,0.72461,0.47059,0.16471
11.912,0.41251,-0.13447,0.7207,0.48431,0.17451
11.92,0.41056,-0.13447,0.7207,0.5,0.17451
11.928,0.4086,-0.13447,0.71484,0.51569,0.17843
11.936,0.40762,-0.13447,0.70898,0.51569,0.18431
11.944,0.40762,-0.13447,0.7207,0.51961,0.17843
11.952,0.40762,-0.13447,0.72461,0.51961,0.17843
11.96,0.40762,-0.13447,0.73047,0.52549,0.17451
11.968,0.40762,-0.13447,0.73438,0.52941,0.17451
11.976,0.40762,-0.13447,0.74023,0.52549,0.16863
11.984,0.40762,-0.13692,0.74023,0.52941,0.17451
11.992,0.4086,-0.13692,0.75,0.53529,0.16471
12,0.4086,-0.13692,0.74414,0.52941,0.16863
12.008,0.40176,-0.13692,0.75,0.53529,0.16471
12.016,0.39003,-0.13936,0.74414,0.52549,0.16863
12.024,0.38416,-0.13936,0.75,0.53529,0.15882
12.032,0.37928,-0.14181,0.75,0.53529,0.15882
12.04,0.37732,-0.14181,0.74414,0.52941,0.16863
12.048,0.37439,-0.14425,0.73438,0.52941,0.16863
12.056,0.37146,-0.14425,0.73438,0.52941,0.17451
12.064,0.36755,-0.1467,0.74023,0.53922,0.16471
12.072,0.36364,-0.1467,0.75,0.5451,0.1549
12.08,0.3607,-0.14914,0.76562,0.55098,0.14314
12.088,0.35777,-0.15159,0.77539,0.56078,0.14314
12.096,0.35679,-0.15159,0.79492,0.56471,0.12353
12.104,0.35973,-0.15403,0.81055,0.57059,0.11373
12.112,0.36559,-0.15648,0.81445,0.57059,0.10392
12.12,0.37732,-0.15648,0.82031,0.56471,0.10392
12.128,0.39394,-0.15892,0.81445,0.5451,0.1098
12.136,0.41251,-0.16137,0.79883,0.53529,0.12353
12.144,0.43597,-0.16381,0.78906,0.52549,0.12353
12.152,0.4653,-0.16626,0.75391,0.51569,0.14314
12.16,0.49951,-0.1687,0.73438,0.51961,0.17451
12.168,0.53568,-0.17115,0.72461,0.51961,0.18431
12.176,0.57087,-0.17359,0.72461,0.50588,0.18824
12.184,0.60215,-0.17604,0.71484,0.5,0.18824
12.192,0.62757,-0.17848,0.71484,0.5098,0.18824
12.2,0.64516,-0.18093,0.70898,0.5098,0.18824
12.208,0.65494,-0.18337,0.70898,0.50588,0.19412
12.216,0.65689,-0.18582,0.71484,0.50588,0.19412
12.224,0.65298,-0.18826,0.70508,0.52549,0.19412
12.232,0.64418,-0.19071,0.69922,0.6098,0.2098
12.24,0.63148,-0.19315,0.78516,0.68627,0.15882
12.248,0.61779,-0.19315,1.0703,0.57451,-0.082353
12.256,0.60215,-0.1956,1.3887,0.3,-0.37255
12.264,0.58456,-0.1956,1.4434,0.18824,-0.41176
12.272,0.56696,-0.19804,1.1484,0.33922,-0.10588
12.28,0.54936,-0.19804,0.92383,0.4451,0.094118
12.288,0.53275,-0.19804,0.69531,0.46471,0.2451
12.296,0.51613,-0.19804,0.52539,0.42549,0.3549
12.304,0.50049,-0.20049,0.43555,0.36471,0.40392
12.312,0.48583,-0.20049,0.42578,0.32941,0.3902
12.32,0.47019,-0.20049,0.50586,0.3549,0.33922
12.328,0.4565,-0.20049,0.58984,0.41569,0.27451
12.336,0.44379,-0.20049,0.64062,0.4549,0.23333
12.344,0.43402,-0.20049,0.66992,0.47451,0.2098
12.352,0.42326,-0.20049,0.68555,0.48039,0.19412
12.36,0.41447,-0.20049,0.69922,0.4902,0.18431
12.368,0.4086,-0.20049,0.70898,0.49412,0.17843
12.376,0.40469,-0.19804,0.7207,0.5,0.16863
12.384,0.40469,-0.19804,0.72461,0.49412,0.16471
12.392,0.4086,-0.19804,0.72461,0.49412,0.15882
12.4,0.41642,-0.1956,0.73047,0.47451,0.15882
12.408,0.42522,-0.19315,0.74023,0.48039,0.14902
12.416,0.435,-0.19315,0.74414,0.47451,0.14902
12.424,0.44379,-0.19071,0.75,0.47451,0.14314
12.432,0.45259,-0.19071,0.75,0.46471,0.13922
12.44,0.46041,-0.18826,0.75,0.46078,0.12941
12.448,0.46725,-0.18582,0.75977,0.43922,0.12353
12.456,0.47214,-0.18582,0.77539,0.42549,0.1098
12.464,0.47507,-0.18337,0.77539,0.41569,0.098039
12.472,0.47605,-0.18093,0.78516,0.39412,0.094118
12.48,0.4741,-0.17848,0.78906,0.38039,0.084314
12.488,0.47116,-0.17848,0.79883,0.36471,0.07451
12.496,0.46628,-0.17604,0.80469,0.34902,0.062745
12.504,0.45943,-0.17359,0.79883,0.3451,0.068627
12.512,0.45259,-0.17115,0.79883,0.33922,0.068627
12.52,0.44575,-0.17115,0.79492,0.3549,0.078431
12.528,0.43891,-0.1687,0.78516,0.37059,0.084314
12.536,0.43304,-0.16626,0.77539,0.39412,0.098039
12.544,0.42815,-0.16381,0.76562,0.41569,0.11961
12.552,0.42229,-0.16137,0.75,0.4451,0.13333
12.56,0.41642,-0.15892,0.74023,0.4549,0.14902
12.568,0.41153,-0.15648,0.73047,0.47451,0.15882
12.576,0.40665,-0.15403,0.72461,0.4902,0.16863
12.584,0.40274,-0.15159,0.72461,0.5,0.17843
12.592,0.3998,-0.15159,0.7207,0.50588,0.17843
12.6,0.39785,-0.14914,0.70898,0.51569,0.19412
12.608,0.39687,-0.14914,0.71484,0.51961,0.18824
12.616,0.39687,-0.1467,0.7207,0.51961,0.18431
12.624,0.39589,-0.1467,0.7207,0.52941,0.18431
12.632,0.39589,-0.14425,0.73047,0.52549,0.17451
12.64,0.39492,-0.14425,0.73438,0.53529,0.17451
12.648,0.39589,-0.14425,0.74023,0.53922,0.16863
12.656,0.39492,-0.14425,0.75,0.53922,0.16863
12.664,0.39394,-0.14181,0.75,0.53529,0.16471
12.672,0.39394,-0.14181,0.75,0.53529,0.16471
12.68,0.39394,-0.14181,0.75,0.5451,0.16863
12.688,0.39296,-0.14181,0.75,0.53922,0.16471
12.696,0.39101,-0.14181,0.75,0.53922,0.16863
12.704,0.39003,-0.14181,0.74414,0.53529,0.17451
12.712,0.38807,-0.14181,0.75,0.53922,0.17451
12.72,0.38612,-0.14425,0.74414,0.53922,0.17451
12.728,0.38416,-0.14425,0.74023,0.52941,0.17451
12.736,0.38416,-0.1467,0.74023,0.53529,0.16863
12.744,0.38319,-0.1467,0.75391,0.5451,0.15882
12.752,0.38221,-0.1467,0.76562,0.5549,0.1549
12.76,0.38221,-0.14914,0.78516,0.56471,0.14314
12.768,0.38319,-0.14914,0.79492,0.57059,0.12353
12.776,0.3871,-0.15159,0.79883,0.57059,0.11961
12.784,0.39492,-0.15403,0.80469,0.57451,0.11961
12.792,0.4086,-0.15403,0.82031,0.5549,0.1098
12.8,0.42815,-0.15648,0.81055,0.5451,0.12353
12.808,0.45552,-0.15892,0.79492,0.53529,0.11961
12.816,0.4868,-0.16137,0.77539,0.51961,0.13333
12.824,0.52297,-0.16137,0.74414,0.51569,0.15882
12.832,0.56012,-0.16381,0.72461,0.51569,0.18431
12.84,0.59238,-0.16626,0.7207,0.51961,0.19412
12.848,0.61975,-0.1687,0.71484,0.50588,0.18824
12.856,0.64712,-0.17115,0.7207,0.51569,0.19412
12.864,0.6696,-0.17359,0.7207,0.50588,0.18824
12.872,0.68524,-0.17604,0.71484,0.5098,0.19412
12.88,0.69404,-0.17848,0.7207,0.5,0.18824
12.888,0.69501,-0.17848,0.7207,0.50588,0.19412
12.896,0.68915,-0.18093,0.70508,0.5451,0.20392
12.904,0.67742,-0.18093,0.69922,0.64118,0.21961
12.912,0.66178,-0.18337,0.85938,0.67647,0.098039
12.92,0.64418,-0.18337,1.1895,0.47059,-0.18627
12.928,0.62463,-0.18582,1.4297,0.22941,-0.40196
12.936,0.60802,-0.18582,1.3047,0.17843,-0.26275
12.944,0.59238,-0.18582,1.0703,0.37451,-0.027451
12.952,0.57576,-0.18582,0.82422,0.44902,0.16863
12.96,0.55914,-0.18582,0.60938,0.46078,0.3098
12.968,0.5435,-0.18582,0.47461,0.4098,0.3902
12.976,0.52688,-0.18337,0.41992,0.34902,0.4098
12.984,0.51124,-0.18337,0.45508,0.33529,0.38039
12.992,0.49658,-0.18093,0.53516,0.38431,0.31961
13,0.48192,-0.18093,0.61523,0.42941,0.25882
13.008,0.46823,-0.17848,0.6543,0.46471,0.22353
13.016,0.45552,-0.17848,0.67578,0.47451,0.2098
13.024,0.44575,-0.17604,0.68945,0.49412,0.19412
13.032,0.43891,-0.17604,0.68945,0.4902,0.19412
13.04,0.435,-0.17604,0.69922,0.4902,0.18431
13.048,0.43402,-0.17359,0.70898,0.48431,0.17843
13.056,0.43597,-0.17359,0.7207,0.4902,0.16863
13.064,0.44086,-0.17115,0.72461,0.48431,0.16863
13.072,0.4477,-0.1687,0.73047,0.48039,0.15882
13.08,0.4565,-0.1687,0.73047,0.47451,0.1549
13.088,0.46628,-0.16626,0.73047,0.47451,0.15882
13.096,0.47703,-0.16381,0.75,0.47059,0.14902
13.104,0.48583,-0.15892,0.74414,0.46078,0.13922
13.112,0.49462,-0.15648,0.75,0.44902,0.13333
13.12,0.50147,-0.15403,0.75977,0.43529,0.12353
13.128,0.50538,-0.14914,0.77539,0.41961,0.11373
13.136,0.50733,-0.1467,0.77539,0.40392,0.10392
13.144,0.50831,-0.14181,0.7793,0.38431,0.094118
13.152,0.50635,-0.13692,0.78516,0.37451,0.098039
13.16,0.50342,-0.13203,0.79492,0.35882,0.084314
13.168,0.49951,-0.12469,0.79492,0.3549,0.084314
13.176,0.49365,-0.11736,0.79492,0.3451,0.084314
13.184,0.4868,-0.11002,0.78906,0.3549,0.084314
13.192,0.47898,-0.10269,0.78516,0.35882,0.088235
13.2,0.47116,-0.095355,0.77539,0.38431,0.10392
13.208,0.46334,-0.085575,0.76953,0.40392,0.11961
13.216,0.45455,-0.07824,0.75391,0.42941,0.13333
13.224,0.4477,-0.070905,0.74414,0.4549,0.14902
13.232,0.44184,-0.061125,0.73047,0.47059,0.16471
13.24,0.43793,-0.05379,0.72461,0.48039,0.17451
13.248,0.43402,-0.04401,0.7207,0.5,0.17843
13.256,0.43011,-0.036675,0.71484,0.5,0.18824
13.264,0.4262,-0.026895,0.70898,0.5098,0.18824
13.272,0.42326,-0.017115,0.71484,0.51569,0.18824
13.28,0.42131,-0.00978,0.71484,0.52549,0.18824
13.288,0.42033,0,0.7207,0.52549,0.19412
13.296,0.41935,0.007335,0.72461,0.52941,0.18824
13.304,0.41838,0.01467,0.72461,0.53529,0.18431
13.312,0.41642,0.022005,0.74023,0.53922,0.17451
13.32,0.41349,0.02934,0.74414,0.53529,0.17451
13.328,0.41056,0.036675,0.74414,0.5451,0.17451
13.336,0.4086,0.04401,0.74414,0.53529,0.17451
13.344,0.40665,0.051345,0.75,0.53529,0.17451
13.352,0.40371,0.05868,0.74023,0.53922,0.17451
13.36,0.40078,0.066015,0.74414,0.53529,0.17451
13.368,0.39785,0.07335,0.74414,0.53529,0.17451
13.376,0.39589,0.07824,0.75,0.53529,0.17451
13.384,0.39394,0.085575,0.74414,0.53922,0.17451
13.392,0.39101,0.09291,0.74414,0.53922,0.16863
13.4,0.38807,0.0978,0.74023,0.53529,0.17451
13.408,0.38514,0.10513,0.73438,0.53922,0.17451
13.416,0.38319,0.11002,0.75,0.5451,0.16863
13.424,0.38221,0.11736,0.75977,0.56078,0.1549
13.432,0.38319,0.12225,0.77539,0.56471,0.14902
13.44,0.3871,0.12714,0.78516,0.57059,0.13333
13.448,0.39394,0.13447,0.79492,0.57451,0.12353
13.456,0.40469,0.13936,0.78906,0.57451,0.12941
13.464,0.42229,0.14425,0.79883,0.56078,0.12353
13.472,0.44673,0.15159,0.79492,0.5451,0.12353
13.48,0.47703,0.15648,0.78906,0.53922,0.12941
13.488,0.51222,0.16381,0.77539,0.52549,0.14314
13.496,0.55132,0.1687,0.75,0.51961,0.15882
13.504,0.5914,0.17604,0.73047,0.52549,0.17843
13.512,0.62952,0.18093,0.72461,0.51961,0.18431
13.52,0.66373,0.18826,0.71484,0.51961,0.18824
13.528,0.69013,0.19315,0.72461,0.51569,0.18824
13.536,0.70772,0.19804,0.72461,0.51569,0.18824
13.544,0.71652,0.20293,0.72461,0.51569,0.18824
13.552,0.71945,0.20782,0.71484,0.51569,0.19412
13.56,0.7175,0.21271,0.7207,0.51961,0.18824
13.568,0.7087,0.2176,0.70508,0.56471,0.20392
13.576,0.69599,0.22249,0.73047,0.66078,0.2098
13.584,0.6784,0.22494,0.76953,0.6902,0.17451
13.592,0.65982,0.22983,0.75,0.67059,0.18824
13.6,0.64027,0.23472,0.75,0.67647,0.18824
13.608,0.62072,0.23716,1.0645,0.3902,-0.056863
13.616,0.60117,0.23961,1.084,0.33529,-0.066667
13.624,0.5826,0.2445,0.78906,0.3902,0.16471
13.632,0.56598,0.24694,0.5957,0.40392,0.3
13.64,0.5523,0.24939,0.49023,0.36471,0.3549
13.648,0.53763,0.25428,0.45508,0.31373,0.37451
13.656,0.52297,0.25672,0.50586,0.3098,0.33529
13.664,0.50929,0.26161,0.58984,0.38039,0.27451
13.672,0.49658,0.26406,0.66406,0.42549,0.21373
13.68,0.48485,0.26895,0.69531,0.4549,0.19412
13.688,0.4741,0.27139,0.70508,0.47451,0.18431
13.696,0.4653,0.27628,0.72461,0.47451,0.17451
13.704,0.45846,0.27873,0.73047,0.48039,0.16471
13.712,0.45552,0.28117,0.74023,0.4902,0.1549
13.72,0.4565,0.28362,0.74023,0.48431,0.1549
13.728,0.45943,0.28851,0.75,0.48039,0.14902
13.736,0.46334,0.29095,0.75391,0.48039,0.14314
13.744,0.46921,0.2934,0.76562,0.47451,0.13922
13.752,0.47703,0.29584,0.76562,0.47451,0.13922
13.76,0.48583,0.30073,0.76953,0.47059,0.13333
13.768,0.49462,0.30318,0.76953,0.4549,0.12941
13.776,0.50244,0.30807,0.77539,0.44902,0.12353
13.784,0.50929,0.31051,0.77539,0.4451,0.12353
13.792,0.51515,0.3154,0.78906,0.42941,0.10392
13.8,0.51906,0.32029,0.78516,0.41569,0.10392
13.808,0.52102,0.32518,0.79492,0.4,0.094118
13.816,0.51906,0.33007,0.79492,0.38039,0.088235
13.824,0.51613,0.33496,0.80469,0.35882,0.078431
13.832,0.51222,0.33741,0.79883,0.34902,0.078431
13.84,0.50831,0.3423,0.80469,0.33529,0.07451
13.848,0.50342,0.34719,0.81055,0.32941,0.07451
13.856,0.49658,0.34963,0.79883,0.33529,0.078431
13.864,0.48974,0.35452,0.78906,0.34902,0.084314
13.872,0.48094,0.35697,0.78516,0.37059,0.098039
13.88,0.47312,0.35941,0.77539,0.38431,0.10392
13.888,0.46628,0.3643,0.76562,0.4098,0.11961
13.896,0.45943,0.36675,0.75,0.42941,0.13922
13.904,0.45455,0.36919,0.74414,0.44902,0.14902
13.912,0.44966,0.37408,0.72461,0.47059,0.16863
13.92,0.44673,0.37653,0.72461,0.48039,0.17451
13.928,0.44477,0.38142,0.72461,0.4902,0.17451
13.936,0.44477,0.38386,0.7207,0.5,0.17843
13.944,0.44477,0.38875,0.72461,0.5,0.17843
13.952,0.44477,0.3912,0.72461,0.51569,0.17843
13.96,0.44477,0.39364,0.72461,0.51961,0.17451
13.968,0.44477,0.39609,0.72461,0.51961,0.17843
13.976,0.44477,0.39853,0.73438,0.51961,0.17451
13.984,0.44477,0.40098,0.73438,0.52549,0.17451
13.992,0.44477,0.40342,0.74414,0.52549,0.16863
14,0.44477,0.40342,0.74414,0.52549,0.16863
14.008,0.44477,0.40587,0.75,0.52549,0.16471
14.016,0.44379,0.40587,0.75,0.52941,0.16863
14.024,0.44184,0.40587,0.75391,0.53529,0.16471
14.032,0.43988,0.40587,0.74414,0.52549,0.16863
14.04,0.43891,0.40587,0.74414,0.52941,0.16471
14.048,0.43695,0.40587,0.75,0.51961,0.16471
14.056,0.42131,0.40342,0.74414,0.52941,0.16863
14.064,0.39883,0.40098,0.73438,0.52549,0.17451
14.072,0.38612,0.39853,0.74023,0.52549,0.16863
14.08,0.37732,0.39609,0.74414,0.53529,0.16471
14.088,0.37243,0.39364,0.75977,0.5451,0.14902
14.096,0.37048,0.3912,0.77539,0.5451,0.14314
14.104,0.37146,0.38875,0.78516,0.56078,0.12941
14.112,0.37537,0.38386,0.79492,0.57059,0.11961
14.12,0.38416,0.38142,0.79883,0.57451,0.12353
14.128,0.3998,0.37653,0.81055,0.56471,0.11961
14.136,0.41838,0.37164,0.79883,0.5451,0.11961
14.144,0.44184,0.36675,0.80469,0.53922,0.11961
14.152,0.4741,0.36186,0.7793,0.52941,0.12353
14.16,0.51417,0.35452,0.75977,0.51569,0.13922
14.168,0.55816,0.34719,0.73047,0.51569,0.16863
14.176,0.60313,0.33985,0.72461,0.51569,0.17451
14.184,0.64712,0.33496,0.71484,0.51569,0.18431
14.192,0.68622,0.32763,0.70898,0.5098,0.18824
14.2,0.71652,0.32029,0.69922,0.50588,0.19412
14.208,0.73705,0.31296,0.70898,0.50588,0.17843
14.216,0.74682,0.30562,0.71484,0.5098,0.18431
14.224,0.74682,0.29584,0.7207,0.50588,0.18431
14.232,0.73998,0.28606,0.70508,0.51569,0.19412
14.24,0.72825,0.27873,0.70508,0.6098,0.20392
14.248,0.71163,0.26895,0.77539,0.68039,0.16863
14.256,0.69208,0.26161,1.0703,0.59608,-0.066667
14.264,0.67058,0.25428,1.3984,0.31961,-0.35294
14.272,0.65005,0.2445,1.4648,0.16863,-0.41176
14.28,0.62854,0.23716,1.1445,0.30392,-0.11765
14.288,0.60899,0.22738,0.91406,0.41961,0.078431
14.296,0.59042,0.22005,0.67969,0.44902,0.2451
14.304,0.57283,0.21027,0.51562,0.42549,0.3549
14.312,0.55621,0.20049,0.42578,0.37059,0.40392
14.32,0.54057,0.19071,0.41602,0.33529,0.39412
14.328,0.5259,0.18337,0.49023,0.3549,0.33922
14.336,0.51417,0.17359,0.57422,0.4098,0.27843
14.344,0.50342,0.16626,0.64453,0.4549,0.23333
14.352,0.49169,0.15892,0.66992,0.48039,0.21373
14.36,0.47996,0.15159,0.68555,0.4902,0.19412
14.368,0.46823,0.14425,0.69531,0.49412,0.18824
14.376,0.45943,0.13692,0.70508,0.49412,0.17843
14.384,0.45357,0.12958,0.70898,0.5,0.18431
14.392,0.45064,0.12225,0.7207,0.5,0.17451
14.4,0.45161,0.11736,0.72461,0.49412,0.16863
14.408,0.45552,0.11247,0.73047,0.48431,0.1549
14.416,0.46139,0.10758,0.73438,0.48431,0.1549
14.424,0.47019,0.10269,0.73438,0.48039,0.14902
14.432,0.47898,0.0978,0.74023,0.47451,0.14902
14.44,0.4868,0.09291,0.73438,0.46471,0.14314
14.448,0.4956,0.08802,0.74023,0.4549,0.14314
14.456,0.50342,0.08313,0.75,0.4451,0.12353
14.464,0.50929,0.07824,0.76562,0.42549,0.11961
14.472,0.51417,0.075795,0.76953,0.4098,0.10392
14.48,0.51711,0.070905,0.77539,0.4,0.098039
14.488,0.51711,0.066015,0.78516,0.38039,0.088235
14.496,0.51417,0.06357,0.78906,0.36471,0.078431
14.504,0.51026,0.05868,0.79492,0.3549,0.078431
14.512,0.50342,0.056235,0.79492,0.3451,0.078431
14.52,0.49365,0.051345,0.78906,0.33922,0.078431
14.528,0.48387,0.0489,0.78906,0.34902,0.078431
14.536,0.4741,0.046455,0.77539,0.37451,0.094118
14.544,0.46628,0.04401,0.76562,0.3902,0.1098
14.552,0.45748,0.03912,0.75,0.40392,0.12941
14.56,0.44966,0.036675,0.74414,0.42941,0.13922
14.568,0.44282,0.03423,0.72461,0.44902,0.15882
14.576,0.43597,0.031785,0.7207,0.46471,0.16863
14.584,0.43011,0.02934,0.7207,0.48039,0.17451
14.592,0.42522,0.026895,0.7207,0.5,0.17843
14.6,0.42229,0.02445,0.70898,0.50588,0.18824
14.608,0.41935,0.022005,0.71484,0.5098,0.19412
14.616,0.4174,0.01956,0.70898,0.51961,0.18824
14.624,0.41544,0.01467,0.72461,0.51961,0.17843
14.632,0.41349,0.012225,0.72461,0.52549,0.17843
14.64,0.41349,0.00978,0.73047,0.52941,0.17451
14.648,0.41251,0.007335,0.73438,0.52941,0.17843
14.656,0.41056,0.002445,0.73047,0.53529,0.17451
14.664,0.40958,0,0.73438,0.52941,0.17451
14.672,0.40665,-0.002445,0.74023,0.53922,0.17451
14.68,0.40469,-0.00489,0.74414,0.53529,0.16863
14.688,0.40176,-0.00978,0.75,0.52941,0.16863
14.696,0.39883,-0.012225,0.74414,0.53529,0.16471
14.704,0.39492,-0.01467,0.75,0.53529,0.16863
14.712,0.39198,-0.017115,0.74414,0.53922,0.16471
14.72,0.38807,-0.022005,0.74414,0.53529,0.16863
14.728,0.38416,-0.02445,0.74023,0.53529,0.17451
14.736,0.38123,-0.026895,0.73047,0.53529,0.17451
14.744,0.37928,-0.02934,0.74023,0.53922,0.16863
14.752,0.37634,-0.03423,0.75,0.5451,0.16471
14.76,0.37341,-0.036675,0.76562,0.5549,0.1549
14.768,0.37146,-0.041565,0.77539,0.56471,0.14314
14.776,0.37146,-0.04401,0.79492,0.56471,0.12353
14.784,0.37439,-0.0489,0.79883,0.57059,0.12353
14.792,0.38221,-0.051345,0.80469,0.58039,0.11961
14.8,0.39687,-0.056235,0.81055,0.56471,0.12353
14.808,0.4174,-0.061125,0.79883,0.5451,0.11961
14.816,0.44575,-0.06357,0.78516,0.53529,0.12941
14.824,0.48094,-0.06846,0.76562,0.52549,0.14314
14.832,0.51417,-0.070905,0.74023,0.51961,0.16863
14.84,0.54839,-0.075795,0.72461,0.51961,0.17843
14.848,0.58651,-0.080685,0.70898,0.51569,0.18824
14.856,0.62463,-0.08313,0.69922,0.51569,0.19412
14.864,0.65885,-0.08802,0.69922,0.5098,0.2
14.872,0.68622,-0.09291,0.69922,0.5098,0.19412
14.88,0.70479,-0.095355,0.70898,0.5098,0.19412
14.888,0.71457,-0.10024,0.69922,0.5098,0.19412
14.896,0.71457,-0.10269,0.70508,0.51569,0.2
14.904,0.70674,-0.10758,0.69531,0.56078,0.21961
14.912,0.6911,-0.11002,0.68945,0.6549,0.22353
14.92,0.67058,-0.11491,0.875,0.68039,0.094118
14.928,0.65103,-0.11736,1.2402,0.4451,-0.22157
14.936,0.6305,-0.12225,1.4395,0.21961,-0.39804
14.944,0.60802,-0.12469,1.2734,0.18824,-0.23137
14.952,0.58553,-0.12714,1.0352,0.4,0.0039216
14.96,0.565,-0.13203,0.80469,0.46078,0.17451
14.968,0.54545,-0.13447,0.58984,0.47451,0.31961
14.976,0.52786,-0.13692,0.45508,0.39412,0.4
14.984,0.51222,-0.13936,0.4043,0.3451,0.41961
14.992,0.49658,-0.14181,0.45508,0.33529,0.38039
15,0.48094,-0.14425,0.53516,0.38431,0.31961
15.008,0.4653,-0.1467,0.61523,0.42941,0.2549
15.016,0.45064,-0.14914,0.64453,0.47059,0.22941
15.024,0.43695,-0.15159,0.66992,0.48039,0.2098
15.032,0.4262,-0.15403,0.67969,0.49412,0.2
15.04,0.41935,-0.15648,0.68945,0.49412,0.19412
15.048,0.41447,-0.15648,0.69922,0.4902,0.18431
15.056,0.41153,-0.15892,0.71484,0.49412,0.17451
15.064,0.41251,-0.15892,0.7207,0.49412,0.16863
15.072,0.41642,-0.16137,0.73047,0.49412,0.1549
15.08,0.42229,-0.16137,0.72461,0.4902,0.15882
15.088,0.43011,-0.16381,0.73438,0.48431,0.14902
15.096,0.43891,-0.16381,0.73438,0.48039,0.14902
15.104,0.44868,-0.16626,0.74414,0.47451,0.14314
15.112,0.45748,-0.16626,0.75,0.46471,0.13922
15.12,0.4653,-0.16626,0.75,0.44902,0.12941
15.128,0.47214,-0.16626,0.75391,0.43922,0.12941
15.136,0.47605,-0.16626,0.76562,0.42549,0.11961
15.144,0.47996,-0.16626,0.77539,0.40392,0.10392
15.152,0.48094,-0.16626,0.77539,0.3902,0.098039
15.16,0.47996,-0.16626,0.78516,0.37059,0.088235
15.168,0.47703,-0.16626,0.79492,0.35882,0.078431
15.176,0.47116,-0.16626,0.79492,0.3549,0.078431
15.184,0.46334,-0.16626,0.79492,0.3549,0.084314
15.192,0.45552,-0.16626,0.78906,0.3549,0.084314
15.2,0.44673,-0.16626,0.78516,0.35882,0.094118
15.208,0.43695,-0.16381,0.7793,0.37451,0.098039
15.216,0.42815,-0.16381,0.76953,0.40392,0.11961
15.224,0.41838,-0.16381,0.75391,0.42549,0.13922
15.232,0.41153,-0.16381,0.73438,0.44902,0.15882
15.24,0.40665,-0.16137,0.73047,0.46078,0.16863
15.248,0.40176,-0.16137,0.72461,0.47451,0.17451
15.256,0.39785,-0.16137,0.7207,0.4902,0.18431
15.264,0.39492,-0.16137,0.72461,0.5,0.18431
15.272,0.39296,-0.15892,0.7207,0.5098,0.18824
15.28,0.39296,-0.15892,0.71484,0.51569,0.19412
15.288,0.39198,-0.15892,0.7207,0.51961,0.19412
15.296,0.39198,-0.15892,0.72461,0.52549,0.18824
15.304,0.39198,-0.15892,0.72461,0.52941,0.18431
15.312,0.39198,-0.15892,0.72461,0.52941,0.17843
15.32,0.39198,-0.15648,0.73047,0.52941,0.18431
15.328,0.39198,-0.15648,0.74023,0.52549,0.17451
15.336,0.39296,-0.15648,0.74023,0.53529,0.17843
15.344,0.39296,-0.15892,0.75,0.53922,0.17451
15.352,0.39198,-0.15892,0.74414,0.53529,0.17451
15.36,0.39003,-0.15892,0.75,0.53922,0.16863
15.368,0.38905,-0.15892,0.74023,0.53529,0.17451
15.376,0.38612,-0.15892,0.74023,0.53529,0.17451
15.384,0.38319,-0.15892,0.74023,0.53529,0.17451
15.392,0.38025,-0.15892,0.74023,0.53922,0.16863
15.4,0.37634,-0.15892,0.73047,0.53529,0.17451
15.408,0.37341,-0.16137,0.73438,0.53922,0.17451
15.416,0.3695,-0.16137,0.74414,0.5451,0.16863
15.424,0.36657,-0.16137,0.75,0.5549,0.15882
15.432,0.36461,-0.16381,0.76953,0.56471,0.14902
15.44,0.36461,-0.16381,0.78516,0.57451,0.13333
15.448,0.36657,-0.16626,0.79883,0.58039,0.12353
15.456,0.37146,-0.16626,0.81445,0.58431,0.11373
15.464,0.38123,-0.1687,0.82031,0.57059,0.1098
15.472,0.39687,-0.17115,0.81445,0.56078,0.11961
15.48,0.41935,-0.17359,0.79883,0.5451,0.11961
15.488,0.4477,-0.17604,0.78906,0.52941,0.12353
15.496,0.48192,-0.17848,0.75977,0.51961,0.14314
15.504,0.52102,-0.17848,0.73438,0.51569,0.17451
15.512,0.56207,-0.18093,0.73047,0.51961,0.17451
15.52,0.60117,-0.18337,0.72461,0.51961,0.18824
15.528,0.63441,-0.18582,0.71484,0.5098,0.19412
15.536,0.65982,-0.18582,0.71484,0.51569,0.19412
15.544,0.68231,-0.18826,0.70508,0.50588,0.19412
15.552,0.69892,-0.19071,0.70508,0.5098,0.2
15.56,0.70674,-0.19315,0.70898,0.5098,0.19412
15.568,0.70674,-0.1956,0.70508,0.52549,0.2
15.576,0.6999,-0.19804,0.68945,0.6,0.21961
15.584,0.68817,-0.19804,0.76562,0.68039,0.17451
15.592,0.67058,-0.20049,1.0449,0.5902,-0.056863
15.6,0.64907,-0.20293,1.3691,0.32353,-0.34706
15.608,0.62561,-0.20293,1.4395,0.2,-0.40196
15.616,0.60215,-0.20538,1.1543,0.33529,-0.10588
15.624,0.57967,-0.20538,0.93555,0.4549,0.094118
15.632,0.56012,-0.20538,0.69922,0.47451,0.24902
15.64,0.54252,-0.20782,0.5293,0.43922,0.36471
15.648,0.52395,-0.20782,0.42969,0.37059,0.41569
15.656,0.50538,-0.20782,0.41992,0.33529,0.4
15.664,0.4868,-0.20782,0.49414,0.3549,0.34902
15.672,0.46823,-0.20538,0.58008,0.4098,0.28431
15.68,0.45161,-0.20538,0.63477,0.44902,0.23922
15.688,0.43793,-0.20538,0.66406,0.48039,0.21961
15.696,0.4262,-0.20538,0.68555,0.48431,0.2
15.704,0.4174,-0.20293,0.69922,0.49412,0.18824
15.712,0.41153,-0.20293,0.69922,0.4902,0.18431
15.72,0.41056,-0.20293,0.70508,0.48431,0.17843
15.728,0.41153,-0.20293,0.72461,0.4902,0.17451
15.736,0.41544,-0.20049,0.72461,0.48431,0.16863
15.744,0.42229,-0.20049,0.73047,0.4902,0.15882
15.752,0.43206,-0.19804,0.72461,0.48431,0.16863
15.76,0.44282,-0.19804,0.74023,0.48039,0.15882
15.768,0.45357,-0.1956,0.74023,0.47451,0.14902
15.776,0.46432,-0.1956,0.75,0.46471,0.14314
15.784,0.47507,-0.1956,0.75,0.46078,0.13922
15.792,0.48289,-0.19315,0.76953,0.4451,0.12353
15.8,0.48974,-0.19315,0.76562,0.43529,0.11961
15.808,0.49365,-0.19071,0.77539,0.41569,0.10392
15.816,0.4956,-0.18826,0.78906,0.39412,0.088235
15.824,0.49462,-0.18826,0.79492,0.37451,0.084314
15.832,0.49267,-0.18582,0.79492,0.3549,0.078431
15.84,0.48876,-0.18337,0.79492,0.34902,0.07451
15.848,0.48289,-0.18093,0.79492,0.33922,0.07451
15.856,0.4741,-0.18093,0.79883,0.33922,0.068627
15.864,0.4653,-0.17848,0.79492,0.3451,0.07451
15.872,0.45552,-0.17848,0.78906,0.37059,0.084314
15.88,0.44673,-0.17604,0.77539,0.3902,0.10392
15.888,0.43891,-0.17359,0.76562,0.41569,0.11961
15.896,0.43011,-0.17115,0.75,0.43529,0.13333
15.904,0.42326,-0.1687,0.74023,0.46078,0.14902
15.912,0.4174,-0.16626,0.73047,0.47451,0.16863
15.92,0.41153,-0.16381,0.72461,0.48431,0.17451
15.928,0.40665,-0.16137,0.73047,0.5,0.17451
15.936,0.40371,-0.15892,0.72461,0.5098,0.17843
15.944,0.40176,-0.15892,0.73438,0.51569,0.17451
15.952,0.40078,-0.15648,0.73047,0.51961,0.17451
15.96,0.3998,-0.15403,0.73047,0.51961,0.17451
15.968,0.39883,-0.15403,0.73438,0.52941,0.16863
15.976,0.39785,-0.15403,0.74414,0.52941,0.16471
15.984,0.39785,-0.15403,0.75,0.53529,0.16471
15.992,0.39883,-0.15403,0.74414,0.53922,0.16471
16,0.3998,-0.15403,0.75,0.52941,0.16471
16.008,0.3998,-0.15403,0.75,0.53529,0.1549
16.016,0.3998,-0.15403,0.75391,0.53922,0.14902
16.024,0.3998,-0.15403,0.75391,0.53922,0.1549
16.032,0.3998,-0.15403,0.75,0.53529,0.15882
16.04,0.39883,-0.15403,0.75,0.53922,0.15882
16.048,0.39589,-0.15403,0.74414,0.52941,0.16863
16.056,0.39296,-0.15159,0.74023,0.53922,0.17451
16.064,0.38905,-0.15159,0.75,0.53529,0.16471
16.072,0.38612,-0.15159,0.74414,0.53529,0.17451
16.08,0.38221,-0.15403,0.75,0.53922,0.16471
16.088,0.3783,-0.15403,0.76562,0.55098,0.14902
16.096,0.37634,-0.15403,0.7793,0.56078,0.13922
16.104,0.35875,-0.15403,0.79492,0.57059,0.12941
16.112,0.33431,-0.15403,0.81055,0.57059,0.11961
16.12,0.32551,-0.15403,0.81445,0.58039,0.11373
16.128,0.32551,-0.15648,0.82031,0.57451,0.1098
16.136,0.33431,-0.15648,0.82422,0.56078,0.1098
16.144,0.35191,-0.15892,0.81055,0.5451,0.11373
16.152,0.37732,-0.16137,0.78906,0.53529,0.12353
16.16,0.40958,-0.16137,0.76953,0.51961,0.13333
16.168,0.4477,-0.16381,0.74023,0.51961,0.16863
16.176,0.48974,-0.16626,0.72461,0.51961,0.17843
16.184,0.53275,-0.1687,0.71484,0.51569,0.19412
16.192,0.57478,-0.17115,0.71484,0.51569,0.19412
16.2,0.61193,-0.17115,0.70898,0.51569,0.19412
16.208,0.64223,-0.17359,0.70898,0.50588,0.19412
16.216,0.66471,-0.17604,0.70508,0.50588,0.19412
16.224,0.67742,-0.17848,0.70898,0.5098,0.19412
16.232,0.68133,-0.18093,0.70508,0.5,0.20392
16.24,0.6784,-0.18093,0.69922,0.5902,0.21961
16.248,0.66862,-0.18093,0.75,0.66471,0.18824
16.256,0.652,-0.18337,0.98438,0.67647,-0.011765
16.264,0.63148,-0.18337,1.3184,0.3549,-0.30196
16.272,0.60802,-0.18337,1.4141,0.18431,-0.38235
16.28,0.58553,-0.18337,1.1797,0.30392,-0.13137
16.288,0.56207,-0.18337,0.96875,0.42941,0.052941
16.296,0.54057,-0.18337,0.73047,0.46471,0.22941
16.304,0.52004,-0.18337,0.54492,0.43922,0.34902
16.312,0.49951,-0.18337,0.43945,0.38431,0.4098
16.32,0.47996,-0.18093,0.41992,0.33529,0.41569
16.328,0.46334,-0.18093,0.48438,0.32941,0.36471
16.336,0.4477,-0.18093,0.56445,0.40392,0.29412
16.344,0.43109,-0.18093,0.63477,0.44902,0.2451
16.352,0.41544,-0.17848,0.6543,0.47451,0.21961
16.36,0.40176,-0.17848,0.67969,0.48431,0.20392
16.368,0.39003,-0.17604,0.69531,0.49412,0.19412
16.376,0.38221,-0.17359,0.70508,0.4902,0.18824
16.384,0.3783,-0.17115,0.70898,0.49412,0.18431
16.392,0.3783,-0.1687,0.71484,0.49412,0.17451
16.4,0.38123,-0.16626,0.70898,0.48431,0.17451
16.408,0.38807,-0.16381,0.72461,0.47451,0.17451
16.416,0.39687,-0.16137,0.72461,0.47451,0.16863
16.424,0.40665,-0.15648,0.73047,0.47451,0.15882
16.432,0.41642,-0.15403,0.72461,0.46471,0.15882
16.44,0.42522,-0.15159,0.74023,0.46471,0.14902
16.448,0.435,-0.1467,0.74023,0.44902,0.14902
16.456,0.44477,-0.14425,0.75,0.44902,0.13922
16.464,0.45161,-0.13936,0.75,0.42941,0.13333
16.472,0.45748,-0.13447,0.76562,0.41569,0.12353
16.48,0.46139,-0.13203,0.76953,0.4,0.1098
16.488,0.46237,-0.12714,0.77539,0.38039,0.098039
16.496,0.46139,-0.12225,0.7793,0.37059,0.098039
16.504,0.45748,-0.11736,0.7793,0.3549,0.088235
16.512,0.45259,-0.11002,0.7793,0.3451,0.088235
16.52,0.44575,-0.10513,0.78516,0.33922,0.088235
16.528,0.43891,-0.0978,0.78906,0.33922,0.094118
16.536,0.43206,-0.090465,0.7793,0.36471,0.098039
16.544,0.42229,-0.08313,0.76953,0.38039,0.11373
16.552,0.41153,-0.075795,0.76562,0.40392,0.12353
16.56,0.40176,-0.066015,0.75,0.42941,0.14314
16.568,0.39101,-0.05868,0.73438,0.44902,0.15882
16.576,0.38221,-0.0489,0.72461,0.47059,0.17451
16.584,0.37537,-0.041565,0.72461,0.48039,0.17843
16.592,0.36852,-0.03423,0.72461,0.49412,0.17843
16.6,0.36364,-0.02445,0.7207,0.50588,0.18824
16.608,0.35875,-0.017115,0.71484,0.51569,0.19412
16.616,0.35582,-0.007335,0.70898,0.51961,0.19412
16.624,0.35386,0,0.72461,0.51961,0.18824
16.632,0.35288,0.00978,0.72461,0.51961,0.18824
16.64,0.35093,0.017115,0.73047,0.52941,0.18431
16.648,0.34897,0.02445,0.73438,0.52549,0.17843
16.656,0.34702,0.031785,0.74023,0.52941,0.17451
16.664,0.34506,0.03912,0.74023,0.51961,0.17451
16.672,0.34311,0.046455,0.74023,0.52549,0.17451
16.68,0.34115,0.051345,0.74023,0.52941,0.17451
16.688,0.3392,0.05868,0.75,0.52549,0.17451
16.696,0.33627,0.066015,0.74414,0.52941,0.17451
16.704,0.33431,0.07335,0.74023,0.52941,0.17451
16.712,0.33236,0.080685,0.73438,0.52941,0.17451
16.72,0.3304,0.085575,0.73047,0.52549,0.17843
16.728,0.32845,0.09291,0.73438,0.52549,0.17843
16.736,0.32747,0.10024,0.73438,0.53529,0.17843
16.744,0.32454,0.10513,0.74414,0.53529,0.17451
16.752,0.32258,0.11247,0.75,0.5451,0.17451
16.76,0.3216,0.11736,0.75977,0.5549,0.16863
16.768,0.32063,0.12469,0.77539,0.56471,0.1549
16.776,0.32258,0.12958,0.78906,0.56471,0.13922
16.784,0.32649,0.13692,0.79492,0.57059,0.13333
16.792,0.33431,0.14181,0.80469,0.57059,0.12353
16.8,0.348,0.14914,0.80469,0.56078,0.12941
16.808,0.36852,0.15403,0.79492,0.53922,0.12941
16.816,0.39687,0.15892,0.78906,0.52549,0.12941
16.824,0.4262,0.16381,0.76953,0.51569,0.14314
16.832,0.45748,0.17115,0.74023,0.5098,0.16863
16.84,0.49756,0.17604,0.72461,0.51569,0.18431
16.848,0.54154,0.18093,0.71484,0.51569,0.19412
16.856,0.58651,0.18826,0.7207,0.51961,0.19412
16.864,0.62854,0.19315,0.70898,0.5098,0.2
16.872,0.66471,0.19804,0.71484,0.50588,0.19412
16.88,0.69208,0.20293,0.70898,0.5098,0.19412
16.888,0.70968,0.21027,0.71484,0.50588,0.19412
16.896,0.71652,0.21271,0.70898,0.50588,0.2
16.904,0.71261,0.2176,0.69922,0.57451,0.21373
16.912,0.70186,0.22249,0.74023,0.67647,0.19412
16.92,0.68426,0.22494,0.93555,0.6902,0.04902
16.928,0.66373,0.22983,1.3086,0.39412,-0.26275
16.936,0.64223,0.23227,1.4688,0.16863,-0.40196
16.944,0.61681,0.23716,1.2344,0.1549,-0.19608
16.952,0.59042,0.23961,0.96484,0.36471,0.033333
16.96,0.56403,0.24205,0.7207,0.42549,0.21373
16.968,0.54057,0.24694,0.53906,0.43922,0.33922
16.976,0.51808,0.24939,0.43945,0.3902,0.39412
16.984,0.49756,0.25183,0.41992,0.33922,0.40392
16.992,0.47898,0.25672,0.48438,0.33529,0.3451
17,0.46237,0.25917,0.56445,0.4,0.28431
17.008,0.44673,0.26161,0.63477,0.4451,0.23922
17.016,0.43304,0.2665,0.66406,0.48431,0.21961
17.024,0.42229,0.26895,0.68555,0.49412,0.19412
17.032,0.41349,0.27384,0.69922,0.5,0.19412
17.04,0.40665,0.27628,0.69531,0.5,0.18431
17.048,0.40176,0.28117,0.69922,0.5,0.18431
17.056,0.40078,0.28362,0.71484,0.5,0.17451
17.064,0.40274,0.28606,0.7207,0.5,0.17451
17.072,0.40665,0.29095,0.72461,0.49412,0.16863
17.08,0.41349,0.2934,0.73047,0.48431,0.16471
17.088,0.42229,0.29584,0.73438,0.4902,0.15882
17.096,0.43304,0.30073,0.74023,0.48039,0.1549
17.104,0.44379,0.30318,0.74414,0.47451,0.14902
17.112,0.45357,0.30807,0.74414,0.46471,0.14902
17.12,0.46237,0.31296,0.75,0.4549,0.13922
17.128,0.47019,0.3154,0.75391,0.4451,0.12941
17.136,0.47507,0.31785,0.76562,0.42941,0.12353
17.144,0.47996,0.32274,0.77539,0.4098,0.1098
17.152,0.48192,0.32518,0.77539,0.38431,0.10392
17.16,0.48192,0.32763,0.77539,0.37059,0.098039
17.168,0.48094,0.33252,0.77539,0.3549,0.098039
17.176,0.47605,0.33496,0.7793,0.34902,0.094118
17.184,0.47019,0.33985,0.77539,0.3451,0.094118
17.192,0.46237,0.3423,0.7793,0.3451,0.094118
17.2,0.45455,0.34719,0.77539,0.35882,0.1098
17.208,0.44673,0.35208,0.76562,0.38039,0.11961
17.216,0.43891,0.35452,0.75,0.40392,0.13333
17.224,0.43011,0.35941,0.74414,0.42549,0.14314
17.232,0.42131,0.36186,0.72461,0.4451,0.16471
17.24,0.41251,0.36675,0.72461,0.46078,0.16863
17.248,0.40469,0.36919,0.71484,0.47451,0.17843
17.256,0.39785,0.37408,0.71484,0.49412,0.18824
17.264,0.39198,0.37653,0.71484,0.49412,0.18824
17.272,0.3871,0.38142,0.71484,0.50588,0.19412
17.28,0.38416,0.38386,0.70898,0.51569,0.18824
17.288,0.38319,0.38631,0.71484,0.51961,0.18824
17.296,0.38319,0.38875,0.7207,0.51961,0.18824
17.304,0.38416,0.3912,0.7207,0.52549,0.18431
17.312,0.38612,0.39364,0.72461,0.52941,0.17843
17.32,0.3871,0.39609,0.72461,0.52549,0.18431
17.328,0.38807,0.39853,0.72461,0.52941,0.17843
17.336,0.3871,0.40098,0.73438,0.53529,0.16863
17.344,0.38612,0.40098,0.73047,0.53529,0.16863
17.352,0.38514,0.40342,0.73047,0.53529,0.17451
17.36,0.38319,0.40342,0.74414,0.53529,0.16471
17.368,0.38123,0.40587,0.74023,0.53922,0.17451
17.376,0.37928,0.40342,0.74414,0.53529,0.16863
17.384,0.37634,0.40342,0.74023,0.53922,0.17451
17.392,0.37341,0.40342,0.74414,0.52941,0.17451
17.4,0.3695,0.40342,0.74414,0.53529,0.17451
17.408,0.36657,0.39853,0.75391,0.5451,0.16471
17.416,0.36266,0.39609,0.76562,0.55098,0.15882
17.424,0.3607,0.39364,0.77539,0.56471,0.14314
17.432,0.35875,0.38875,0.78516,0.57059,0.13333
17.44,0.35777,0.38386,0.79492,0.57451,0.12353
17.448,0.3607,0.38142,0.79883,0.57451,0.12353
17.456,0.36755,0.37653,0.81445,0.56471,0.11373
17.464,0.38123,0.37164,0.79883,0.5451,0.11961
17.472,0.40274,0.36675,0.79492,0.53922,0.12353
17.48,0.43109,0.36186,0.77539,0.51961,0.14314
17.488,0.46823,0.35452,0.74414,0.51569,0.1549
17.496,0.51124,0.34719,0.72461,0.5098,0.17451
17.504,0.55816,0.33985,0.71484,0.51961,0.18824
17.512,0.60606,0.33007,0.70508,0.5098,0.19412
17.52,0.65298,0.32274,0.70898,0.51569,0.19412
17.528,0.69013,0.31296,0.70508,0.50588,0.19412
17.536,0.71848,0.30318,0.70508,0.5098,0.19412
17.544,0.74389,0.29584,0.70898,0.5098,0.19412
17.552,0.76149,0.28851,0.70508,0.51569,0.19412
17.56,0.77028,0.27873,0.70898,0.52941,0.2
17.568,0.76833,0.27139,0.68945,0.61961,0.21961
17.576,0.75855,0.26161,0.77539,0.68627,0.17451
17.584,0.74194,0.25428,1.084,0.56471,-0.082353
17.592,0.72043,0.2445,1.4043,0.3,-0.35686
17.6,0.69599,0.23716,1.4492,0.17843,-0.39804
17.608,0.6696,0.22738,1.1152,0.32353,-0.092157
17.616,0.64418,0.22005,0.88477,0.43529,0.10392
17.624,0.62072,0.21271,0.6543,0.46471,0.26863
17.632,0.60117,0.20293,0.49414,0.42549,0.37059
17.64,0.58162,0.1956,0.41992,0.36471,0.40392
17.648,0.56305,0.18826,0.41016,0.32941,0.4
17.656,0.54545,0.17848,0.49414,0.35882,0.3451
17.664,0.52884,0.17115,0.58008,0.4098,0.27843
17.672,0.51417,0.16137,0.64062,0.44902,0.23922
17.68,0.49951,0.15403,0.66016,0.47451,0.21961
17.688,0.48485,0.14425,0.67969,0.48431,0.2
17.696,0.47214,0.13692,0.69531,0.4902,0.19412
17.704,0.46041,0.13203,0.69922,0.49412,0.18431
17.712,0.45259,0.12469,0.70898,0.4902,0.17451
17.72,0.44868,0.1198,0.72461,0.5,0.16863
17.728,0.4477,0.11247,0.7207,0.49412,0.17451
17.736,0.44868,0.10758,0.72461,0.5,0.16471
17.744,0.45357,0.10024,0.73047,0.4902,0.1549
17.752,0.46041,0.095355,0.74023,0.48039,0.14902
17.76,0.47116,0.090465,0.74023,0.47451,0.14902
17.768,0.48094,0.085575,0.75,0.47059,0.13922
17.776,0.49169,0.080685,0.75,0.46471,0.13333
17.784,0.50049,0.075795,0.75977,0.44902,0.12353
17.792,0.50929,0.070905,0.77539,0.43529,0.11961
17.8,0.51613,0.06846,0.76953,0.41961,0.10392
17.808,0.52102,0.06357,0.7793,0.40392,0.098039
17.816,0.52199,0.05868,0.7793,0.38431,0.088235
17.824,0.52102,0.056235,0.79492,0.36471,0.084314
17.832,0.51711,0.051345,0.79492,0.3549,0.078431
17.84,0.51124,0.0489,0.79883,0.3451,0.07451
17.848,0.50342,0.046455,0.79492,0.33922,0.078431
17.856,0.49365,0.041565,0.79492,0.3549,0.084314
17.864,0.48289,0.03912,0.7793,0.37451,0.098039
17.872,0.47214,0.036675,0.76953,0.3902,0.11373
17.88,0.46139,0.036675,0.75977,0.4098,0.12941
17.888,0.45259,0.03423,0.75,0.43529,0.14314
17.896,0.44379,0.031785,0.73047,0.44902,0.16471
17.904,0.43695,0.02934,0.72461,0.47059,0.17451
17.912,0.43011,0.026895,0.71484,0.48431,0.17843
17.92,0.42522,0.02445,0.71484,0.5,0.18431
17.928,0.42131,0.022005,0.71484,0.50588,0.18824
17.936,0.41838,0.01956,0.70898,0.5098,0.19412
17.944,0.41447,0.01956,0.71484,0.51569,0.18824
17.952,0.41056,0.017115,0.7207,0.51961,0.19412
17.96,0.40665,0.01467,0.72461,0.52941,0.18431
17.968,0.40371,0.012225,0.73047,0.53529,0.17843
17.976,0.3998,0.007335,0.73047,0.52941,0.17451
17.984,0.39687,0.00489,0.74023,0.53529,0.17451
17.992,0.39492,0.002445,0.74023,0.52941,0.17451
18,0.39296,-0.002445,0.74414,0.53529,0.17451
18.008,0.39101,-0.00489,0.75,0.53529,0.16863
18.016,0.38905,-0.00978,0.74414,0.53529,0.17451
18.024,0.38807,-0.012225,0.74414,0.53529,0.17451
18.032,0.38612,-0.017115,0.74414,0.53529,0.17451
18.04,0.38319,-0.01956,0.74414,0.52941,0.16863
18.048,0.3783,-0.02445,0.73438,0.52941,0.17451
18.056,0.37341,-0.026895,0.74023,0.52941,0.17451
18.064,0.36755,-0.031785,0.74414,0.53922,0.16863
18.072,0.36266,-0.036675,0.75391,0.55098,0.1549
18.08,0.35777,-0.03912,0.76953,0.56078,0.14902
18.088,0.35484,-0.04401,0.77539,0.56471,0.14902
18.096,0.35191,-0.046455,0.79492,0.56471,0.12353
18.104,0.35093,-0.051345,0.79883,0.58431,0.11373
18.112,0.35386,-0.05379,0.81445,0.57451,0.11373
18.12,0.3607,-0.056235,0.81445,0.56078,0.11961
18.128,0.37048,-0.061125,0.79492,0.5451,0.11373
18.136,0.3871,-0.06357,0.78516,0.53922,0.12353
18.144,0.41056,-0.06846,0.76562,0.51961,0.13922
18.152,0.43304,-0.070905,0.73047,0.51961,0.16863
18.16,0.45552,-0.075795,0.7207,0.51961,0.18431
18.168,0.4868,-0.080685,0.7207,0.51961,0.18824
18.176,0.52199,-0.085575,0.71484,0.5098,0.19412
18.184,0.55816,-0.090465,0.70898,0.5098,0.18824
18.192,0.5914,-0.09291,0.70898,0.51569,0.18824
18.2,0.61779,-0.095355,0.69922,0.50588,0.19412
18.208,0.63832,-0.10024,0.70898,0.5098,0.19412
18.216,0.64907,-0.10269,0.70508,0.51569,0.2
18.224,0.652,-0.10758,0.69922,0.58039,0.2098
18.232,0.64809,-0.11247,0.73438,0.66471,0.21373
18.24,0.63832,-0.11736,0.96875,0.68039,0.013725
18.248,0.62268,-0.12225,1.3047,0.38039,-0.28824
18.256,0.60313,-0.12469,1.4297,0.2,-0.38824
18.264,0.58162,-0.12958,1.1992,0.2902,-0.15098
18.272,0.55816,-0.13203,0.99414,0.42549,0.039216
18.28,0.53568,-0.13447,0.74414,0.47059,0.21373
18.288,0.51417,-0.13692,0.55469,0.47451,0.3451
18.296,0.49365,-0.14181,0.43945,0.3902,0.40392
18.304,0.47507,-0.14425,0.41992,0.33922,0.41569
18.312,0.45748,-0.1467,0.4707,0.32941,0.36471
18.32,0.43988,-0.14914,0.55469,0.3902,0.3
18.328,0.4262,-0.15159,0.62891,0.43922,0.23922
18.336,0.41349,-0.15403,0.66406,0.47059,0.21373
18.344,0.40078,-0.15648,0.67969,0.48039,0.2
18.352,0.38905,-0.15648,0.68555,0.48431,0.19412
18.36,0.3783,-0.15892,0.69531,0.4902,0.18431
18.368,0.37146,-0.16137,0.70508,0.48431,0.17451
18.376,0.36657,-0.16137,0.7207,0.48039,0.17451
18.384,0.36559,-0.16381,0.72461,0.48431,0.16863
18.392,0.36657,-0.16381,0.72461,0.48039,0.16471
18.4,0.3695,-0.16381,0.72461,0.48039,0.1549
18.408,0.37537,-0.16626,0.73047,0.47059,0.1549
18.416,0.38319,-0.16626,0.73047,0.47059,0.1549
18.424,0.39101,-0.16626,0.74414,0.46078,0.14314
18.432,0.39883,-0.16626,0.75,0.44902,0.13922
18.44,0.40665,-0.16626,0.75391,0.43922,0.12941
18.448,0.41349,-0.16626,0.75,0.42549,0.12941
18.456,0.41935,-0.16626,0.76562,0.41961,0.1098
18.464,0.42326,-0.16626,0.76953,0.4,0.10392
18.472,0.4262,-0.16626,0.77539,0.38039,0.088235
18.48,0.42717,-0.16381,0.78516,0.35882,0.084314
18.488,0.42522,-0.16381,0.79492,0.34902,0.078431
18.496,0.42131,-0.16381,0.78906,0.33529,0.078431
18.504,0.41544,-0.16381,0.79492,0.33922,0.078431
18.512,0.4086,-0.16137,0.78516,0.33922,0.078431
18.52,0.40078,-0.16137,0.78516,0.37059,0.088235
18.528,0.39296,-0.16137,0.76953,0.38039,0.10392
18.536,0.38416,-0.16137,0.75391,0.4098,0.12353
18.544,0.37537,-0.15892,0.74023,0.42941,0.14314
18.552,0.36657,-0.15892,0.73047,0.44902,0.1549
18.56,0.35875,-0.15892,0.7207,0.47059,0.16863
18.568,0.35191,-0.15892,0.72461,0.48431,0.17451
18.576,0.34604,-0.15892,0.7207,0.49412,0.18431
18.584,0.34018,-0.15648,0.71484,0.50588,0.18431
18.592,0.33529,-0.15648,0.70898,0.5098,0.18824
18.6,0.33236,-0.15648,0.7207,0.51961,0.18824
18.608,0.32942,-0.15648,0.72461,0.51961,0.18431
18.616,0.32747,-0.15648,0.72461,0.51961,0.18431
18.624,0.32551,-0.15648,0.72461,0.52549,0.18824
18.632,0.32454,-0.15648,0.73047,0.52549,0.18431
18.64,0.32356,-0.15648,0.73438,0.52941,0.17451
18.648,0.3216,-0.15648,0.73047,0.51961,0.17843
18.656,0.32063,-0.15892,0.74414,0.52941,0.16863
18.664,0.31867,-0.15892,0.74023,0.52549,0.17451
18.672,0.31769,-0.15892,0.74414,0.52549,0.17451
18.68,0.31672,-0.15892,0.74023,0.52941,0.17451
18.688,0.31574,-0.15892,0.74414,0.52941,0.17451
18.696,0.31476,-0.15892,0.74414,0.52549,0.17451
18.704,0.31183,-0.15892,0.74414,0.53529,0.17451
18.712,0.3089,-0.15892,0.73438,0.52549,0.17451
18.72,0.30694,-0.16137,0.73047,0.53529,0.16863
18.728,0.30499,-0.16137,0.75,0.5451,0.15882
18.736,0.30205,-0.16381,0.75977,0.5451,0.1549
18.744,0.29912,-0.16381,0.77539,0.56471,0.14902
18.752,0.29717,-0.16626,0.78906,0.57059,0.12941
18.76,0.29521,-0.1687,0.80469,0.57059,0.11961
18.768,0.29619,-0.17115,0.79883,0.57451,0.12353
18.776,0.30108,-0.17359,0.82031,0.5549,0.11373
18.784,0.30987,-0.17359,0.79883,0.55098,0.12353
18.792,0.32454,-0.17604,0.79492,0.53922,0.12353
18.8,0.34506,-0.17848,0.77539,0.52549,0.13333
18.808,0.37146,-0.18093,0.74414,0.5098,0.1549
18.816,0.40371,-0.18337,0.7207,0.51961,0.18431
18.824,0.43402,-0.18582,0.70508,0.51569,0.18824
18.832,0.4653,-0.18826,0.69922,0.51569,0.2
18.84,0.49951,-0.19071,0.70898,0.51961,0.19412
18.848,0.5347,-0.19315,0.70508,0.5098,0.2
18.856,0.56598,-0.19315,0.70898,0.50588,0.19412
18.864,0.5914,-0.1956,0.69922,0.5098,0.20392
18.872,0.60899,-0.19804,0.70508,0.5098,0.2
18.88,0.61681,-0.20049,0.69531,0.53922,0.2098
18.888,0.61779,-0.20049,0.68945,0.63529,0.21961
18.896,0.61095,-0.20293,0.81445,0.68039,0.13922
18.904,0.59726,-0.20538,1.1543,0.5098,-0.15098
18.912,0.57967,-0.20538,1.4082,0.25882,-0.38235
18.92,0.56109,-0.20782,1.4199,0.19412,-0.29216
18.928,0.54252,-0.20782,1.0801,0.38431,-0.041176
18.936,0.52199,-0.21027,0.85547,0.46471,0.14902
18.944,0.50049,-0.21027,0.62891,0.48039,0.3
18.952,0.47996,-0.21027,0.48438,0.41569,0.38431
18.96,0.46041,-0.21027,0.41016,0.3549,0.41961
18.968,0.44184,-0.21027,0.43555,0.33529,0.4
18.976,0.42424,-0.21027,0.51562,0.37059,0.33529
18.984,0.40665,-0.21271,0.59961,0.41961,0.26471
18.992,0.39101,-0.21271,0.65039,0.46078,0.22353
19,0.37732,-0.21271,0.66992,0.47451,0.21373
19.008,0.36461,-0.21271,0.67969,0.48039,0.2
19.016,0.35484,-0.21271,0.68945,0.48431,0.18824
19.024,0.348,-0.21271,0.69922,0.48431,0.18431
19.032,0.34409,-0.21271,0.70508,0.48039,0.17451
19.04,0.34213,-0.21271,0.71484,0.48431,0.17451
19.048,0.34409,-0.21027,0.71484,0.48039,0.17451
19.056,0.34897,-0.21027,0.72461,0.48431,0.16471
19.064,0.35582,-0.21027,0.72461,0.48039,0.16863
19.072,0.36461,-0.20782,0.73438,0.47451,0.1549
19.08,0.37341,-0.20782,0.73438,0.46471,0.1549
19.088,0.38319,-0.20538,0.75,0.46078,0.14902
19.096,0.39101,-0.20293,0.75,0.44902,0.14314
19.104,0.39883,-0.20049,0.76562,0.43922,0.12353
19.112,0.40567,-0.20049,0.77539,0.41961,0.11373
19.12,0.41056,-0.19804,0.78516,0.40392,0.098039
19.128,0.41349,-0.1956,0.7793,0.3902,0.094118
19.136,0.41447,-0.19315,0.78516,0.37451,0.084314
19.144,0.41349,-0.19315,0.78906,0.36471,0.078431
19.152,0.41056,-0.19071,0.79492,0.34902,0.07451
19.16,0.40567,-0.18826,0.79492,0.34902,0.078431
19.168,0.39883,-0.18582,0.79492,0.34902,0.078431
19.176,0.39003,-0.18337,0.78906,0.35882,0.084314
19.184,0.38123,-0.18093,0.7793,0.38039,0.098039
19.192,0.37341,-0.17848,0.77539,0.40392,0.11373
19.2,0.36461,-0.17604,0.75391,0.41961,0.12941
19.208,0.35679,-0.17359,0.74023,0.43529,0.14902
19.216,0.348,-0.17115,0.72461,0.44902,0.16471
19.224,0.34115,-0.17115,0.72461,0.47059,0.17451
19.232,0.33529,-0.1687,0.71484,0.48431,0.18431
19.24,0.32845,-0.1687,0.7207,0.49412,0.18431
19.248,0.32356,-0.16626,0.70898,0.5,0.19412
19.256,0.31965,-0.16626,0.71484,0.5098,0.18824
19.264,0.31769,-0.16381,0.71484,0.51569,0.18824
19.272,0.31672,-0.16137,0.72461,0.51961,0.18431
19.28,0.31672,-0.15892,0.72461,0.51961,0.17843
19.288,0.31672,-0.15892,0.72461,0.51961,0.17843
19.296,0.31672,-0.15648,0.73047,0.51961,0.17843
19.304,0.31672,-0.15648,0.74023,0.52941,0.17451
19.312,0.31672,-0.15648,0.73438,0.51961,0.17843
19.32,0.31672,-0.15648,0.73438,0.51569,0.18431
19.328,0.31769,-0.15648,0.73438,0.51569,0.17843
19.336,0.31769,-0.15403,0.74023,0.52941,0.17451
19.344,0.31769,-0.15403,0.74414,0.52941,0.16863
19.352,0.31672,-0.15403,0.74023,0.53529,0.17451
19.36,0.31476,-0.15403,0.74023,0.52941,0.17451
19.368,0.31183,-0.15403,0.73438,0.53529,0.17451
19.376,0.3089,-0.15403,0.74023,0.52941,0.17451
19.384,0.30499,-0.15159,0.75,0.53922,0.17451
19.392,0.30205,-0.15159,0.75977,0.55098,0.15882
19.4,0.29814,-0.15159,0.77539,0.56078,0.14902
19.408,0.29619,-0.15403,0.78906,0.57059,0.13333
19.416,0.29423,-0.15403,0.80469,0.57059,0.12353
19.424,0.29521,-0.15403,0.81445,0.57451,0.11373
19.432,0.29717,-0.15648,0.82031,0.57059,0.1098
19.44,0.30303,-0.15648,0.81055,0.56078,0.11373
19.448,0.31378,-0.15892,0.79883,0.5451,0.12353
19.456,0.3304,-0.15892,0.78516,0.52941,0.12941
19.464,0.35386,-0.16137,0.75977,0.51961,0.14902
19.472,0.38221,-0.16137,0.73438,0.52549,0.17451
19.48,0.41642,-0.16381,0.71484,0.51569,0.18824
19.488,0.45455,-0.16381,0.70898,0.51961,0.19412
19.496,0.49462,-0.16626,0.71484,0.5098,0.18824
19.504,0.53372,-0.1687,0.70508,0.5098,0.2
19.512,0.56891,-0.17115,0.70508,0.5098,0.2
19.52,0.59531,-0.17359,0.70898,0.5098,0.19412
19.528,0.6129,-0.17604,0.70898,0.5098,0.19412
19.536,0.62561,-0.17604,0.69922,0.52549,0.20392
19.544,0.63148,-0.17848,0.69531,0.60588,0.21961
19.552,0.62952,-0.18093,0.77539,0.68039,0.17451
19.56,0.6217,-0.18337,1.0488,0.58039,-0.060784
19.568,0.60704,-0.18337,1.3691,0.3098,-0.34706
19.576,0.58847,-0.18582,1.4297,0.18824,-0.39804
19.584,0.56696,-0.18826,1.1348,0.33529,-0.096078
19.592,0.54545,-0.18826,0.92969,0.4549,0.094118
19.6,0.52395,-0.18826,0.69531,0.47451,0.2549
19.608,0.50244,-0.18826,0.52539,0.43922,0.35882
19.616,0.48289,-0.19071,0.42578,0.38039,0.41569
19.624,0.4653,-0.19071,0.41992,0.33922,0.40392
19.632,0.44966,-0.19071,0.48438,0.35882,0.3549
19.64,0.43206,-0.19071,0.57422,0.4098,0.2902
19.648,0.41544,-0.19071,0.63477,0.4549,0.2451
19.656,0.39785,-0.18826,0.66016,0.48039,0.21961
19.664,0.38221,-0.18826,0.67578,0.4902,0.2098
19.672,0.36755,-0.18826,0.68555,0.49412,0.19412
19.68,0.35582,-0.18582,0.69922,0.49412,0.18824
19.688,0.34604,-0.18582,0.70898,0.4902,0.17451
19.696,0.34115,-0.18337,0.70508,0.4902,0.17843
19.704,0.34018,-0.18093,0.71484,0.4902,0.17451
19.712,0.34311,-0.18093,0.70898,0.48431,0.17451
19.72,0.348,-0.17848,0.72461,0.47451,0.16471
19.728,0.35582,-0.17604,0.73047,0.47451,0.15882
19.736,0.36461,-0.17359,0.73438,0.47059,0.1549
19.744,0.37537,-0.17115,0.74414,0.46078,0.14902
19.752,0.38514,-0.16626,0.74414,0.44902,0.14314
19.76,0.39492,-0.16137,0.75,0.43922,0.12941
19.768,0.40371,-0.15892,0.75391,0.42549,0.12353
19.776,0.41056,-0.15403,0.76562,0.40392,0.11961
19.784,0.41544,-0.14914,0.77539,0.3902,0.10392
19.792,0.4174,-0.14425,0.76953,0.37451,0.10392
19.8,0.4174,-0.13936,0.77539,0.3549,0.098039
19.808,0.41544,-0.13447,0.77539,0.34902,0.094118
19.816,0.41153,-0.12714,0.77539,0.33922,0.094118
19.824,0.40762,-0.12225,0.77539,0.33922,0.094118
19.832,0.40176,-0.11491,0.76953,0.3549,0.098039
19.84,0.39394,-0.10758,0.76562,0.37059,0.1098
19.848,0.38514,-0.10024,0.75,0.3902,0.12353
19.856,0.37634,-0.095355,0.75,0.4098,0.13333
19.864,0.36852,-0.08802,0.73047,0.43922,0.15882
19.872,0.35973,-0.07824,0.72461,0.4549,0.16863
19.88,0.35191,-0.070905,0.7207,0.47451,0.17843
19.888,0.34409,-0.061125,0.7207,0.48039,0.18431
19.896,0.33724,-0.05379,0.70508,0.5,0.19412
19.904,0.33138,-0.04401,0.70898,0.50588,0.18824
19.912,0.32649,-0.03423,0.71484,0.50588,0.19412
19.92,0.32356,-0.026895,0.70898,0.5098,0.19412
19.928,0.3216,-0.017115,0.71484,0.51961,0.19412
19.936,0.32063,-0.00978,0.7207,0.52549,0.18824
19.944,0.32063,-0.002445,0.72461,0.52941,0.18824
19.952,0.31965,0.00489,0.72461,0.52549,0.18431
19.96,0.31965,0.012225,0.73047,0.52941,0.17843
19.968,0.31769,0.017115,0.73438,0.52941,0.17451
19.976,0.31672,0.02445,0.74414,0.52549,0.17451
19.984,0.31476,0.02934,0.74414,0.52941,0.17451
19.992,0.31281,0.036675,0.75,0.52549,0.17451
20,0.31085,0.041565,0.74414,0.52941,0.17451
20.008,0.30792,0.0489,0.74414,0.53529,0.17451
20.016,0.30401,0.05379,0.73438,0.52941,0.17451
20.024,0.30205,0.05868,0.73047,0.52941,0.18431
20.032,0.3001,0.06357,0.72461,0.52941,0.17843
20.04,0.29717,0.06846,0.73047,0.52941,0.17451
20.048,0.29521,0.075795,0.74023,0.5451,0.16863
20.056,0.29326,0.08313,0.75,0.5451,0.16471
20.064,0.2913,0.08802,0.75977,0.5549,0.1549
20.072,0.2913,0.095355,0.77539,0.56078,0.14314
20.08,0.2913,0.10269,0.79492,0.57059,0.12941
20.088,0.29521,0.11002,0.79492,0.57059,0.12353
20.096,0.30303,0.11491,0.80469,0.56078,0.12353
20.104,0.31574,0.12225,0.79492,0.5451,0.12353
20.112,0.33627,0.12714,0.78906,0.53922,0.13333
20.12,0.35777,0.13203,0.77539,0.52941,0.13922
20.128,0.38221,0.13936,0.75,0.51961,0.1549
20.136,0.41642,0.1467,0.73438,0.51961,0.17451
20.144,0.45552,0.15159,0.7207,0.51961,0.18824
20.152,0.49756,0.15892,0.72461,0.51961,0.18824
20.16,0.53861,0.16381,0.72461,0.51961,0.18824
20.168,0.57576,0.17115,0.72461,0.51961,0.18431
20.176,0.60704,0.17604,0.71484,0.5098,0.19412
20.184,0.6305,0.18093,0.71484,0.51569,0.19412
20.192,0.64614,0.18582,0.70898,0.5098,0.19412
20.2,0.65494,0.19315,0.70508,0.52941,0.2
20.208,0.65689,0.19804,0.69922,0.62549,0.21373
20.216,0.65103,0.20293,0.81055,0.68627,0.14902
20.224,0.64027,0.20782,1.125,0.5451,-0.10588
20.232,0.62659,0.21271,1.4297,0.25882,-0.36667
20.24,0.60802,0.2176,1.4648,0.16471,-0.39804
20.248,0.58847,0.22249,1.0801,0.30392,-0.060784
20.256,0.56696,0.22738,0.82422,0.40392,0.13922
20.264,0.54741,0.23227,0.60938,0.43922,0.2902
20.272,0.52884,0.23472,0.48047,0.4098,0.37451
20.28,0.51026,0.23961,0.41992,0.35882,0.40392
20.288,0.49267,0.24205,0.44922,0.33529,0.37451
20.296,0.47605,0.24694,0.52539,0.37451,0.32353
20.304,0.45943,0.24939,0.60938,0.42549,0.25882
20.312,0.44477,0.25428,0.65039,0.47059,0.22941
20.32,0.43304,0.25672,0.67969,0.4902,0.2098
20.328,0.42326,0.25917,0.67969,0.5,0.20392
20.336,0.41251,0.26406,0.69922,0.49412,0.19412
20.344,0.40567,0.2665,0.70898,0.5,0.18824
20.352,0.40078,0.26895,0.70898,0.5,0.18824
20.36,0.39883,0.27139,0.70898,0.5,0.17843
20.368,0.3998,0.27628,0.7207,0.5,0.16863
20.376,0.40371,0.27873,0.72461,0.4902,0.16471
20.384,0.4086,0.28362,0.73047,0.48431,0.16863
20.392,0.41544,0.28606,0.73438,0.48039,0.1549
20.4,0.42424,0.29095,0.74414,0.47451,0.14902
20.408,0.43206,0.29584,0.74414,0.46471,0.14902
20.416,0.43988,0.30073,0.75,0.46078,0.13333
20.424,0.44575,0.30562,0.75977,0.44902,0.12353
20.432,0.45161,0.31051,0.75977,0.42941,0.12353
20.44,0.4565,0.31296,0.76953,0.4098,0.11961
20.448,0.45943,0.31785,0.77539,0.4,0.1098
20.456,0.46139,0.32274,0.7793,0.38039,0.098039
20.464,0.46041,0.32763,0.7793,0.35882,0.094118
20.472,0.45748,0.33007,0.78516,0.34902,0.088235
20.48,0.45357,0.33496,0.7793,0.3451,0.098039
20.488,0.4477,0.33985,0.78516,0.3451,0.094118
20.496,0.44086,0.3423,0.7793,0.3549,0.098039
20.504,0.43402,0.34719,0.7793,0.38039,0.098039
20.512,0.4262,0.35208,0.75977,0.3902,0.12353
20.52,0.41935,0.35697,0.75,0.41569,0.13922
20.528,0.41251,0.36186,0.73438,0.43529,0.1549
20.536,0.40665,0.36675,0.73047,0.44902,0.16863
20.544,0.40078,0.37164,0.7207,0.47451,0.17451
20.552,0.39589,0.37653,0.71484,0.48431,0.18431
20.56,0.39101,0.37897,0.70898,0.49412,0.18824
20.568,0.3871,0.38386,0.70508,0.5,0.19412
20.576,0.38319,0.38875,0.70898,0.5098,0.19412
20.584,0.38123,0.3912,0.7207,0.51569,0.18824
20.592,0.37928,0.39364,0.72461,0.51961,0.18824
20.6,0.3783,0.39853,0.7207,0.52549,0.18824
20.608,0.3783,0.40098,0.72461,0.52549,0.17843
20.616,0.37732,0.40342,0.72461,0.52549,0.18431
20.624,0.37732,0.40831,0.73047,0.52941,0.17451
20.632,0.37634,0.41076,0.73438,0.52941,0.17451
20.64,0.37537,0.4132,0.74023,0.53529,0.17451
20.648,0.37537,0.41565,0.73438,0.53529,0.17451
20.656,0.37341,0.41565,0.74414,0.53529,0.17451
20.664,0.37243,0.41809,0.74414,0.53529,0.16863
20.672,0.37048,0.41809,0.74414,0.53922,0.16863
20.68,0.3695,0.42054,0.74023,0.53529,0.17451
20.688,0.36657,0.42054,0.74023,0.52941,0.16471
20.696,0.36266,0.42054,0.74023,0.52941,0.16863
20.704,0.35875,0.42054,0.74414,0.53922,0.16471
20.712,0.35582,0.42054,0.75,0.5451,0.16471
20.72,0.35288,0.41809,0.75977,0.5549,0.1549
20.728,0.35191,0.41809,0.77539,0.57059,0.14902
20.736,0.35191,0.41565,0.78906,0.56471,0.13333
20.744,0.35288,0.4132,0.79492,0.57059,0.12353
20.752,0.35875,0.40831,0.80469,0.56471,0.11961
20.76,0.36852,0.40587,0.81445,0.5549,0.11373
20.768,0.38319,0.40098,0.79492,0.5451,0.12353
20.776,0.40469,0.39609,0.78516,0.53529,0.12941
20.784,0.43206,0.3912,0.76953,0.51961,0.13922
20.792,0.4653,0.38631,0.74023,0.51569,0.15882
20.8,0.50244,0.38142,0.7207,0.51961,0.17843
20.808,0.5435,0.37653,0.70898,0.51569,0.18824
20.816,0.57869,0.36919,0.69922,0.5098,0.19412
20.824,0.60802,0.3643,0.70898,0.50588,0.19412
20.832,0.63832,0.35697,0.70508,0.5,0.19412
20.84,0.66471,0.34963,0.70508,0.50588,0.19412
