Time [s], PLETH, RESP, II, V, AVR
0,0.565,1,0.070312,0.79608,0.78039
0.008,0.56891,1,0.070312,0.83137,0.78039
0.016,0.57185,1,0.060547,0.78627,0.7902
0.024,0.5738,1,0.035156,0.82549,0.80588
0.032,0.5738,1,0.015625,0.7902,0.80588
0.04,0.5738,1,0,0.82549,0.82549
0.048,0.5738,1,0,0.7902,0.82549
0.056,0.57185,1,-0.0039062,0.83137,0.82549
0.064,0.56891,1,-0.0039062,0.79608,0.83137
0.072,0.56696,1,0,0.83137,0.82549
0.08,0.56403,1,0,0.79608,0.82549
0.088,0.56109,1,0.0058594,0.83529,0.82549
0.096,0.55816,1,0.0058594,0.80588,0.82549
0.104,0.55523,1,0.0058594,0.85098,0.82549
0.112,0.5523,1,0.015625,0.81176,0.82157
0.12,0.54936,1,0.015625,0.84118,0.82157
0.128,0.54643,1,0.044922,0.8451,0.8
0.136,0.54154,1,0.17578,0.82549,0.72549
0.144,0.53568,1,0.43555,0.76667,0.57451
0.152,0.52981,1,0.86914,0.70588,0.33529
0.16,0.52297,1,1.0996,0.6,0.2098
0.168,0.51515,1,0.86914,0.56471,0.35882
0.176,0.50635,1,0.2207,0.6902,0.73137
0.184,0.49853,1,-0.24023,0.8,0.97647
0.192,0.49169,1,-0.25,0.83137,0.94706
0.2,0.48583,1,-0.10352,0.8,0.88627
0.208,0.47898,1,-0.035156,0.84118,0.84118
0.216,0.4741,1,-0.0097656,0.81176,0.83137
0.224,0.47214,1,0,0.85098,0.82549
0.232,0.47116,1,0.0058594,0.82549,0.81176
0.24,0.47019,0.99511,0.015625,0.86667,0.81176
0.248,0.47019,0.98925,0.015625,0.84118,0.80588
0.256,0.47019,0.9824,0.025391,0.87647,0.81569
0.264,0.47019,0.97654,0.03125,0.84118,0.80588
0.272,0.46823,0.97067,0.041016,0.88039,0.80588
0.28,0.46628,0.96481,0.041016,0.84118,0.80588
0.288,0.46334,0.95992,0.041016,0.87647,0.8
0.296,0.46041,0.95406,0.050781,0.83137,0.7902
0.304,0.4565,0.94819,0.060547,0.86667,0.78627
0.312,0.45259,0.94233,0.064453,0.82549,0.78039
0.32,0.44966,0.93548,0.076172,0.86078,0.77647
0.328,0.44673,0.92962,0.085938,0.82549,0.76667
0.336,0.44477,0.92278,0.095703,0.85098,0.77059
0.344,0.44282,0.91691,0.10547,0.85686,0.7549
0.352,0.44086,0.91202,0.11133,0.82157,0.7549
0.36,0.43891,0.90616,0.125,0.8451,0.75098
0.368,0.43793,0.89932,0.13086,0.8,0.7451
0.376,0.43695,0.89345,0.14062,0.83529,0.73529
0.384,0.435,0.88661,0.14453,0.79608,0.73137
0.392,0.43304,0.87977,0.14453,0.83137,0.73529
0.4,0.43011,0.87195,0.14453,0.80588,0.73137
0.408,0.42717,0.86413,0.14062,0.8451,0.73137
0.416,0.42522,0.8563,0.125,0.81569,0.73529
0.424,0.42326,0.84751,0.10547,0.85686,0.7549
0.432,0.42424,0.83969,0.085938,0.83137,0.76078
0.44,0.42522,0.83187,0.060547,0.88039,0.78039
0.448,0.4262,0.82405,0.035156,0.85686,0.8
0.456,0.42717,0.81623,0.015625,0.90196,0.81176
0.464,0.42717,0.80743,-0.0039062,0.88039,0.82549
0.472,0.4262,0.79863,-0.025391,0.92157,0.82549
0.48,0.42522,0.78886,-0.039062,0.8902,0.83529
0.488,0.42326,0.77908,-0.044922,0.94118,0.85098
0.496,0.42033,0.77028,-0.048828,0.90196,0.85098
0.504,0.41838,0.76051,-0.039062,0.94118,0.85098
0.512,0.41544,0.75269,-0.044922,0.90196,0.85686
0.52,0.41251,0.74389,-0.039062,0.94118,0.85098
0.528,0.41153,0.73607,-0.029297,0.90588,0.85098
0.536,0.41153,0.72727,-0.025391,0.93137,0.8451
0.544,0.41153,0.71945,-0.019531,0.90196,0.84118
0.552,0.41349,0.71163,-0.0097656,0.92549,0.83529
0.56,0.41447,0.70577,-0.0039062,0.8902,0.83137
0.568,0.41447,0.6999,0,0.88039,0.82549
0.576,0.41544,0.69599,0.0097656,0.91569,0.82549
0.584,0.41642,0.6911,0.0097656,0.87647,0.82549
0.592,0.41544,0.68915,0.015625,0.91569,0.82157
0.6,0.41447,0.68719,0.015625,0.87647,0.82157
0.608,0.41447,0.68622,0.019531,0.91176,0.81569
0.616,0.41447,0.68524,0.025391,0.87647,0.81176
0.624,0.41349,0.68622,0.025391,0.91176,0.81176
0.632,0.41447,0.68719,0.025391,0.87647,0.81176
0.64,0.41642,0.68915,0.03125,0.90588,0.81569
0.648,0.41838,0.6911,0.025391,0.87059,0.81176
0.656,0.42326,0.69306,0.03125,0.90588,0.81176
0.664,0.43011,0.69599,0.025391,0.86667,0.81569
0.672,0.44086,0.69795,0.025391,0.90196,0.81176
0.68,0.45455,0.6999,0.025391,0.87059,0.80588
0.688,0.47214,0.70186,0.035156,0.92157,0.81176
0.696,0.49462,0.70381,0.044922,0.88627,0.80588
0.704,0.51906,0.70479,0.044922,0.93137,0.80588
0.712,0.54252,0.70577,0.050781,0.8902,0.8
0.72,0.565,0.70381,0.060547,0.92549,0.79608
0.728,0.58358,0.70283,0.080078,0.89608,0.78627
0.736,0.59922,0.69795,0.089844,0.93137,0.78039
0.744,0.6129,0.69404,0.080078,0.8902,0.78627
0.752,0.62366,0.68817,0.076172,0.90588,0.78039
0.76,0.63148,0.68231,0.080078,0.87647,0.78039
0.768,0.63734,0.67449,0.076172,0.86667,0.78039
0.776,0.64027,0.66667,0.070312,0.90196,0.78627
0.784,0.64027,0.65591,0.054688,0.85098,0.78039
0.792,0.64027,0.64516,0.025391,0.90196,0.81176
0.8,0.64027,0.63245,0.0097656,0.86078,0.82157
0.808,0.6393,0.61877,-0.0039062,0.90588,0.83137
0.816,0.63832,0.60606,-0.0039062,0.86667,0.82549
0.824,0.63636,0.59335,-0.0039062,0.90196,0.82549
0.832,0.6305,0.58065,-0.0039062,0.87059,0.82549
0.84,0.62268,0.56794,-0.0039062,0.89608,0.82549
0.848,0.61779,0.55327,-0.0039062,0.86078,0.82549
0.856,0.61486,0.53959,-0.0039062,0.8902,0.82549
0.864,0.61193,0.52395,-0.0039062,0.8451,0.82549
0.872,0.61095,0.50831,0.0058594,0.88627,0.82157
0.88,0.60899,0.49169,0.0097656,0.85098,0.82549
0.888,0.60606,0.47507,0.015625,0.89608,0.82157
0.896,0.60411,0.45748,0.050781,0.87647,0.79608
0.904,0.6002,0.44086,0.18555,0.91176,0.72157
0.912,0.59531,0.42522,0.44531,0.84118,0.56471
0.92,0.58847,0.41056,0.86523,0.78627,0.32941
0.928,0.5826,0.39589,1.0645,0.6549,0.21961
0.936,0.57674,0.38221,0.79492,0.6451,0.39412
0.944,0.56989,0.36852,0.14453,0.7451,0.76667
0.952,0.56207,0.35386,-0.25,0.87059,0.98235
0.96,0.55523,0.3392,-0.19336,0.88039,0.94118
0.968,0.54839,0.32454,-0.089844,0.87059,0.88039
0.976,0.54154,0.31085,-0.029297,0.92157,0.8451
0.984,0.53568,0.29814,-0.0039062,0.8902,0.82549
0.992,0.53079,0.28641,0,0.93137,0.82549
1,0.52786,0.27468,0.0097656,0.89608,0.82157
1.008,0.52493,0.261,0.015625,0.93725,0.81176
1.016,0.52395,0.24829,0.025391,0.8902,0.80588
1.024,0.52297,0.23363,0.025391,0.93725,0.80588
1.032,0.52199,0.21994,0.035156,0.91176,0.80588
1.04,0.52102,0.20528,0.041016,0.94118,0.8
1.048,0.51808,0.19062,0.050781,0.90588,0.79608
1.056,0.51515,0.17498,0.054688,0.94118,0.79608
1.064,0.51222,0.16031,0.064453,0.90196,0.7902
1.072,0.50929,0.14761,0.064453,0.93137,0.78627
1.08,0.50635,0.1349,0.076172,0.8902,0.78039
1.088,0.5044,0.12414,0.089844,0.92157,0.78039
1.096,0.50244,0.11339,0.099609,0.87647,0.76667
1.104,0.50049,0.10264,0.10547,0.90588,0.76078
1.112,0.49853,0.091887,0.11133,0.86667,0.7549
1.12,0.49462,0.081134,0.12109,0.89608,0.7549
1.128,0.49071,0.071359,0.13086,0.85686,0.75098
1.136,0.48778,0.062561,0.13477,0.8902,0.74118
1.144,0.48289,0.054741,0.15039,0.85686,0.73137
1.152,0.47898,0.047898,0.15625,0.85098,0.72549
1.16,0.4741,0.041056,0.15625,0.8902,0.73137
1.168,0.46921,0.034213,0.16016,0.85098,0.72157
1.176,0.4653,0.02737,0.15039,0.8902,0.73137
1.184,0.46139,0.020528,0.13477,0.85098,0.73137
1.192,0.45943,0.013685,0.11133,0.90196,0.7451
1.2,0.45846,0.0068426,0.089844,0.86667,0.7549
1.208,0.45846,0,0.064453,0.90588,0.77647
1.216,0.45846,0,0.041016,0.87647,0.7902
1.224,0.45943,0,0.019531,0.92157,0.80588
1.232,0.45846,0,0,0.89608,0.81569
1.24,0.45846,0,-0.0039062,0.92549,0.81569
1.248,0.45846,0,-0.013672,0.90588,0.82549
1.256,0.45748,0,-0.025391,0.94118,0.83529
1.264,0.45552,0,-0.019531,0.90196,0.83529
1.272,0.45357,0,-0.025391,0.94118,0.84118
1.28,0.45161,0,-0.025391,0.90196,0.83529
1.288,0.44966,0,-0.019531,0.93137,0.83529
1.296,0.44966,0,-0.0097656,0.88627,0.83137
1.304,0.44966,0,-0.0039062,0.92549,0.83137
1.312,0.44966,0,-0.0039062,0.8902,0.82549
1.32,0.44966,0,0,0.93137,0.82549
1.328,0.44868,0,0.015625,0.88627,0.81569
1.336,0.4477,0,0.015625,0.92157,0.82157
1.344,0.44575,0,0.019531,0.88627,0.81569
1.352,0.44379,0,0.025391,0.88039,0.81176
1.36,0.44184,0,0.041016,0.91176,0.80588
1.368,0.43891,0,0.041016,0.88039,0.80588
1.376,0.43695,0,0.041016,0.91569,0.80588
1.384,0.43402,0,0.041016,0.87647,0.80588
1.392,0.43304,0,0.041016,0.91569,0.80588
1.4,0.43402,0,0.041016,0.87059,0.80588
1.408,0.435,0,0.041016,0.91176,0.80588
1.416,0.43793,0,0.041016,0.87647,0.80588
1.424,0.44184,0,0.041016,0.91176,0.80588
1.432,0.4477,0,0.035156,0.87059,0.80588
1.44,0.45748,0,0.03125,0.90196,0.81176
1.448,0.46921,0,0.03125,0.87059,0.80588
1.456,0.48387,0.0039101,0.035156,0.90196,0.80588
1.464,0.50049,0.0087977,0.041016,0.87059,0.80588
1.472,0.51906,0.013685,0.044922,0.92157,0.80588
1.48,0.53763,0.01955,0.054688,0.8902,0.8
1.488,0.55523,0.02346,0.054688,0.92549,0.79608
1.496,0.57185,0.02737,0.064453,0.88627,0.78627
1.504,0.58651,0.030303,0.080078,0.93137,0.78039
1.512,0.59922,0.032258,0.089844,0.89608,0.78039
1.52,0.60997,0.032258,0.085938,0.92549,0.77647
1.528,0.61584,0.033236,0.085938,0.87647,0.78039
1.536,0.61975,0.031281,0.085938,0.90196,0.77059
1.544,0.62072,0.029326,0.080078,0.85686,0.77059
1.552,0.6217,0.02737,0.076172,0.87647,0.77647
1.56,0.6217,0.024438,0.060547,0.8451,0.78627
1.568,0.62072,0.021505,0.035156,0.87647,0.80588
1.576,0.62072,0.018573,0.015625,0.88627,0.81569
1.584,0.61975,0.013685,0.0097656,0.84118,0.82157
1.592,0.61975,0.0078201,0,0.88039,0.82549
1.6,0.61975,0.0039101,-0.0039062,0.84118,0.82157
1.608,0.61779,0,-0.0039062,0.88627,0.82549
1.616,0.61681,0,-0.0039062,0.84118,0.82549
1.624,0.61486,0,-0.0039062,0.87647,0.82549
1.632,0.61193,0,0.0058594,0.84118,0.81569
1.64,0.61095,0,0.0058594,0.87059,0.82157
1.648,0.60997,0,0.0097656,0.84118,0.81569
1.656,0.60899,0,0.015625,0.87647,0.81569
1.664,0.60802,0,0.019531,0.85098,0.81176
1.672,0.60508,0,0.035156,0.90196,0.80588
1.68,0.59922,0,0.15039,0.86667,0.74118
1.688,0.59335,0,0.35547,0.87059,0.61961
1.696,0.58553,0,0.74414,0.76078,0.3902
1.704,0.57674,0,1.0703,0.68039,0.2098
1.712,0.56696,0,0.91016,0.6098,0.31373
1.72,0.55816,0,0.37109,0.72549,0.63529
1.728,0.55034,0,-0.20508,0.80588,0.95686
1.736,0.5435,0,-0.26367,0.86667,0.98627
1.744,0.53861,0,-0.11523,0.85098,0.89608
1.752,0.53275,0,-0.039062,0.89608,0.85098
1.76,0.52786,0,-0.0039062,0.87059,0.82549
1.768,0.52297,0,0.0058594,0.90588,0.82157
1.776,0.51906,0,0.015625,0.91176,0.81569
1.784,0.51711,0,0.015625,0.87647,0.81176
1.792,0.51613,0,0.025391,0.91569,0.81176
1.8,0.51613,0,0.03125,0.88627,0.80588
1.808,0.51515,0,0.041016,0.94118,0.80588
1.816,0.5132,0,0.041016,0.90196,0.79608
1.824,0.51222,0,0.050781,0.94706,0.79608
1.832,0.51124,0,0.054688,0.91176,0.79608
1.84,0.50929,0,0.060547,0.94118,0.78627
1.848,0.50733,0,0.064453,0.89608,0.78039
1.856,0.5044,0,0.070312,0.91569,0.78039
1.864,0.50147,0,0.085938,0.87059,0.77647
1.872,0.49756,0,0.089844,0.89608,0.76667
1.88,0.49365,0,0.10547,0.85098,0.7549
1.888,0.48876,0,0.11133,0.87647,0.7549
1.896,0.48387,0,0.11523,0.83529,0.75098
1.904,0.47898,0,0.125,0.87647,0.74118
1.912,0.4741,0,0.13477,0.82549,0.73529
1.92,0.46921,0,0.14062,0.86078,0.73137
1.928,0.4653,0,0.14453,0.81569,0.73137
1.936,0.46139,0,0.15625,0.8451,0.72549
1.944,0.45943,0,0.15039,0.80588,0.72157
1.952,0.4565,0,0.14453,0.83529,0.72549
1.96,0.45357,0,0.13086,0.81176,0.73529
1.968,0.45161,0,0.11133,0.84118,0.74118
1.976,0.45064,0,0.089844,0.85098,0.75098
1.984,0.45064,0,0.064453,0.81176,0.76667
1.992,0.45064,0,0.041016,0.86078,0.78039
2,0.44966,0,0.019531,0.83137,0.8
2.008,0.44868,0,-0.0039062,0.87647,0.80588
2.016,0.4477,0,-0.013672,0.8451,0.82157
2.024,0.44673,0,-0.029297,0.8902,0.82549
2.032,0.44477,0,-0.029297,0.85098,0.83529
2.04,0.44379,0,-0.029297,0.8902,0.84118
2.048,0.44282,0,-0.029297,0.8451,0.83529
2.056,0.44086,0,-0.025391,0.87647,0.84118
2.064,0.43988,0,-0.029297,0.85098,0.84118
2.072,0.43988,0,-0.019531,0.88039,0.8451
2.08,0.43891,0,-0.013672,0.84118,0.83137
2.088,0.43793,0,-0.0039062,0.87059,0.83137
2.096,0.43793,0,-0.0039062,0.82549,0.83137
2.104,0.43695,0,0.0058594,0.86667,0.82157
2.112,0.435,0,0.015625,0.82549,0.81569
2.12,0.43402,0,0.015625,0.85686,0.81569
2.128,0.43206,0,0.015625,0.82157,0.82157
2.136,0.43109,0,0.025391,0.86078,0.81176
2.144,0.42913,0,0.019531,0.82549,0.81569
2.152,0.4262,0,0.03125,0.86078,0.81176
2.16,0.42424,0,0.035156,0.83529,0.80588
2.168,0.42229,0,0.041016,0.83137,0.80588
2.176,0.42131,0,0.041016,0.86078,0.79608
2.184,0.42229,0,0.044922,0.82549,0.8
2.192,0.42424,0,0.041016,0.86667,0.80588
2.2,0.42815,0,0.041016,0.82549,0.80588
2.208,0.43597,0.0058651,0.03125,0.87647,0.81176
2.216,0.44673,0.012708,0.03125,0.83137,0.81176
2.224,0.45748,0.022483,0.035156,0.87647,0.80588
2.232,0.46921,0.032258,0.041016,0.84118,0.80588
2.24,0.48387,0.041056,0.041016,0.8902,0.8
2.248,0.50049,0.050831,0.050781,0.85686,0.7902
2.256,0.51808,0.059629,0.064453,0.8902,0.78627
2.264,0.5347,0.068426,0.064453,0.86078,0.78627
2.272,0.54839,0.075269,0.070312,0.89608,0.78039
2.28,0.56207,0.083089,0.089844,0.86078,0.76667
2.288,0.57478,0.088954,0.095703,0.89608,0.76667
2.296,0.58553,0.094819,0.089844,0.8451,0.77647
2.304,0.59531,0.098729,0.089844,0.87059,0.77647
2.312,0.60215,0.10264,0.089844,0.81176,0.77059
2.32,0.60802,0.10459,0.080078,0.84118,0.77647
2.328,0.61095,0.10655,0.076172,0.7902,0.78039
2.336,0.61193,0.10753,0.064453,0.82549,0.78039
2.344,0.61193,0.10753,0.035156,0.79608,0.80588
2.352,0.6129,0.1085,0.019531,0.83137,0.81176
2.36,0.6129,0.1085,0.0058594,0.79608,0.82157
2.368,0.6129,0.1085,-0.0039062,0.82549,0.82549
2.376,0.6129,0.1085,-0.0039062,0.79608,0.83137
2.384,0.61193,0.1085,0,0.82157,0.83137
2.392,0.61095,0.10948,0,0.82549,0.82157
2.4,0.61095,0.10948,-0.0039062,0.78627,0.82549
2.408,0.60997,0.10948,-0.0039062,0.82549,0.82549
2.416,0.60802,0.11046,0,0.78039,0.82549
2.424,0.60606,0.11144,0.0058594,0.82549,0.82549
2.432,0.60411,0.11339,0.015625,0.78039,0.82157
2.44,0.60117,0.11535,0.015625,0.81176,0.81176
2.448,0.59922,0.11926,0.041016,0.77647,0.8
2.456,0.59629,0.12219,0.15625,0.81569,0.73529
2.464,0.5914,0.12708,0.375,0.71569,0.6098
2.472,0.58553,0.13196,0.7793,0.66471,0.37059
2.48,0.57869,0.13881,1.0703,0.52549,0.21373
2.488,0.57185,0.14467,0.86523,0.56471,0.34902
2.496,0.565,0.15152,0.31055,0.61569,0.67647
2.504,0.55621,0.15836,-0.24414,0.7549,0.97647
2.512,0.54741,0.1652,-0.2793,0.72549,0.99608
2.52,0.53959,0.17204,-0.12891,0.77647,0.90196
2.528,0.53275,0.17889,-0.039062,0.73529,0.8451
2.536,0.52786,0.18573,-0.0097656,0.77647,0.83137
2.544,0.52297,0.19257,-0.0039062,0.73529,0.82157
2.552,0.51808,0.19941,0.0058594,0.77059,0.82157
2.56,0.5132,0.20723,0.015625,0.73529,0.81569
2.568,0.50831,0.21505,0.025391,0.76667,0.80588
2.576,0.50538,0.22092,0.03125,0.77059,0.80588
2.584,0.50244,0.22776,0.041016,0.7451,0.80588
2.592,0.49951,0.23363,0.041016,0.77647,0.8
2.6,0.49658,0.23949,0.041016,0.73137,0.8
2.608,0.49365,0.24536,0.041016,0.76078,0.80588
2.616,0.49169,0.25122,0.050781,0.72157,0.79608
2.624,0.48778,0.25806,0.054688,0.75098,0.7902
2.632,0.48485,0.26393,0.064453,0.70588,0.78627
2.64,0.48094,0.27175,0.064453,0.73529,0.78039
2.648,0.47605,0.27957,0.080078,0.68627,0.77647
2.656,0.47116,0.28837,0.089844,0.71569,0.76667
2.664,0.46628,0.29619,0.095703,0.67647,0.76667
2.672,0.46237,0.30499,0.11133,0.70588,0.7549
2.68,0.45943,0.31378,0.11523,0.66078,0.75098
2.688,0.45748,0.3216,0.125,0.68627,0.7451
2.696,0.45552,0.3304,0.13477,0.64118,0.73137
2.704,0.45357,0.34018,0.14453,0.67647,0.73137
2.712,0.45259,0.34995,0.14062,0.62549,0.73137
2.72,0.45064,0.36168,0.15039,0.66471,0.72549
2.728,0.44966,0.37341,0.14453,0.62941,0.72549
2.736,0.4477,0.38416,0.13477,0.68039,0.73137
2.744,0.44575,0.39492,0.11133,0.65098,0.75098
2.752,0.44379,0.40469,0.089844,0.69608,0.76078
2.76,0.44184,0.41544,0.064453,0.67059,0.77647
2.768,0.43891,0.4262,0.041016,0.7098,0.78627
2.776,0.43695,0.43793,0.015625,0.69608,0.80588
2.784,0.43402,0.45064,0,0.72549,0.81569
2.792,0.43206,0.46334,-0.0039062,0.70588,0.81176
2.8,0.42913,0.47605,-0.029297,0.74118,0.83529
2.808,0.42717,0.48876,-0.039062,0.7549,0.8451
2.816,0.42424,0.50244,-0.035156,0.71569,0.8451
2.824,0.42229,0.51515,-0.039062,0.76667,0.85098
2.832,0.42131,0.52786,-0.044922,0.72157,0.84118
2.84,0.41935,0.54057,-0.044922,0.76667,0.85098
2.848,0.4174,0.5523,-0.029297,0.72549,0.8451
2.856,0.41447,0.56403,-0.019531,0.76078,0.83137
2.864,0.41251,0.57771,-0.019531,0.72549,0.83137
2.872,0.40958,0.59238,-0.025391,0.75098,0.83529
2.88,0.3998,0.60704,-0.0097656,0.71569,0.82549
2.888,0.38514,0.62268,-0.013672,0.7451,0.83529
2.896,0.37634,0.63832,-0.0039062,0.70588,0.82549
2.904,0.37048,0.65396,0,0.7451,0.82549
2.912,0.36559,0.66862,0.015625,0.70588,0.81569
2.92,0.36168,0.68426,0.0097656,0.7451,0.82157
2.928,0.35875,0.70283,0.015625,0.69608,0.81569
2.936,0.35679,0.72239,0.019531,0.73529,0.81176
2.944,0.35386,0.74389,0.019531,0.69608,0.82157
2.952,0.35191,0.7654,0.025391,0.7451,0.81176
2.96,0.35093,0.78788,0.03125,0.70588,0.80588
2.968,0.35093,0.81134,0.025391,0.73529,0.8
2.976,0.35386,0.83578,0.03125,0.74118,0.81176
2.984,0.3607,0.85924,0.03125,0.70588,0.80588
2.992,0.37243,0.88074,0.025391,0.74118,0.81176
3,0.3871,0.90225,0.035156,0.7098,0.80588
3.008,0.40469,0.92082,0.041016,0.7451,0.7902
3.016,0.42522,0.93939,0.050781,0.7098,0.79608
3.024,0.44379,0.95699,0.041016,0.76667,0.80588
3.032,0.46139,0.97458,0.064453,0.72549,0.7902
3.04,0.48094,0.98729,0.064453,0.77059,0.79608
3.048,0.50049,1,0.085938,0.74118,0.78039
3.056,0.51711,1,0.085938,0.77647,0.78039
3.064,0.53177,1,0.080078,0.71569,0.77647
3.072,0.5435,1,0.076172,0.7451,0.78627
3.08,0.5523,1,0.076172,0.69608,0.78039
3.088,0.55816,1,0.076172,0.72157,0.78039
3.096,0.56305,1,0.070312,0.67647,0.78039
3.104,0.56696,1,0.041016,0.71569,0.8
3.112,0.56891,1,0.025391,0.67647,0.81176
3.12,0.56989,1,0.015625,0.7098,0.80588
3.128,0.57185,1,-0.0039062,0.67647,0.82157
3.136,0.57283,1,-0.0039062,0.71569,0.82549
3.144,0.5738,1,-0.0097656,0.68039,0.83137
3.152,0.57283,1,-0.0039062,0.71569,0.82549
3.16,0.57185,1,-0.0039062,0.68039,0.82157
3.168,0.56989,1,-0.0039062,0.71569,0.82157
3.176,0.56696,1,-0.0039062,0.67647,0.82549
3.184,0.56403,1,0,0.70588,0.82549
3.192,0.56207,1,0,0.7098,0.82549
3.2,0.55914,1,0.0058594,0.67059,0.81569
3.208,0.55621,1,0.0097656,0.7098,0.82157
3.216,0.5523,1,0.080078,0.72157,0.78627
3.224,0.54741,1,0.24609,0.67059,0.68039
3.232,0.54252,1,0.60547,0.60588,0.47451
3.24,0.5347,1,1.0391,0.50588,0.23333
3.248,0.52786,1,1.125,0.4451,0.18824
3.256,0.52199,1,0.6543,0.51961,0.48431
3.264,0.51515,1,-0.054688,0.61569,0.87647
3.272,0.50831,1,-0.27344,0.69608,0.98627
3.28,0.50049,1,-0.18359,0.67059,0.93725
3.288,0.49071,1,-0.080078,0.73137,0.87059
3.296,0.48094,1,-0.013672,0.7,0.83137
3.304,0.47214,1,-0.0039062,0.7451,0.82157
3.312,0.46432,1,0,0.7098,0.82157
3.32,0.45846,1,0.0097656,0.7549,0.81569
3.328,0.45259,1,0.015625,0.72157,0.80588
3.336,0.44868,1,0.015625,0.77059,0.81176
3.344,0.44575,1,0.025391,0.73137,0.80588
3.352,0.44379,1,0.03125,0.7549,0.80588
3.36,0.44282,1,0.035156,0.72549,0.8
3.368,0.44282,1,0.041016,0.75098,0.8
3.376,0.44086,1,0.050781,0.71569,0.79608
3.384,0.43891,1,0.060547,0.74118,0.7902
3.392,0.43695,1,0.064453,0.70588,0.7902
3.4,0.435,1,0.070312,0.7,0.78039
3.408,0.43206,1,0.080078,0.73529,0.77647
3.416,0.42913,1,0.089844,0.69608,0.77059
3.424,0.42717,1,0.099609,0.73529,0.76078
3.432,0.4262,1,0.10547,0.69608,0.7549
3.44,0.42326,1,0.11133,0.74118,0.7549
3.448,0.42131,1,0.125,0.7,0.7451
3.456,0.41838,1,0.13477,0.74118,0.7451
3.464,0.41544,1,0.14062,0.7098,0.73137
3.472,0.41251,1,0.15039,0.7451,0.72549
3.48,0.40958,1,0.16016,0.71569,0.72549
3.488,0.40762,1,0.15625,0.75098,0.73137
3.496,0.40469,1,0.14062,0.72157,0.72549
3.504,0.40176,1,0.125,0.77059,0.74118
3.512,0.39883,1,0.10547,0.7451,0.7451
3.52,0.39687,1,0.089844,0.7902,0.7549
3.528,0.39492,1,0.064453,0.7549,0.77059
3.536,0.39296,1,0.041016,0.80588,0.7902
3.544,0.39003,1,0.015625,0.77059,0.8
3.552,0.3871,1,-0.0039062,0.82549,0.82157
3.56,0.38514,1,-0.019531,0.7902,0.82549
3.568,0.38221,1,-0.029297,0.83529,0.84118
3.576,0.37928,1,-0.039062,0.80588,0.8451
3.584,0.37732,1,-0.035156,0.83529,0.8451
3.592,0.37537,1,-0.035156,0.8451,0.8451
3.6,0.37341,1,-0.029297,0.81569,0.8451
3.608,0.37243,1,-0.029297,0.85098,0.84118
3.616,0.37048,1,-0.029297,0.82157,0.8451
3.624,0.37048,1,-0.019531,0.86078,0.84118
3.632,0.3695,1,-0.019531,0.83137,0.8451
3.64,0.36852,1,-0.0097656,0.87059,0.83529
3.648,0.36755,1,-0.0097656,0.82157,0.83137
3.656,0.36755,1,-0.0039062,0.86667,0.83529
3.664,0.36657,1,-0.0039062,0.82549,0.83529
3.672,0.36461,1,0.0097656,0.87059,0.82549
3.68,0.36461,1,0.015625,0.82549,0.82157
3.688,0.36364,1,0.015625,0.86078,0.82549
3.696,0.36168,1,0.019531,0.83137,0.82157
3.704,0.35875,1,0.025391,0.86078,0.82157
3.712,0.35777,1,0.03125,0.81569,0.80588
3.72,0.35875,1,0.03125,0.85098,0.81176
3.728,0.3607,1,0.035156,0.81176,0.80588
3.736,0.36266,1,0.03125,0.8451,0.8
3.744,0.36657,1,0.025391,0.80588,0.80588
3.752,0.37439,1,0.03125,0.85098,0.80588
3.76,0.38612,1,0.025391,0.80588,0.81176
3.768,0.40274,1,0.03125,0.85098,0.80588
3.776,0.42229,1,0.041016,0.82549,0.80588
3.784,0.44477,1,0.041016,0.86078,0.80588
3.792,0.46823,1,0.041016,0.86667,0.80588
3.8,0.49071,1,0.041016,0.84118,0.80588
3.808,0.51222,1,0.054688,0.88039,0.78627
3.816,0.53275,1,0.064453,0.85098,0.78627
3.824,0.54936,1,0.085938,0.90196,0.78039
3.832,0.56207,1,0.076172,0.85098,0.78039
3.84,0.57576,1,0.070312,0.87647,0.78627
3.848,0.58651,1,0.076172,0.83137,0.77647
3.856,0.59531,1,0.070312,0.85098,0.77647
3.864,0.60117,1,0.064453,0.8,0.78039
3.872,0.60508,1,0.054688,0.84118,0.79608
3.88,0.60802,1,0.025391,0.8,0.80588
3.888,0.60997,1,0.015625,0.83529,0.82157
3.896,0.60997,1,0.0058594,0.80588,0.82549
3.904,0.61095,1,-0.0039062,0.83137,0.83137
3.912,0.61095,1,-0.0097656,0.78627,0.82549
3.92,0.61095,1,-0.0039062,0.83137,0.82549
3.928,0.61095,1,-0.0097656,0.79608,0.83137
3.936,0.61095,1,-0.0039062,0.8451,0.82549
3.944,0.61095,1,-0.0039062,0.80588,0.83137
3.952,0.60997,1,0,0.8451,0.82549
3.96,0.60802,1,0,0.8,0.82157
3.968,0.60606,1,0.0058594,0.8451,0.82157
3.976,0.60313,1,0.0097656,0.81176,0.82549
3.984,0.60117,1,0.0058594,0.85686,0.81569
3.992,0.59824,1,0.13086,0.86078,0.7549
4,0.59433,1,0.33984,0.80588,0.63529
4.008,0.58749,1,0.74023,0.71569,0.4
4.016,0.58065,1,1.0898,0.61569,0.21373
4.024,0.57283,1,0.94922,0.5549,0.30392
4.032,0.56598,0.99804,0.41602,0.62549,0.61961
4.04,0.55816,0.99707,-0.17969,0.76667,0.94706
4.048,0.55034,0.98827,-0.25,0.79608,0.98235
4.056,0.54154,0.98045,-0.12891,0.83137,0.90196
4.064,0.5347,0.97263,-0.054688,0.81176,0.85686
4.072,0.52884,0.96481,-0.019531,0.86078,0.82549
4.08,0.52493,0.95601,-0.0039062,0.83137,0.82549
4.088,0.52297,0.94819,0.0058594,0.86667,0.82157
4.096,0.52199,0.93939,0.0097656,0.83529,0.81176
4.104,0.52199,0.93157,0.015625,0.87059,0.81569
4.112,0.52102,0.92375,0.019531,0.83529,0.81176
4.12,0.52102,0.91593,0.025391,0.87647,0.80588
4.128,0.52102,0.90811,0.03125,0.83529,0.8
4.136,0.52102,0.90029,0.041016,0.87059,0.8
4.144,0.52004,0.89052,0.041016,0.83137,0.79608
4.152,0.51808,0.88074,0.044922,0.87059,0.79608
4.16,0.51711,0.86999,0.060547,0.82549,0.78627
4.168,0.51515,0.85924,0.064453,0.86667,0.78039
4.176,0.5132,0.84946,0.076172,0.82157,0.78039
4.184,0.51124,0.83969,0.085938,0.8451,0.77647
4.192,0.50929,0.83089,0.089844,0.81569,0.76667
4.2,0.50538,0.82209,0.095703,0.8451,0.76078
4.208,0.50147,0.81232,0.10547,0.82157,0.76078
4.216,0.49658,0.80352,0.11523,0.80588,0.7549
4.224,0.49267,0.79374,0.13086,0.8451,0.7451
4.232,0.48974,0.78397,0.13477,0.80588,0.73529
4.24,0.48583,0.77322,0.14453,0.8451,0.73137
4.248,0.48289,0.76344,0.15625,0.8,0.72157
4.256,0.47898,0.75367,0.15039,0.8451,0.73137
4.264,0.47507,0.74389,0.15039,0.81176,0.72549
4.272,0.47116,0.73412,0.13477,0.85098,0.73137
4.28,0.46628,0.72532,0.12109,0.81569,0.74118
4.288,0.46237,0.71652,0.099609,0.86078,0.7549
4.296,0.45846,0.70772,0.076172,0.84118,0.77059
4.304,0.45455,0.69795,0.054688,0.8902,0.78039
4.312,0.45064,0.68719,0.025391,0.86078,0.8
4.32,0.44673,0.67644,0.0097656,0.90588,0.81176
4.328,0.44477,0.66569,-0.0039062,0.87647,0.82157
4.336,0.44184,0.65494,-0.013672,0.90196,0.82549
4.344,0.43891,0.64418,-0.025391,0.86667,0.83137
4.352,0.43695,0.63343,-0.029297,0.91569,0.84118
4.36,0.43597,0.62366,-0.035156,0.87647,0.85098
4.368,0.43597,0.61095,-0.035156,0.91569,0.8451
4.376,0.43597,0.59922,-0.029297,0.88039,0.85098
4.384,0.435,0.58651,-0.029297,0.91176,0.85098
4.392,0.435,0.5738,-0.029297,0.87647,0.8451
4.4,0.43402,0.56207,-0.019531,0.87059,0.8451
4.408,0.43206,0.54936,-0.013672,0.90196,0.84118
4.416,0.43109,0.53861,-0.0039062,0.86667,0.83137
4.424,0.43011,0.52786,-0.0039062,0.89608,0.82549
4.432,0.43011,0.51906,0.0058594,0.85098,0.82549
4.44,0.42913,0.50929,0.0097656,0.90588,0.82549
4.448,0.42913,0.50244,0.015625,0.87059,0.82157
4.456,0.42815,0.49462,0.019531,0.91176,0.81569
4.464,0.4262,0.48876,0.025391,0.87647,0.82157
4.472,0.4262,0.48387,0.03125,0.91569,0.80588
4.48,0.4262,0.47996,0.041016,0.88039,0.80588
4.488,0.4262,0.47605,0.035156,0.91176,0.8
4.496,0.42815,0.4741,0.03125,0.87647,0.80588
4.504,0.43109,0.47116,0.03125,0.91176,0.80588
4.512,0.43597,0.47019,0.025391,0.88039,0.80588
4.52,0.44184,0.46921,0.025391,0.91569,0.81176
4.528,0.44966,0.46725,0.03125,0.88039,0.80588
4.536,0.46237,0.46628,0.025391,0.92157,0.80588
4.544,0.47898,0.4653,0.035156,0.88627,0.8
4.552,0.49756,0.46432,0.041016,0.93725,0.80588
4.56,0.51808,0.46139,0.044922,0.89608,0.8
4.568,0.53959,0.45748,0.044922,0.94118,0.8
4.576,0.56109,0.45259,0.054688,0.90588,0.7902
4.584,0.58065,0.44868,0.070312,0.94706,0.78627
4.592,0.59824,0.44282,0.085938,0.92549,0.77647
4.6,0.6129,0.43695,0.076172,0.95098,0.78039
4.608,0.62561,0.43109,0.070312,0.92549,0.78039
4.616,0.63539,0.42424,0.076172,0.94118,0.78039
4.624,0.64125,0.41544,0.070312,0.91176,0.77647
4.632,0.64516,0.40762,0.070312,0.89608,0.78039
4.64,0.65005,0.39687,0.060547,0.93137,0.78039
4.648,0.65298,0.38612,0.041016,0.88627,0.80588
4.656,0.65396,0.37439,0.019531,0.92549,0.81569
4.664,0.65494,0.36364,0.0058594,0.88039,0.82549
4.672,0.65591,0.35191,0,0.91569,0.82549
4.68,0.65591,0.34018,0,0.88627,0.82157
4.688,0.65591,0.32649,-0.0039062,0.92549,0.82549
4.696,0.65591,0.31281,-0.0039062,0.8902,0.83137
4.704,0.65591,0.29814,0,0.91569,0.82549
4.712,0.65591,0.28348,0,0.87647,0.81569
4.72,0.65494,0.26882,0,0.91176,0.82157
4.728,0.65396,0.25318,0.0058594,0.87647,0.82157
4.736,0.65298,0.23851,0.015625,0.91569,0.82157
4.744,0.65005,0.22385,0.015625,0.87059,0.81569
4.752,0.64614,0.21114,0.025391,0.92549,0.81176
4.76,0.64125,0.19941,0.125,0.88627,0.7549
4.768,0.63539,0.18866,0.32031,0.87647,0.64118
4.776,0.62854,0.17889,0.68555,0.7902,0.42549
4.784,0.62072,0.16911,1.0449,0.7,0.22353
4.792,0.61193,0.15934,0.93555,0.61569,0.3
4.8,0.60411,0.14956,0.48047,0.70588,0.57451
4.808,0.59531,0.13978,-0.14844,0.81569,0.92549
4.816,0.58749,0.13099,-0.24414,0.86667,0.97647
4.824,0.58065,0.12317,-0.125,0.88627,0.89608
4.832,0.57283,0.11535,-0.044922,0.86667,0.85098
4.84,0.56403,0.10753,-0.0039062,0.91569,0.82549
4.848,0.55621,0.098729,0,0.87647,0.82157
4.856,0.54741,0.090909,0.0097656,0.92157,0.81176
4.864,0.53959,0.081134,0.015625,0.88627,0.80588
4.872,0.53275,0.072336,0.019531,0.92549,0.80588
4.88,0.52884,0.062561,0.03125,0.8902,0.80588
4.888,0.5259,0.052786,0.035156,0.93725,0.8
4.896,0.52493,0.043011,0.035156,0.90588,0.8
4.904,0.52395,0.032258,0.044922,0.93725,0.79608
4.912,0.52395,0.02346,0.050781,0.90196,0.79608
4.92,0.52395,0.01564,0.064453,0.93725,0.78627
4.928,0.52199,0.0078201,0.064453,0.8902,0.78039
4.936,0.52004,0,0.080078,0.92157,0.77647
4.944,0.51808,0,0.085938,0.86667,0.77059
4.952,0.51515,0,0.089844,0.90196,0.76667
4.96,0.5132,0,0.089844,0.85686,0.76078
4.968,0.50929,0,0.11133,0.8902,0.7549
4.976,0.50538,0,0.12109,0.85098,0.7451
4.984,0.50049,0,0.13086,0.88627,0.74118
4.992,0.49658,0,0.13477,0.8451,0.73529
5,0.49169,0,0.14453,0.87059,0.73137
5.008,0.4868,0,0.16016,0.84118,0.71569
5.016,0.48289,0,0.16016,0.83529,0.72157
5.024,0.47898,0,0.16602,0.87059,0.72157
5.032,0.47605,0,0.15625,0.83137,0.72157
5.04,0.47312,0,0.14453,0.86667,0.72157
5.048,0.47214,0,0.13086,0.82549,0.73137
5.056,0.46921,0,0.099609,0.87647,0.7549
5.064,0.46823,0,0.076172,0.8451,0.76667
5.072,0.46628,0,0.050781,0.8902,0.78039
5.08,0.46432,0,0.035156,0.85686,0.7902
5.088,0.46041,0,0.015625,0.90588,0.80588
5.096,0.4565,0,-0.0039062,0.88039,0.81176
5.104,0.45259,0,-0.013672,0.92549,0.82549
5.112,0.44966,0,-0.019531,0.8902,0.83137
5.12,0.4477,0,-0.029297,0.93725,0.8451
5.128,0.44673,0,-0.029297,0.8902,0.83529
5.136,0.44673,0,-0.029297,0.93137,0.8451
5.144,0.44575,0,-0.019531,0.8902,0.83529
5.152,0.44575,0,-0.019531,0.92549,0.84118
5.16,0.44575,0,-0.019531,0.88627,0.83529
5.168,0.44379,0,-0.0097656,0.92549,0.83529
5.176,0.44184,0,-0.0039062,0.87647,0.82549
5.184,0.43988,0,-0.0039062,0.91176,0.82549
5.192,0.43793,0,0.0058594,0.87647,0.82549
5.2,0.43597,0,0.0058594,0.90588,0.82549
5.208,0.43304,0,0.0097656,0.88039,0.82157
5.216,0.43206,0,0.015625,0.87647,0.81569
5.224,0.43011,0,0.019531,0.91176,0.81569
5.232,0.42815,0,0.025391,0.87059,0.81176
5.24,0.4262,0,0.03125,0.91176,0.80588
5.248,0.42522,0,0.03125,0.87059,0.81176
5.256,0.4262,0,0.03125,0.91569,0.80588
5.264,0.42717,0,0.035156,0.87059,0.81176
5.272,0.43011,0,0.035156,0.90196,0.80588
5.28,0.43402,0,0.03125,0.86078,0.80588
5.288,0.43988,0,0.025391,0.89608,0.80588
5.296,0.4477,0,0.03125,0.87059,0.80588
5.304,0.45748,0,0.025391,0.90588,0.80588
5.312,0.47019,0,0.03125,0.87647,0.80588
5.32,0.48289,0,0.041016,0.91569,0.8
5.328,0.4956,0.001955,0.041016,0.88627,0.79608
5.336,0.51026,0.0048876,0.044922,0.92549,0.7902
5.344,0.5259,0.01173,0.050781,0.89608,0.79608
5.352,0.54154,0.017595,0.060547,0.93725,0.78627
5.36,0.55718,0.021505,0.070312,0.90588,0.78039
5.368,0.57185,0.026393,0.089844,0.94706,0.77647
5.376,0.5826,0.028348,0.089844,0.90196,0.76667
5.384,0.5914,0.030303,0.085938,0.92157,0.77647
5.392,0.59726,0.032258,0.085938,0.88039,0.77059
5.4,0.60313,0.033236,0.085938,0.8902,0.76667
5.408,0.60704,0.033236,0.076172,0.86078,0.77647
5.416,0.60899,0.034213,0.064453,0.88039,0.78039
5.424,0.60899,0.032258,0.041016,0.85686,0.79608
5.432,0.60899,0.030303,0.019531,0.8451,0.80588
5.44,0.60899,0.026393,0.0058594,0.88039,0.82157
5.448,0.60899,0.022483,0,0.8451,0.82157
5.456,0.60899,0.01955,0.0058594,0.88039,0.82549
5.464,0.60899,0.01564,-0.0039062,0.8451,0.82549
5.472,0.60899,0.012708,-0.0039062,0.87647,0.82549
5.48,0.60899,0.010753,-0.0039062,0.84118,0.82549
5.488,0.60899,0.0068426,-0.0039062,0.87647,0.82549
5.496,0.60899,0.0029325,0,0.83529,0.82549
5.504,0.60802,0.00097752,0.0058594,0.87059,0.82157
5.512,0.60704,0,0.0058594,0.84118,0.82157
5.52,0.60411,0,0.015625,0.86667,0.81176
5.528,0.60117,0,0.015625,0.83529,0.81176
5.536,0.59629,0,0.095703,0.8902,0.77059
5.544,0.59335,0,0.26562,0.80588,0.66471
5.552,0.58847,0,0.61914,0.81569,0.46078
5.56,0.5826,0,1.0098,0.64118,0.23922
5.568,0.57478,0,1.0586,0.61569,0.2098
5.576,0.565,0,0.55469,0.63529,0.52941
5.584,0.55523,0,-0.089844,0.79608,0.89608
5.592,0.54741,0,-0.25391,0.82549,0.98235
5.6,0.53959,0,-0.1543,0.81569,0.91176
5.608,0.53275,0,-0.058594,0.86078,0.85686
5.616,0.5259,0,-0.013672,0.83529,0.83137
5.624,0.52102,0,-0.0039062,0.87059,0.82157
5.632,0.51808,0,0.0058594,0.8451,0.81569
5.64,0.51613,0,0.015625,0.87647,0.80588
5.648,0.51515,0,0.019531,0.84118,0.80588
5.656,0.51515,0,0.03125,0.88627,0.80588
5.664,0.51515,0,0.035156,0.86078,0.8
5.672,0.51515,0,0.041016,0.90588,0.79608
5.68,0.51515,0,0.044922,0.86078,0.78627
5.688,0.51515,0,0.050781,0.88039,0.78627
5.696,0.51417,0,0.060547,0.85098,0.78039
5.704,0.51222,0,0.064453,0.8902,0.78039
5.712,0.51026,0,0.064453,0.8451,0.78039
5.72,0.50831,0,0.076172,0.86667,0.77647
5.728,0.50538,0,0.080078,0.82549,0.77059
5.736,0.50244,0,0.089844,0.85098,0.76078
5.744,0.49756,0,0.095703,0.81176,0.7549
5.752,0.49365,0,0.11133,0.85098,0.7549
5.76,0.48974,0,0.11523,0.80588,0.75098
5.768,0.48485,0,0.11523,0.8451,0.75098
5.776,0.48094,0,0.13477,0.79608,0.74118
5.784,0.47898,0,0.14062,0.82549,0.73137
5.792,0.47703,0,0.14453,0.78627,0.73137
5.8,0.4741,0,0.14062,0.81569,0.73137
5.808,0.47116,0,0.13477,0.7902,0.73137
5.816,0.46823,0,0.13086,0.81569,0.73137
5.824,0.4653,0,0.11523,0.82549,0.74118
5.832,0.46139,0,0.095703,0.79608,0.7549
5.84,0.4565,0,0.076172,0.83529,0.76667
5.848,0.45259,0,0.054688,0.8,0.78039
5.856,0.44966,0,0.035156,0.85098,0.78627
5.864,0.4477,0,0.015625,0.81176,0.80588
5.872,0.44575,0,-0.0097656,0.86078,0.82157
5.88,0.44477,0,-0.019531,0.82157,0.82549
5.888,0.44379,0,-0.029297,0.86078,0.83529
5.896,0.44282,0,-0.029297,0.82549,0.83529
5.904,0.44184,0,-0.029297,0.87059,0.84118
5.912,0.44086,0,-0.029297,0.84118,0.83529
5.92,0.43988,0,-0.029297,0.87059,0.84118
5.928,0.43891,0,-0.019531,0.83137,0.83529
5.936,0.43695,0.0029325,-0.019531,0.87059,0.83137
5.944,0.435,0.0068426,-0.013672,0.83137,0.82549
5.952,0.43304,0.013685,-0.0097656,0.86667,0.83137
5.96,0.43109,0.01955,-0.0039062,0.82157,0.82157
5.968,0.42913,0.028348,0.0058594,0.85686,0.82157
5.976,0.4262,0.038123,0.0058594,0.81176,0.82157
5.984,0.42424,0.049853,0.0097656,0.85098,0.81569
5.992,0.42229,0.061584,0.015625,0.80588,0.82157
6,0.41935,0.076246,0.019531,0.84118,0.81176
6.008,0.41838,0.090909,0.035156,0.79608,0.8
6.016,0.4174,0.10753,0.03125,0.81569,0.80588
6.024,0.41642,0.12414,0.035156,0.82157,0.80588
6.032,0.4174,0.14076,0.03125,0.78039,0.80588
6.04,0.41838,0.15738,0.035156,0.81176,0.8
6.048,0.42033,0.17302,0.041016,0.76078,0.79608
6.056,0.42326,0.18964,0.03125,0.8,0.8
6.064,0.42717,0.20723,0.03125,0.7549,0.80588
6.072,0.43402,0.22581,0.025391,0.79608,0.80588
6.08,0.44282,0.24438,0.03125,0.7451,0.80588
6.088,0.45357,0.26393,0.035156,0.78627,0.80588
6.096,0.46725,0.28152,0.041016,0.7549,0.8
6.104,0.48289,0.29814,0.050781,0.7902,0.7902
6.112,0.49951,0.31378,0.050781,0.76667,0.78627
6.12,0.5132,0.32942,0.060547,0.79608,0.7902
6.128,0.5259,0.34409,0.070312,0.76667,0.78039
6.136,0.53763,0.35875,0.085938,0.8,0.77059
6.144,0.54936,0.37243,0.089844,0.7549,0.76667
6.152,0.56109,0.38612,0.085938,0.78039,0.77647
6.16,0.57087,0.39785,0.089844,0.73529,0.76667
6.168,0.57771,0.40958,0.080078,0.76078,0.77647
6.176,0.58456,0.41935,0.076172,0.7098,0.77059
6.184,0.58944,0.43011,0.076172,0.73529,0.78039
6.192,0.59238,0.43695,0.060547,0.7,0.77647
6.2,0.59335,0.44477,0.035156,0.73137,0.8
6.208,0.59433,0.45064,0.0097656,0.7,0.81176
6.216,0.59335,0.4565,0.0058594,0.72157,0.82157
6.224,0.5914,0.46139,0.0058594,0.6902,0.81176
6.232,0.58944,0.46628,-0.0039062,0.72549,0.82157
6.24,0.58944,0.47019,-0.0097656,0.73137,0.82549
6.248,0.58847,0.4741,-0.0039062,0.7,0.82157
6.256,0.58847,0.47801,-0.0097656,0.74118,0.82549
6.264,0.58847,0.48094,-0.0039062,0.7,0.82157
6.272,0.58847,0.48485,-0.0039062,0.74118,0.82157
6.28,0.58749,0.48876,0.0058594,0.7,0.80588
6.288,0.58651,0.49267,0.015625,0.73529,0.80588
6.296,0.58456,0.49756,0.015625,0.7,0.80588
6.304,0.58162,0.50342,0.050781,0.75098,0.79608
6.312,0.57771,0.50929,0.18555,0.7,0.72157
6.32,0.57283,0.51711,0.42969,0.67059,0.57059
6.328,0.56696,0.52493,0.86914,0.53922,0.31373
6.336,0.56109,0.53372,1.0898,0.4902,0.2
6.344,0.55425,0.54252,0.83008,0.46471,0.37059
6.352,0.54741,0.55132,0.17969,0.62549,0.7451
6.36,0.54057,0.56012,-0.2793,0.66471,0.99216
6.368,0.53275,0.56891,-0.22852,0.7,0.95686
6.376,0.5259,0.57674,-0.11523,0.66471,0.88627
6.384,0.52004,0.58651,-0.035156,0.7098,0.8451
6.392,0.51515,0.59629,-0.0039062,0.68627,0.82549
6.4,0.51026,0.60606,0,0.72549,0.81569
6.408,0.50538,0.61681,0,0.7,0.81176
6.416,0.50147,0.62561,0.0097656,0.73137,0.81176
6.424,0.49756,0.63539,0.015625,0.7,0.80588
6.432,0.49365,0.64321,0.015625,0.72157,0.81176
6.44,0.48974,0.65103,0.03125,0.68627,0.79608
6.448,0.48778,0.65885,0.035156,0.68039,0.8
6.456,0.48583,0.66764,0.041016,0.70588,0.7902
6.464,0.48485,0.67546,0.044922,0.66471,0.79608
6.472,0.48289,0.68426,0.054688,0.7098,0.7902
6.48,0.48094,0.69208,0.064453,0.66471,0.78039
6.488,0.47801,0.70088,0.064453,0.7,0.78039
6.496,0.47507,0.70968,0.076172,0.66471,0.77647
6.504,0.47019,0.71848,0.080078,0.7,0.77059
6.512,0.46628,0.7263,0.085938,0.66471,0.77647
6.52,0.46237,0.73412,0.095703,0.6902,0.7549
6.528,0.45846,0.74194,0.11133,0.6549,0.74118
6.536,0.45455,0.74976,0.125,0.68039,0.73529
6.544,0.45064,0.75953,0.13086,0.6451,0.73137
6.552,0.4477,0.76833,0.14453,0.68039,0.74118
6.56,0.44477,0.7781,0.15625,0.62941,0.71569
6.568,0.44086,0.78788,0.16016,0.67647,0.72549
6.576,0.43891,0.79765,0.15625,0.62549,0.71569
6.584,0.43597,0.80743,0.15625,0.67059,0.71569
6.592,0.43402,0.8172,0.14453,0.64118,0.72157
6.6,0.43109,0.82698,0.125,0.68627,0.73137
6.608,0.42913,0.83871,0.099609,0.66471,0.7451
6.616,0.42717,0.84946,0.076172,0.70588,0.76078
6.624,0.42522,0.86119,0.054688,0.6902,0.77647
6.632,0.42424,0.8739,0.03125,0.72549,0.7902
6.64,0.42131,0.88563,0.0097656,0.7098,0.80588
6.648,0.41935,0.89736,-0.0039062,0.7451,0.81569
6.656,0.4174,0.90909,-0.013672,0.76078,0.82549
6.664,0.41544,0.92082,-0.029297,0.72549,0.83137
6.672,0.41251,0.9306,-0.029297,0.78039,0.84118
6.68,0.41056,0.94135,-0.025391,0.73529,0.82549
6.688,0.4086,0.95112,-0.029297,0.77059,0.83529
6.696,0.40567,0.9609,-0.029297,0.73529,0.83529
6.704,0.40371,0.97165,-0.029297,0.77059,0.83529
6.712,0.40176,0.98338,-0.019531,0.73137,0.83137
6.72,0.40078,0.99218,-0.013672,0.76078,0.83137
6.728,0.39883,1,-0.013672,0.73137,0.83137
6.736,0.39687,1,-0.0039062,0.7451,0.82157
6.744,0.39394,1,0.0058594,0.7098,0.82157
6.752,0.39198,1,0.0097656,0.7451,0.82157
6.76,0.39003,1,0.0097656,0.70588,0.81569
6.768,0.3871,1,0.019531,0.74118,0.81569
6.776,0.38514,1,0.025391,0.69608,0.80588
6.784,0.38221,1,0.035156,0.73529,0.80588
6.792,0.37928,1,0.03125,0.69608,0.8
6.8,0.37732,1,0.03125,0.73529,0.80588
6.808,0.37634,1,0.03125,0.70588,0.80588
6.816,0.37537,1,0.041016,0.73137,0.8
6.824,0.37537,1,0.041016,0.7,0.8
6.832,0.37732,1,0.041016,0.69608,0.8
6.84,0.38123,1,0.035156,0.73137,0.80588
6.848,0.38807,1,0.035156,0.6902,0.80588
6.856,0.39785,1,0.041016,0.73529,0.8
6.864,0.41153,1,0.044922,0.6902,0.79608
6.872,0.42815,1,0.044922,0.74118,0.7902
6.88,0.44477,1,0.054688,0.7098,0.78627
6.888,0.46237,1,0.064453,0.76667,0.78039
6.896,0.48094,1,0.076172,0.73137,0.77647
6.904,0.49658,1,0.089844,0.77059,0.77059
6.912,0.50929,1,0.089844,0.73137,0.77647
6.92,0.51906,1,0.080078,0.75098,0.78039
6.928,0.52884,1,0.080078,0.7098,0.78039
6.936,0.53763,1,0.085938,0.73529,0.77647
6.944,0.54545,1,0.080078,0.7,0.78039
6.952,0.55132,1,0.070312,0.73529,0.77647
6.96,0.55523,1,0.035156,0.68627,0.8
6.968,0.55816,1,0.019531,0.72157,0.80588
6.976,0.55914,1,0.0097656,0.68039,0.81569
6.984,0.55914,1,0,0.72157,0.82157
6.992,0.55914,1,-0.0039062,0.68627,0.82549
7,0.55816,1,-0.0039062,0.73137,0.82549
7.008,0.55914,1,0,0.69608,0.82157
7.016,0.55914,1,0.0058594,0.74118,0.82157
7.024,0.56012,1,0,0.70588,0.82549
7.032,0.56109,1,0.0058594,0.73137,0.82157
7.04,0.56207,1,0.0058594,0.73529,0.81569
7.048,0.56305,1,0.0058594,0.7,0.82157
7.056,0.56207,1,0.015625,0.73529,0.81569
7.064,0.56109,1,0.019531,0.7098,0.81176
7.072,0.55914,1,0.10547,0.76667,0.76667
7.08,0.55621,1,0.27539,0.7,0.66471
7.088,0.5523,1,0.65039,0.6451,0.44902
7.096,0.54741,1,1.0742,0.52549,0.21961
7.104,0.54154,1,1.1289,0.4902,0.18824
7.112,0.53568,1,0.5957,0.47451,0.51961
7.12,0.53079,1,-0.10352,0.68627,0.90588
7.128,0.52493,1,-0.25391,0.7098,0.98235
7.136,0.51906,1,-0.16016,0.75098,0.92157
7.144,0.5132,1,-0.064453,0.73529,0.87059
7.152,0.50831,1,-0.019531,0.78627,0.83137
7.16,0.50342,1,-0.0039062,0.7549,0.82157
7.168,0.49853,1,0,0.8,0.81569
7.176,0.49462,1,0.0097656,0.76078,0.82157
7.184,0.49267,1,0.019531,0.80588,0.80588
7.192,0.49169,1,0.019531,0.76667,0.80588
7.2,0.49071,1,0.03125,0.8,0.80588
7.208,0.49071,1,0.041016,0.76078,0.80588
7.216,0.49071,1,0.041016,0.8,0.80588
7.224,0.49071,1,0.044922,0.76667,0.8
7.232,0.49071,1,0.054688,0.7902,0.79608
7.24,0.49071,1,0.064453,0.76078,0.78627
7.248,0.49071,1,0.076172,0.7549,0.78039
7.256,0.48876,1,0.080078,0.78627,0.78039
7.264,0.48583,1,0.089844,0.7451,0.77059
7.272,0.48289,1,0.099609,0.78039,0.76667
7.28,0.47996,1,0.11133,0.7451,0.76078
7.288,0.47703,1,0.11133,0.78627,0.7549
7.296,0.47312,1,0.12109,0.74118,0.75098
7.304,0.47019,1,0.13477,0.78039,0.74118
7.312,0.46725,1,0.13477,0.7451,0.73529
7.32,0.46334,1,0.15039,0.77647,0.73137
7.328,0.46041,1,0.16016,0.75098,0.72549
7.336,0.45748,1,0.16016,0.77647,0.72157
7.344,0.4565,1,0.16016,0.7451,0.72157
7.352,0.45455,1,0.15039,0.78627,0.72549
7.36,0.45259,1,0.13086,0.7549,0.73529
7.368,0.45161,1,0.11133,0.80588,0.75098
7.376,0.45161,1,0.089844,0.77059,0.7549
7.384,0.45064,1,0.060547,0.81569,0.77647
7.392,0.45161,1,0.041016,0.78627,0.78627
7.4,0.45357,1,0.019531,0.83529,0.80588
7.408,0.45455,1,0.0058594,0.80588,0.80588
7.416,0.45552,1,-0.0097656,0.8451,0.82549
7.424,0.45552,1,-0.029297,0.82157,0.83529
7.432,0.45552,1,-0.029297,0.85686,0.84118
7.44,0.45455,1,-0.035156,0.83137,0.84118
7.448,0.45259,1,-0.035156,0.85686,0.85098
7.456,0.45161,1,-0.035156,0.86667,0.85098
7.464,0.44966,1,-0.029297,0.83137,0.8451
7.472,0.44868,1,-0.019531,0.87647,0.84118
7.48,0.4477,1,-0.019531,0.83137,0.84118
7.488,0.4477,1,-0.013672,0.87647,0.8451
7.496,0.4477,1,-0.0097656,0.82549,0.83137
7.504,0.4477,1,-0.0039062,0.87059,0.83529
7.512,0.44868,1,0,0.83137,0.82549
7.52,0.44966,1,0.0058594,0.87059,0.83137
7.528,0.45064,1,0.0097656,0.83529,0.82549
7.536,0.44966,1,0.0097656,0.86078,0.82549
7.544,0.44966,1,0.015625,0.82549,0.82157
7.552,0.44966,1,0.019531,0.85686,0.82157
7.56,0.4477,1,0.025391,0.82157,0.81176
7.568,0.4477,1,0.03125,0.85686,0.81569
7.576,0.4477,1,0.025391,0.82157,0.81176
7.584,0.44966,1,0.019531,0.86078,0.81569
7.592,0.45161,1,0.019531,0.81569,0.81176
7.6,0.45552,1,0.025391,0.85686,0.81176
7.608,0.46237,1,0.03125,0.82157,0.81176
7.616,0.4741,1,0.019531,0.85686,0.81569
7.624,0.48485,1,0.019531,0.82549,0.82157
7.632,0.49462,1,0.025391,0.86667,0.81569
7.64,0.50929,1,0.035156,0.84118,0.81569
7.648,0.5259,1,0.041016,0.87647,0.80588
7.656,0.54252,1,0.041016,0.86078,0.80588
7.664,0.55914,1,0.050781,0.8902,0.80588
7.672,0.57478,1,0.060547,0.91176,0.79608
7.68,0.58847,1,0.085938,0.87647,0.78039
7.688,0.59922,1,0.089844,0.92157,0.77647
7.696,0.60899,1,0.080078,0.87059,0.78039
7.704,0.61486,1,0.080078,0.90196,0.78039
7.712,0.61975,1,0.089844,0.84118,0.77647
7.72,0.6217,1,0.080078,0.86667,0.78039
7.728,0.62268,1,0.076172,0.83137,0.78039
7.736,0.62366,1,0.054688,0.86078,0.79608
7.744,0.62463,1,0.03125,0.83137,0.80588
7.752,0.62561,1,0.015625,0.86078,0.81569
7.76,0.62561,1,0.0058594,0.82549,0.82549
7.768,0.62561,1,0,0.86667,0.82549
7.776,0.62561,1,-0.0039062,0.82549,0.82549
7.784,0.62561,1,0,0.87059,0.82549
7.792,0.62561,1,0,0.83529,0.82549
7.8,0.62561,1,0,0.87647,0.83137
7.808,0.62659,1,0.0058594,0.83529,0.82157
7.816,0.62659,1,0.0097656,0.88039,0.82549
7.824,0.62659,1,0.0097656,0.8451,0.82549
7.832,0.62659,1,0.0097656,0.87647,0.82549
7.84,0.62463,0.99609,0.019531,0.85098,0.81569
7.848,0.62268,0.99218,0.070312,0.89608,0.7902
7.856,0.61877,0.98045,0.22461,0.8451,0.7
7.864,0.6129,0.96774,0.51562,0.81569,0.52941
7.872,0.60606,0.95601,0.91406,0.7098,0.30392
7.88,0.59824,0.94428,1.0586,0.61569,0.22353
7.888,0.5914,0.93157,0.75391,0.61569,0.41961
7.896,0.58456,0.91984,0.080078,0.7451,0.8
7.904,0.57869,0.90714,-0.24414,0.8451,0.97059
7.912,0.57283,0.89541,-0.17383,0.82549,0.93137
7.92,0.565,0.8827,-0.083984,0.88627,0.87647
7.928,0.55816,0.86999,-0.025391,0.86667,0.8451
7.936,0.55425,0.85728,-0.0039062,0.90196,0.82549
7.944,0.55034,0.84457,-0.0039062,0.87059,0.82157
7.952,0.54741,0.83382,0.0058594,0.89608,0.81569
7.96,0.54448,0.82209,0.015625,0.85686,0.81176
7.968,0.54252,0.81232,0.019531,0.8902,0.80588
7.976,0.54057,0.80156,0.03125,0.85098,0.8
7.984,0.53763,0.78983,0.035156,0.89608,0.8
7.992,0.53568,0.77908,0.041016,0.85098,0.79608
8,0.53372,0.76637,0.054688,0.90196,0.78627
8.008,0.53177,0.75464,0.054688,0.87647,0.7902
8.016,0.52981,0.74291,0.060547,0.91176,0.7902
8.024,0.52688,0.73118,0.064453,0.87647,0.78039
8.032,0.52395,0.72043,0.076172,0.90196,0.78039
8.04,0.52102,0.70968,0.085938,0.86667,0.77059
8.048,0.51711,0.69697,0.089844,0.86078,0.76667
8.056,0.51417,0.68524,0.089844,0.8902,0.76667
8.064,0.51124,0.67155,0.099609,0.85098,0.76078
8.072,0.50831,0.65787,0.11133,0.87647,0.7549
8.08,0.5044,0.64418,0.13086,0.83137,0.7451
8.088,0.50147,0.6305,0.13477,0.86078,0.74118
8.096,0.49951,0.61779,0.14062,0.81569,0.73529
8.104,0.49658,0.60411,0.14453,0.85686,0.73137
8.112,0.49365,0.59238,0.15039,0.81176,0.73137
8.12,0.49071,0.58065,0.15625,0.85098,0.72157
8.128,0.48778,0.57087,0.14453,0.82157,0.72549
8.136,0.48485,0.56012,0.13086,0.86667,0.74118
8.144,0.48289,0.54839,0.11133,0.84118,0.75098
8.152,0.48094,0.53666,0.089844,0.88039,0.76078
8.16,0.47898,0.52493,0.064453,0.85686,0.78039
8.168,0.47801,0.51222,0.041016,0.90196,0.79608
8.176,0.47703,0.50147,0.015625,0.87647,0.80588
8.184,0.4741,0.48974,-0.0039062,0.92157,0.82157
8.192,0.47116,0.47898,-0.0097656,0.8902,0.82549
8.2,0.46921,0.46823,-0.029297,0.93137,0.83529
8.208,0.46725,0.45552,-0.029297,0.8902,0.84118
8.216,0.46432,0.44282,-0.029297,0.93137,0.8451
8.224,0.46237,0.43011,-0.029297,0.89608,0.8451
8.232,0.46041,0.41642,-0.025391,0.93137,0.8451
8.24,0.45748,0.40274,-0.019531,0.89608,0.84118
8.248,0.4565,0.39003,-0.019531,0.92157,0.8451
8.256,0.45455,0.37634,-0.013672,0.8902,0.83529
8.264,0.45357,0.36364,-0.0097656,0.88039,0.83529
8.272,0.45357,0.35288,-0.0039062,0.91569,0.84118
8.28,0.45259,0.34213,0,0.87647,0.82549
8.288,0.45161,0.33333,0.0058594,0.91569,0.83137
8.296,0.45064,0.32454,0.0097656,0.87647,0.82157
8.304,0.44868,0.31769,0.0097656,0.92157,0.81569
8.312,0.4477,0.31183,0.019531,0.8902,0.81569
8.32,0.44575,0.30596,0.019531,0.93725,0.80588
8.328,0.44477,0.30108,0.019531,0.89608,0.81569
8.336,0.44282,0.29717,0.019531,0.92157,0.82157
8.344,0.44184,0.29423,0.025391,0.8902,0.81176
8.352,0.44282,0.29228,0.035156,0.92157,0.80588
8.36,0.44575,0.29032,0.035156,0.8902,0.80588
8.368,0.45064,0.28935,0.035156,0.93137,0.81176
8.376,0.45846,0.28837,0.035156,0.8902,0.81176
8.384,0.46823,0.28935,0.03125,0.92549,0.81176
8.392,0.47605,0.28935,0.025391,0.88627,0.81176
8.4,0.48583,0.28935,0.025391,0.92549,0.82157
8.408,0.50147,0.28935,0.025391,0.88039,0.81176
8.416,0.51711,0.28935,0.025391,0.92157,0.81569
8.424,0.53372,0.28837,0.035156,0.8902,0.80588
8.432,0.55034,0.28641,0.041016,0.93725,0.8
8.44,0.56598,0.28446,0.041016,0.91176,0.80588
8.448,0.57869,0.2825,0.060547,0.94118,0.7902
8.456,0.58944,0.27957,0.070312,0.91569,0.78627
8.464,0.59922,0.27468,0.085938,0.95098,0.78039
8.472,0.60606,0.26979,0.089844,0.95686,0.78039
8.48,0.61193,0.26393,0.080078,0.90588,0.78627
8.488,0.61681,0.25709,0.085938,0.93725,0.78039
8.496,0.6217,0.25024,0.085938,0.87647,0.77647
8.504,0.62463,0.2434,0.080078,0.91176,0.78039
8.512,0.62561,0.23558,0.070312,0.86078,0.78039
8.52,0.62757,0.22874,0.041016,0.89608,0.80588
8.528,0.62854,0.21994,0.019531,0.85686,0.81569
8.536,0.6305,0.21114,0.0058594,0.8902,0.82549
8.544,0.63148,0.20137,0,0.85686,0.82549
8.552,0.63148,0.19159,0,0.88627,0.82549
8.56,0.63245,0.18084,0,0.84118,0.82549
8.568,0.63245,0.17009,-0.0039062,0.88039,0.82549
8.576,0.63245,0.16031,0,0.8451,0.82549
8.584,0.63148,0.14956,-0.0039062,0.88627,0.82549
8.592,0.6305,0.14076,0,0.8451,0.82549
8.6,0.62659,0.13099,0.0097656,0.89608,0.82157
8.608,0.62366,0.12317,0.015625,0.85098,0.81569
8.616,0.61975,0.11535,0.015625,0.8902,0.82157
8.624,0.61486,0.10753,0.019531,0.86667,0.81569
8.632,0.61095,0.099707,0.099609,0.91176,0.77059
8.64,0.60704,0.091887,0.26953,0.84118,0.67647
8.648,0.60215,0.085044,0.5957,0.82549,0.47451
8.656,0.59629,0.079179,0.98438,0.68627,0.25882
8.664,0.59042,0.073314,1.0547,0.63529,0.21961
8.672,0.58456,0.067449,0.5957,0.67059,0.51569
8.68,0.57771,0.062561,-0.070312,0.82549,0.88627
8.688,0.57087,0.056696,-0.25,0.88627,0.97647
8.696,0.56403,0.051808,-0.14453,0.86078,0.91569
8.704,0.55816,0.044966,-0.054688,0.92157,0.86667
8.712,0.55327,0.039101,-0.0097656,0.88039,0.83137
8.72,0.54936,0.031281,0,0.92549,0.82549
8.728,0.54741,0.024438,0.0097656,0.8902,0.82157
8.736,0.54448,0.016618,0.015625,0.92157,0.81176
8.744,0.54154,0.0097752,0.019531,0.88627,0.81176
8.752,0.53861,0.0048876,0.03125,0.92157,0.80588
8.76,0.5347,0,0.03125,0.90196,0.80588
8.768,0.53177,0,0.041016,0.93725,0.79608
8.776,0.52981,0,0.050781,0.89608,0.7902
8.784,0.52786,0,0.060547,0.93725,0.7902
8.792,0.52493,0,0.064453,0.90196,0.78627
8.8,0.52395,0,0.070312,0.94118,0.78039
8.808,0.52199,0,0.080078,0.8902,0.77647
8.816,0.52004,0,0.085938,0.92157,0.77059
8.824,0.51808,0,0.089844,0.87647,0.76667
8.832,0.51417,0,0.095703,0.90588,0.76078
8.84,0.51124,0,0.099609,0.86667,0.7549
8.848,0.50733,0,0.11133,0.8902,0.7549
8.856,0.50244,0,0.125,0.85686,0.75098
8.864,0.49853,0,0.13086,0.8451,0.7451
8.872,0.49462,0,0.13477,0.87647,0.73137
8.88,0.48974,0,0.15039,0.84118,0.72549
8.888,0.48583,0,0.15625,0.87647,0.73137
8.896,0.48192,0,0.15625,0.83529,0.73137
8.904,0.47801,0,0.15625,0.87647,0.73137
8.912,0.47605,0,0.13477,0.83137,0.73137
8.92,0.47312,0,0.125,0.87647,0.73529
8.928,0.47116,0,0.11133,0.85098,0.7451
8.936,0.46823,0,0.085938,0.88627,0.76667
8.944,0.46432,0,0.054688,0.86667,0.78039
8.952,0.46237,0,0.035156,0.91176,0.7902
8.96,0.45943,0,0.0097656,0.88039,0.80588
8.968,0.45748,0,-0.0039062,0.92549,0.81569
8.976,0.45748,0,-0.019531,0.89608,0.83137
8.984,0.4565,0,-0.029297,0.94118,0.83529
8.992,0.45552,0,-0.029297,0.90588,0.84118
9,0.45455,0,-0.029297,0.94706,0.84118
9.008,0.45357,0,-0.029297,0.90196,0.8451
9.016,0.44086,0,-0.029297,0.93725,0.8451
9.024,0.42131,0,-0.019531,0.8902,0.83529
9.032,0.41056,0,-0.0097656,0.92549,0.84118
9.04,0.40567,0,-0.013672,0.89608,0.83529
9.048,0.40371,0,-0.0039062,0.92157,0.83137
9.056,0.40371,0,-0.0039062,0.88627,0.82549
9.064,0.40371,0,0.0058594,0.91176,0.82549
9.072,0.40371,0,0.0097656,0.88039,0.82549
9.08,0.40371,0,0.015625,0.87059,0.82549
9.088,0.40274,0,0.019531,0.90196,0.80588
9.096,0.40078,0,0.025391,0.87059,0.81569
9.104,0.39883,0,0.025391,0.91569,0.82549
9.112,0.39785,0,0.03125,0.86667,0.81569
9.12,0.39589,0,0.03125,0.90196,0.82157
9.128,0.39394,0,0.03125,0.85686,0.81176
9.136,0.39394,0,0.035156,0.89608,0.80588
9.144,0.39687,0,0.03125,0.85686,0.81176
9.152,0.40078,0,0.035156,0.8902,0.80588
9.16,0.40762,0,0.035156,0.85686,0.81176
9.168,0.4174,0,0.03125,0.8902,0.81569
9.176,0.42913,0,0.025391,0.85098,0.81176
9.184,0.44477,0,0.025391,0.88039,0.80588
9.192,0.46139,0,0.025391,0.83529,0.81176
9.2,0.47605,0.00097752,0.03125,0.87647,0.81569
9.208,0.48876,0.0029325,0.035156,0.83529,0.8
9.216,0.50342,0.0097752,0.041016,0.8902,0.8
9.224,0.52004,0.016618,0.054688,0.85686,0.79608
9.232,0.53568,0.021505,0.050781,0.90196,0.8
9.24,0.54936,0.02737,0.064453,0.87059,0.78039
9.248,0.56109,0.031281,0.076172,0.90588,0.78039
9.256,0.57087,0.035191,0.089844,0.88039,0.77059
9.264,0.57771,0.037146,0.089844,0.89608,0.77647
9.272,0.58358,0.039101,0.089844,0.85098,0.77059
9.28,0.58651,0.038123,0.095703,0.86078,0.76078
9.288,0.58847,0.038123,0.085938,0.83137,0.76667
9.296,0.59042,0.037146,0.085938,0.81569,0.77647
9.304,0.5914,0.036168,0.060547,0.85098,0.78039
9.312,0.59238,0.035191,0.035156,0.80588,0.80588
9.32,0.59238,0.033236,0.015625,0.84118,0.81176
9.328,0.59433,0.030303,0.0097656,0.79608,0.82157
9.336,0.59531,0.02737,0.0058594,0.83529,0.82549
9.344,0.59629,0.022483,0,0.8,0.82549
9.352,0.59629,0.018573,0,0.83529,0.82549
9.36,0.59726,0.013685,-0.0039062,0.8,0.82157
9.368,0.59629,0.0097752,-0.0039062,0.8451,0.82549
9.376,0.59531,0.0048876,-0.0039062,0.81569,0.82549
9.384,0.59238,0,0.0058594,0.8451,0.82549
9.392,0.58847,0,0,0.80588,0.82549
9.4,0.58456,0,0.0097656,0.85098,0.82157
9.408,0.57967,0,0.015625,0.81176,0.81569
9.416,0.57576,0,0.035156,0.86667,0.80588
9.424,0.56891,0,0.15039,0.82549,0.74118
9.432,0.56207,0,0.35547,0.81569,0.61961
9.44,0.55523,0,0.74023,0.71569,0.39412
9.448,0.54741,0,1.0586,0.63529,0.2098
9.456,0.53959,0,0.875,0.57451,0.33529
9.464,0.53177,0,0.33984,0.68627,0.66078
9.472,0.52395,0,-0.20898,0.78039,0.96667
9.48,0.51711,0,-0.26367,0.81569,0.99216
9.488,0.50929,0,-0.125,0.80588,0.90196
9.496,0.50244,0,-0.048828,0.83529,0.85686
9.504,0.4956,0,-0.013672,0.85686,0.83137
9.512,0.49071,0,0,0.82157,0.82549
9.52,0.4868,0,0.0097656,0.85686,0.81569
9.528,0.48583,0,0.015625,0.81569,0.80588
9.536,0.48485,0,0.019531,0.85098,0.80588
9.544,0.48485,0,0.03125,0.82157,0.80588
9.552,0.48387,0,0.035156,0.86078,0.80588
9.56,0.48387,0,0.041016,0.82549,0.80588
9.568,0.48387,0,0.044922,0.85686,0.8
9.576,0.48192,0,0.054688,0.83137,0.79608
9.584,0.47898,0,0.064453,0.87059,0.7902
9.592,0.47605,0,0.064453,0.83137,0.78627
9.6,0.47312,0,0.070312,0.86667,0.78039
9.608,0.47019,0,0.085938,0.82549,0.77647
9.616,0.46823,0,0.089844,0.86078,0.77059
9.624,0.46628,0,0.099609,0.81176,0.76078
9.632,0.46334,0,0.11133,0.8451,0.7549
9.64,0.46041,0,0.12109,0.8,0.7549
9.648,0.4565,0,0.125,0.83137,0.7451
9.656,0.45259,0,0.13477,0.79608,0.73529
9.664,0.44868,0,0.14062,0.81569,0.73529
9.672,0.44477,0,0.15039,0.78627,0.72157
9.68,0.43988,0,0.15039,0.77647,0.72549
9.688,0.43597,0,0.16016,0.81176,0.71569
9.696,0.43109,0,0.15039,0.77647,0.71569
9.704,0.42717,0,0.13477,0.82549,0.72549
9.712,0.42326,0,0.12109,0.7902,0.73529
9.72,0.41838,0,0.095703,0.83529,0.7549
9.728,0.41447,0,0.064453,0.81176,0.77059
9.736,0.41251,0,0.050781,0.86667,0.78039
9.744,0.41056,0,0.03125,0.83529,0.79608
9.752,0.40958,0,0.0097656,0.88039,0.80588
9.76,0.4086,0,-0.013672,0.85098,0.82549
9.768,0.4086,0,-0.029297,0.88627,0.82549
9.776,0.4086,0,-0.025391,0.85098,0.83529
9.784,0.4086,0,-0.019531,0.88627,0.82549
9.792,0.4086,0,-0.029297,0.85098,0.83529
9.8,0.4086,0,-0.025391,0.90196,0.83137
9.808,0.4086,0,-0.0097656,0.8902,0.83137
9.816,0.40958,0,-0.013672,0.95098,0.83137
9.824,0.40958,0,-0.0097656,0.92157,0.82549
9.832,0.4086,0,-0.0039062,0.97059,0.82549
9.84,0.40762,0,0,0.93137,0.82549
9.848,0.40567,0,0.0058594,0.97647,0.82157
9.856,0.40371,0.0029325,0.015625,0.95686,0.81176
9.864,0.40176,0.0068426,0.015625,0.98627,0.81569
9.872,0.3998,0.01173,0.019531,0.97059,0.80588
9.88,0.39785,0.017595,0.019531,1.0118,0.80588
9.888,0.39687,0.02346,0.03125,1.0216,0.80588
9.896,0.39687,0.029326,0.035156,0.97647,0.80588
9.904,0.39687,0.037146,0.041016,1.0157,0.8
9.912,0.39785,0.044966,0.041016,0.97059,0.8
9.92,0.3998,0.053763,0.041016,1.0059,0.79608
9.928,0.40176,0.063539,0.035156,0.96078,0.80588
9.936,0.40469,0.072336,0.035156,0.99608,0.80588
9.944,0.40762,0.082111,0.041016,0.96667,0.80588
9.952,0.41349,0.090909,0.03125,1.002,0.80588
9.96,0.42229,0.10068,0.03125,0.94118,0.8
9.968,0.435,0.11046,0.025391,0.97647,0.80588
9.976,0.44966,0.12121,0.025391,0.94706,0.81176
9.984,0.46628,0.13196,0.03125,0.97647,0.80588
9.992,0.48289,0.14272,0.041016,0.92157,0.80588
10,0.49756,0.15249,0.050781,0.95686,0.79608
10.008,0.51026,0.16227,0.050781,0.91569,0.79608
10.016,0.5259,0.17204,0.044922,0.96078,0.80588
10.024,0.54057,0.18084,0.064453,0.92157,0.78039
10.032,0.55327,0.18866,0.085938,0.96078,0.77647
10.04,0.56403,0.1955,0.089844,0.92157,0.77647
10.048,0.5738,0.20137,0.085938,0.95098,0.78039
10.056,0.58162,0.20723,0.089844,0.90588,0.77647
10.064,0.58749,0.21114,0.089844,0.92157,0.77059
10.072,0.58944,0.21603,0.076172,0.87647,0.76667
10.08,0.5914,0.21896,0.076172,0.89608,0.77059
10.088,0.5914,0.22287,0.054688,0.90196,0.7902
10.096,0.59238,0.22483,0.035156,0.85686,0.80588
10.104,0.59335,0.22776,0.015625,0.8902,0.81176
10.112,0.59238,0.22972,0.0058594,0.84118,0.82157
10.12,0.59238,0.23167,0.0058594,0.86667,0.82157
10.128,0.59238,0.23363,0.0058594,0.81569,0.81176
10.136,0.59238,0.23558,0,0.85098,0.81569
10.144,0.59238,0.23656,0,0.80588,0.81569
10.152,0.5914,0.23754,0,0.83137,0.82157
10.16,0.58944,0.23949,-0.0039062,0.79608,0.82549
10.168,0.58651,0.24145,0.0058594,0.82157,0.82549
10.176,0.58162,0.24438,0.0097656,0.77647,0.81569
10.184,0.57771,0.24633,0.015625,0.80588,0.81176
10.192,0.57185,0.24927,0.015625,0.76667,0.81176
10.2,0.565,0.25122,0.035156,0.81569,0.80588
10.208,0.55914,0.25415,0.16016,0.76078,0.72549
10.216,0.5523,0.25709,0.38477,0.7451,0.59608
10.224,0.54545,0.26002,0.79883,0.61961,0.34902
10.232,0.53763,0.26295,1.0801,0.57059,0.20392
10.24,0.53079,0.26588,0.86523,0.53922,0.34902
10.248,0.52395,0.26979,0.27539,0.68627,0.7
10.256,0.51613,0.27273,-0.25391,0.75098,0.98235
10.264,0.50929,0.27566,-0.28906,0.78039,1.002
10.272,0.50244,0.27957,-0.12891,0.7451,0.90196
10.28,0.49462,0.2825,-0.044922,0.77059,0.85098
10.288,0.48778,0.28543,-0.0039062,0.77647,0.82157
10.296,0.48387,0.28935,0.0058594,0.73529,0.81569
10.304,0.48094,0.29228,0.0058594,0.7549,0.80588
10.312,0.47801,0.29619,0.015625,0.70588,0.80588
10.32,0.47605,0.30108,0.025391,0.73529,0.80588
10.328,0.47507,0.30596,0.025391,0.69608,0.80588
10.336,0.47507,0.31085,0.025391,0.73529,0.80588
10.344,0.4741,0.31574,0.041016,0.68627,0.79608
10.352,0.47214,0.32063,0.054688,0.7098,0.78627
10.36,0.47019,0.32649,0.050781,0.67059,0.7902
10.368,0.46628,0.33138,0.054688,0.70588,0.78627
10.376,0.46139,0.33627,0.064453,0.65098,0.78039
10.384,0.45748,0.34213,0.080078,0.67647,0.77059
10.392,0.45259,0.34897,0.076172,0.63529,0.76667
10.4,0.44868,0.35484,0.089844,0.66471,0.76667
10.408,0.44477,0.36168,0.099609,0.6098,0.7549
10.416,0.43988,0.36852,0.10547,0.63529,0.7549
10.424,0.43597,0.37537,0.11133,0.59608,0.7451
10.432,0.43109,0.38319,0.125,0.62941,0.74118
10.44,0.4262,0.39003,0.13477,0.58431,0.73529
10.448,0.42131,0.39883,0.14062,0.61961,0.73137
10.456,0.41642,0.40762,0.15039,0.58039,0.72549
10.464,0.41251,0.4174,0.16016,0.6098,0.72157
10.472,0.40958,0.42815,0.15625,0.57451,0.71569
10.48,0.40665,0.43891,0.16016,0.6,0.72157
10.488,0.40371,0.45064,0.14453,0.57451,0.71569
10.496,0.40176,0.46334,0.125,0.60588,0.73137
10.504,0.40078,0.47605,0.099609,0.61961,0.7451
10.512,0.39883,0.48778,0.076172,0.60588,0.76667
10.52,0.39589,0.49951,0.054688,0.66078,0.78039
10.528,0.39394,0.50929,0.03125,0.61961,0.7902
10.536,0.39198,0.52004,0.0058594,0.66471,0.80588
10.544,0.38905,0.53177,-0.0039062,0.63529,0.82157
10.552,0.3871,0.54252,-0.013672,0.68039,0.82549
10.56,0.38612,0.55425,-0.029297,0.65098,0.83529
10.568,0.38416,0.56598,-0.035156,0.6902,0.84118
10.576,0.38221,0.57674,-0.039062,0.6549,0.8451
10.584,0.37928,0.58749,-0.029297,0.6902,0.83529
10.592,0.37732,0.59726,-0.029297,0.66078,0.84118
10.6,0.37537,0.60802,-0.029297,0.6902,0.84118
10.608,0.37439,0.61975,-0.025391,0.6549,0.83529
10.616,0.37243,0.63245,-0.019531,0.68627,0.83529
10.624,0.3695,0.64712,-0.0097656,0.6451,0.82549
10.632,0.36755,0.66178,-0.0039062,0.68627,0.82549
10.64,0.36461,0.68035,-0.0039062,0.6451,0.82549
10.648,0.36168,0.69795,0.0097656,0.68627,0.82157
10.656,0.35777,0.7175,0.0097656,0.65098,0.82157
10.664,0.35484,0.73803,0.015625,0.68627,0.81569
10.672,0.35093,0.7566,0.03125,0.6549,0.80588
10.68,0.34702,0.77615,0.035156,0.68627,0.80588
10.688,0.34409,0.7957,0.035156,0.66078,0.80588
10.696,0.34213,0.81427,0.041016,0.6549,0.80588
10.704,0.34115,0.83578,0.035156,0.6902,0.80588
10.712,0.34213,0.8563,0.03125,0.66078,0.80588
10.72,0.34506,0.87879,0.041016,0.68627,0.80588
10.728,0.34897,0.90029,0.041016,0.6451,0.8
10.736,0.35484,0.92082,0.035156,0.6902,0.8
10.744,0.36364,0.94037,0.025391,0.65098,0.80588
10.752,0.37537,0.95797,0.025391,0.6902,0.80588
10.76,0.38905,0.97654,0.03125,0.66078,0.80588
10.768,0.40567,0.98827,0.041016,0.69608,0.8
10.776,0.42326,1,0.050781,0.66471,0.7902
10.784,0.44184,1,0.054688,0.7098,0.79608
10.792,0.45943,1,0.050781,0.68039,0.78627
10.8,0.4741,1,0.076172,0.72157,0.78039
10.808,0.48583,1,0.085938,0.68627,0.77647
10.816,0.49756,1,0.089844,0.73137,0.77647
10.824,0.50831,1,0.085938,0.68039,0.77059
10.832,0.51711,1,0.089844,0.7098,0.77059
10.84,0.52493,1,0.089844,0.6549,0.76667
10.848,0.52981,1,0.085938,0.68627,0.76667
10.856,0.53372,1,0.076172,0.64118,0.77647
10.864,0.53763,1,0.054688,0.67647,0.78627
10.872,0.54057,1,0.03125,0.63529,0.80588
10.88,0.54252,1,0.015625,0.66471,0.81176
10.888,0.5435,1,0.0097656,0.67059,0.81569
10.896,0.5435,1,0,0.64118,0.82157
10.904,0.5435,1,0,0.67647,0.82549
10.912,0.5435,1,-0.0039062,0.63529,0.82157
10.92,0.5435,1,-0.0039062,0.67059,0.82549
10.928,0.5435,1,0,0.63529,0.82157
10.936,0.54154,1,0.0058594,0.67647,0.81569
10.944,0.53959,1,-0.0039062,0.63529,0.82157
10.952,0.53763,1,0.0058594,0.67647,0.82157
10.96,0.53568,1,0.015625,0.63529,0.81569
10.968,0.53177,1,0.015625,0.66471,0.81569
10.976,0.52688,1,0.050781,0.63529,0.79608
10.984,0.52004,1,0.18555,0.67059,0.71569
10.992,0.5132,1,0.45508,0.5549,0.56078
11,0.50733,1,0.89453,0.49412,0.31373
11.008,0.50147,1,1.1191,0.38431,0.19412
11.016,0.49462,1,0.84961,0.4451,0.37059
11.024,0.48778,1,0.18945,0.5098,0.7451
11.032,0.48094,1,-0.26367,0.6451,0.99216
11.04,0.47507,1,-0.21484,0.61569,0.95098
11.048,0.47019,1,-0.11523,0.66078,0.88627
11.056,0.4653,1,-0.035156,0.62941,0.84118
11.064,0.46823,1,-0.0097656,0.67059,0.82549
11.072,0.47605,1,-0.0039062,0.65098,0.82157
11.08,0.47801,1,0.0097656,0.68627,0.81569
11.088,0.47801,1,0.015625,0.6549,0.81569
11.096,0.47605,1,0.015625,0.68627,0.81569
11.104,0.47507,1,0.03125,0.6902,0.8
11.112,0.47214,1,0.03125,0.65098,0.79608
11.12,0.47019,1,0.041016,0.6902,0.79608
11.128,0.46823,1,0.050781,0.6549,0.7902
11.136,0.46628,1,0.050781,0.69608,0.79608
11.144,0.4653,1,0.064453,0.66078,0.78039
11.152,0.46432,1,0.064453,0.69608,0.78039
11.16,0.46139,1,0.070312,0.65098,0.77647
11.168,0.45846,1,0.080078,0.68627,0.77647
11.176,0.45552,1,0.085938,0.6549,0.77059
11.184,0.45161,1,0.095703,0.67647,0.76667
11.192,0.44966,1,0.10547,0.64118,0.7549
11.2,0.4477,1,0.11523,0.67059,0.75098
11.208,0.44575,1,0.125,0.62941,0.7451
11.216,0.44477,1,0.13477,0.67059,0.73529
11.224,0.44282,1,0.15039,0.62941,0.73137
11.232,0.44086,1,0.15625,0.68039,0.73137
11.24,0.43891,1,0.16602,0.64118,0.72157
11.248,0.43695,1,0.16992,0.67647,0.71569
11.256,0.43402,1,0.16016,0.6451,0.72157
11.264,0.43206,1,0.15039,0.69608,0.73137
11.272,0.43011,1,0.13086,0.66471,0.73529
11.28,0.42815,1,0.11133,0.72157,0.7451
11.288,0.4262,1,0.080078,0.70588,0.76667
11.296,0.42522,1,0.050781,0.7451,0.78039
11.304,0.42326,1,0.03125,0.7549,0.79608
11.312,0.42229,1,0.0097656,0.73137,0.80588
11.32,0.42131,1,-0.0039062,0.77647,0.82549
11.328,0.42033,1,-0.013672,0.74118,0.82549
11.336,0.42131,1,-0.025391,0.79608,0.84118
11.344,0.42229,1,-0.029297,0.76078,0.84118
11.352,0.42326,1,-0.029297,0.80588,0.8451
11.36,0.42326,1,-0.029297,0.77059,0.8451
11.368,0.42229,1,-0.025391,0.81569,0.85098
11.376,0.42131,1,-0.019531,0.77647,0.83529
11.384,0.41935,1,-0.019531,0.81176,0.83137
11.392,0.4174,1,-0.013672,0.7902,0.84118
11.4,0.41642,1,-0.0097656,0.82549,0.83529
11.408,0.41544,1,-0.0039062,0.78039,0.82549
11.416,0.41544,1,-0.0039062,0.83137,0.83137
11.424,0.41447,1,0,0.79608,0.83137
11.432,0.41349,1,0.0058594,0.83529,0.82549
11.44,0.41251,1,0.0097656,0.7902,0.82157
11.448,0.41153,1,0.015625,0.83137,0.81569
11.456,0.41056,1,0.019531,0.79608,0.80588
11.464,0.41056,1,0.025391,0.83137,0.81176
11.472,0.41153,1,0.03125,0.8,0.81176
11.48,0.41251,1,0.03125,0.82549,0.81176
11.488,0.41447,1,0.035156,0.79608,0.80588
11.496,0.41838,1,0.03125,0.82549,0.81176
11.504,0.42229,1,0.03125,0.8,0.80588
11.512,0.42913,1,0.025391,0.83529,0.80588
11.52,0.43891,1,0.03125,0.85098,0.81176
11.528,0.44966,1,0.03125,0.80588,0.80588
11.536,0.46237,1,0.025391,0.85098,0.81176
11.544,0.47801,1,0.03125,0.81176,0.80588
11.552,0.49365,1,0.035156,0.86078,0.80588
11.56,0.50831,1,0.041016,0.83137,0.80588
11.568,0.52395,1,0.044922,0.87059,0.8
11.576,0.53861,1,0.050781,0.83529,0.8
11.584,0.55132,1,0.064453,0.87059,0.7902
11.592,0.56207,1,0.076172,0.8451,0.78039
11.6,0.56989,1,0.089844,0.88039,0.78039
11.608,0.5738,1,0.085938,0.83137,0.78039
11.616,0.57771,1,0.085938,0.85686,0.77647
11.624,0.58162,1,0.085938,0.81176,0.77059
11.632,0.58456,1,0.080078,0.8451,0.77647
11.64,0.58749,1,0.076172,0.80588,0.78039
11.648,0.58847,1,0.060547,0.84118,0.78627
11.656,0.58944,1,0.035156,0.8,0.8
11.664,0.59042,1,0.015625,0.8451,0.81569
11.672,0.59042,1,0.0058594,0.80588,0.82549
11.68,0.59042,1,0,0.83529,0.82549
11.688,0.59042,1,-0.0039062,0.8,0.83137
11.696,0.59042,1,-0.0039062,0.83137,0.82549
11.704,0.58944,1,-0.0039062,0.84118,0.82549
11.712,0.58847,1,-0.0039062,0.81176,0.83137
11.72,0.58749,1,-0.0039062,0.85098,0.83137
11.728,0.58651,1,0,0.82549,0.82549
11.736,0.58456,1,0.0097656,0.87647,0.82157
11.744,0.5826,1,0.015625,0.83137,0.82157
11.752,0.57967,1,0.015625,0.87647,0.82549
11.76,0.57771,1,0.03125,0.84118,0.81176
11.768,0.57478,1,0.14453,0.90196,0.7451
11.776,0.57087,0.99804,0.36523,0.81569,0.61569
11.784,0.56598,0.99609,0.75977,0.82549,0.39412
11.792,0.56012,0.98436,1.0801,0.62941,0.21373
11.8,0.55523,0.97361,0.92383,0.60588,0.31961
11.808,0.54936,0.96383,0.375,0.6,0.6451
11.816,0.54448,0.95308,-0.19336,0.83529,0.95098
11.824,0.53861,0.9433,-0.24414,0.83137,0.98235
11.832,0.53177,0.93353,-0.11523,0.88039,0.90196
11.84,0.5259,0.92278,-0.048828,0.85098,0.86667
11.848,0.52004,0.91202,-0.013672,0.90196,0.83137
11.856,0.51711,0.90323,-0.0039062,0.87059,0.82549
11.864,0.51515,0.89345,0.0058594,0.91176,0.82157
11.872,0.51417,0.88465,0.0097656,0.87647,0.81569
11.88,0.5132,0.87586,0.019531,0.91176,0.81176
11.888,0.5132,0.86608,0.03125,0.88627,0.80588
11.896,0.5132,0.85728,0.03125,0.92549,0.80588
11.904,0.5132,0.84751,0.035156,0.90196,0.80588
11.912,0.5132,0.83773,0.041016,0.8902,0.8
11.92,0.5132,0.82796,0.050781,0.92157,0.79608
11.928,0.5132,0.8172,0.054688,0.8902,0.7902
11.936,0.51222,0.80645,0.064453,0.93137,0.78627
11.944,0.51026,0.7957,0.064453,0.88627,0.78039
11.952,0.50831,0.78495,0.076172,0.92157,0.77647
11.96,0.50538,0.77517,0.085938,0.87647,0.78039
11.968,0.50147,0.76637,0.089844,0.90588,0.77059
11.976,0.49853,0.7566,0.099609,0.86667,0.76667
11.984,0.4956,0.7478,0.11133,0.89608,0.7549
11.992,0.49169,0.739,0.12109,0.85098,0.75098
12,0.48876,0.73021,0.13086,0.87059,0.74118
12.008,0.4868,0.72239,0.13477,0.83137,0.74118
12.016,0.48387,0.71359,0.15039,0.87059,0.73137
12.024,0.48192,0.70577,0.15625,0.83137,0.73137
12.032,0.47996,0.69892,0.15039,0.87059,0.73137
12.04,0.47801,0.6911,0.14453,0.83137,0.73137
12.048,0.47703,0.68231,0.13477,0.87059,0.74118
12.056,0.47605,0.67449,0.12109,0.83529,0.7451
12.064,0.47312,0.66569,0.10547,0.88627,0.7549
12.072,0.47019,0.65689,0.085938,0.85098,0.76667
12.08,0.46725,0.64712,0.060547,0.89608,0.7902
12.088,0.46432,0.63734,0.03125,0.87059,0.80588
12.096,0.46237,0.62659,0.0058594,0.91176,0.81176
12.104,0.46041,0.61584,-0.0039062,0.88627,0.81569
12.112,0.45748,0.60606,-0.019531,0.92157,0.83137
12.12,0.4565,0.59629,-0.029297,0.93137,0.84118
12.128,0.45552,0.58651,-0.029297,0.90196,0.85098
12.136,0.45357,0.57771,-0.035156,0.93725,0.8451
12.144,0.45161,0.56794,-0.029297,0.89608,0.85098
12.152,0.45064,0.55816,-0.025391,0.93137,0.8451
12.16,0.44868,0.54839,-0.025391,0.88627,0.85098
12.168,0.44673,0.53861,-0.013672,0.92157,0.84118
12.176,0.44477,0.52981,-0.013672,0.87647,0.84118
12.184,0.44282,0.52102,-0.0097656,0.91176,0.83529
12.192,0.44086,0.5132,-0.0039062,0.87059,0.83137
12.2,0.43988,0.50538,-0.0039062,0.90588,0.83137
12.208,0.43891,0.49951,0.0058594,0.86667,0.82549
12.216,0.43793,0.49365,0.0097656,0.90196,0.82549
12.224,0.43793,0.48974,0.015625,0.86078,0.82157
12.232,0.43695,0.48583,0.025391,0.90588,0.81569
12.24,0.43597,0.48387,0.025391,0.87059,0.81569
12.248,0.43402,0.48192,0.03125,0.91176,0.81176
12.256,0.43206,0.48192,0.03125,0.86667,0.80588
12.264,0.43109,0.48094,0.025391,0.90588,0.81569
12.272,0.43206,0.48094,0.035156,0.87059,0.82157
12.28,0.43402,0.48094,0.035156,0.90588,0.81176
12.288,0.43891,0.48094,0.035156,0.87059,0.81176
12.296,0.44575,0.48192,0.03125,0.90588,0.81569
12.304,0.45357,0.48192,0.03125,0.87647,0.81176
12.312,0.4653,0.48289,0.025391,0.86667,0.81176
12.32,0.47898,0.48387,0.03125,0.89608,0.81569
12.328,0.4956,0.48387,0.03125,0.85098,0.81176
12.336,0.5132,0.48387,0.035156,0.89608,0.80588
12.344,0.52981,0.48387,0.041016,0.85686,0.80588
12.352,0.54643,0.48289,0.044922,0.90588,0.80588
12.36,0.56109,0.48094,0.050781,0.87647,0.8
12.368,0.57478,0.47703,0.054688,0.92157,0.80588
12.376,0.58553,0.47214,0.064453,0.88039,0.7902
12.384,0.59433,0.4653,0.080078,0.92549,0.78039
12.392,0.60117,0.45846,0.089844,0.8902,0.78039
12.4,0.60508,0.44868,0.080078,0.91569,0.78627
12.408,0.60899,0.43988,0.085938,0.87647,0.78039
12.416,0.61193,0.42815,0.085938,0.90588,0.78039
12.424,0.61388,0.4174,0.080078,0.86078,0.78039
12.432,0.61486,0.40567,0.080078,0.89608,0.78039
12.44,0.61584,0.39492,0.060547,0.85098,0.7902
12.448,0.61681,0.38319,0.035156,0.8902,0.80588
12.456,0.61779,0.37243,0.015625,0.85098,0.81176
12.464,0.61975,0.35973,0.0058594,0.88627,0.82549
12.472,0.62072,0.34702,0.0058594,0.84118,0.82549
12.48,0.6217,0.33333,0.0058594,0.88039,0.82549
12.488,0.62268,0.32063,0,0.8451,0.82157
12.496,0.62268,0.3089,0,0.88039,0.82549
12.504,0.6217,0.29619,0,0.85098,0.82549
12.512,0.6217,0.28543,0.0058594,0.88039,0.82549
12.52,0.61975,0.27468,0.0058594,0.8902,0.82549
12.528,0.61584,0.26491,0.0097656,0.85098,0.82157
12.536,0.6129,0.25415,0.015625,0.8902,0.81569
12.544,0.60899,0.24438,0.015625,0.85686,0.81569
12.552,0.60508,0.2346,0.044922,0.90588,0.8
12.56,0.6002,0.22483,0.16016,0.87059,0.73529
12.568,0.59433,0.21603,0.40039,0.87647,0.59608
12.576,0.58749,0.20723,0.78906,0.75098,0.37059
12.584,0.58065,0.19746,1.0586,0.65098,0.21961
12.592,0.5738,0.18964,0.85547,0.58431,0.3549
12.6,0.56891,0.18182,0.26562,0.72157,0.7
12.608,0.56305,0.174,-0.21875,0.8,0.96667
12.616,0.55718,0.16618,-0.24414,0.85098,0.98235
12.624,0.55034,0.15836,-0.099609,0.84118,0.88627
12.632,0.54545,0.15054,-0.029297,0.88627,0.8451
12.64,0.54057,0.14174,-0.0039062,0.85098,0.82549
12.648,0.53763,0.13392,0.0058594,0.89608,0.82157
12.656,0.5347,0.1261,0.0097656,0.85686,0.82549
12.664,0.53275,0.11926,0.019531,0.8902,0.81176
12.672,0.53079,0.11144,0.03125,0.85098,0.80588
12.68,0.52786,0.10459,0.035156,0.8902,0.80588
12.688,0.5259,0.096774,0.041016,0.86667,0.80588
12.696,0.52395,0.088954,0.044922,0.8902,0.80588
12.704,0.52004,0.079179,0.050781,0.85686,0.8
12.712,0.51711,0.069404,0.060547,0.88039,0.79608
12.72,0.51417,0.059629,0.064453,0.8902,0.7902
12.728,0.51124,0.050831,0.070312,0.85098,0.78627
12.736,0.50831,0.041056,0.080078,0.88627,0.78039
12.744,0.50635,0.031281,0.089844,0.84118,0.77647
12.752,0.5044,0.02346,0.095703,0.87647,0.76667
12.76,0.50147,0.014663,0.10547,0.83137,0.76078
12.768,0.49853,0.0078201,0.11133,0.86667,0.76078
12.776,0.4956,0.00097752,0.12109,0.81569,0.7549
12.784,0.49169,0,0.125,0.85098,0.7451
12.792,0.48876,0,0.14062,0.81176,0.73137
12.8,0.48583,0,0.15039,0.84118,0.73137
12.808,0.48387,0,0.15625,0.8,0.73137
12.816,0.48094,0,0.16016,0.83529,0.72549
12.824,0.47996,0,0.16016,0.8,0.72157
12.832,0.47801,0,0.15625,0.83529,0.72549
12.84,0.47507,0,0.14062,0.80588,0.73137
12.848,0.47312,0,0.12109,0.85686,0.74118
12.856,0.46921,0,0.095703,0.82157,0.7549
12.864,0.46628,0,0.070312,0.87059,0.77059
12.872,0.46334,0,0.044922,0.84118,0.78039
12.88,0.45943,0,0.025391,0.88039,0.79608
12.888,0.4565,0,0.015625,0.85098,0.8
12.896,0.45455,0,-0.0039062,0.89608,0.81569
12.904,0.45357,0,-0.019531,0.90196,0.83137
12.912,0.45259,0,-0.029297,0.87059,0.84118
12.92,0.45064,0,-0.029297,0.90588,0.84118
12.928,0.44966,0,-0.025391,0.87059,0.84118
12.936,0.44868,0,-0.025391,0.90588,0.8451
12.944,0.44673,0,-0.025391,0.87059,0.8451
12.952,0.44477,0,-0.013672,0.90588,0.84118
12.96,0.44379,0,-0.013672,0.86078,0.84118
12.968,0.44282,0,-0.0039062,0.90196,0.83529
12.976,0.44184,0,0,0.86078,0.83137
12.984,0.44184,0,0.0058594,0.90196,0.82549
12.992,0.44184,0,0.0097656,0.86667,0.82157
13,0.44184,0,0.015625,0.90196,0.81569
13.008,0.44086,0,0.019531,0.86078,0.81176
13.016,0.43988,0,0.025391,0.90196,0.81569
13.024,0.43891,0,0.03125,0.86667,0.80588
13.032,0.43793,0,0.035156,0.90196,0.80588
13.04,0.43695,0,0.041016,0.87059,0.80588
13.048,0.43695,0,0.044922,0.90196,0.79608
13.056,0.43793,0,0.044922,0.87059,0.8
13.064,0.43891,0,0.044922,0.90588,0.79608
13.072,0.44184,0,0.050781,0.86667,0.79608
13.08,0.44575,0,0.044922,0.90588,0.8
13.088,0.45259,0,0.041016,0.86667,0.79608
13.096,0.45943,0,0.041016,0.89608,0.80588
13.104,0.46921,0.0029325,0.041016,0.86667,0.80588
13.112,0.47703,0.0058651,0.041016,0.8902,0.80588
13.12,0.48583,0.012708,0.041016,0.89608,0.80588
13.128,0.49658,0.018573,0.041016,0.86078,0.80588
13.136,0.50929,0.024438,0.035156,0.90196,0.80588
13.144,0.52297,0.029326,0.044922,0.86667,0.79608
13.152,0.53666,0.034213,0.054688,0.91176,0.7902
13.16,0.54936,0.039101,0.064453,0.87647,0.78627
13.168,0.55914,0.041056,0.064453,0.92157,0.78039
13.176,0.56891,0.043988,0.076172,0.88627,0.77647
13.184,0.57674,0.043988,0.089844,0.93137,0.76667
13.192,0.58162,0.043988,0.10547,0.89608,0.76078
13.2,0.58456,0.042033,0.10547,0.92157,0.76667
13.208,0.58651,0.040078,0.099609,0.87059,0.77059
13.216,0.58749,0.036168,0.10547,0.8902,0.76078
13.224,0.58749,0.033236,0.099609,0.84118,0.76667
13.232,0.58847,0.030303,0.089844,0.87059,0.77059
13.24,0.58944,0.026393,0.076172,0.83137,0.77647
13.248,0.59238,0.022483,0.044922,0.86667,0.79608
13.256,0.59433,0.01955,0.035156,0.82549,0.80588
13.264,0.59629,0.014663,0.015625,0.86667,0.81569
13.272,0.59726,0.010753,0.015625,0.81569,0.82157
13.28,0.59824,0.0058651,0.0058594,0.86078,0.82549
13.288,0.59824,0.00097752,0.0097656,0.81569,0.81569
13.296,0.59824,0,0.015625,0.85098,0.82157
13.304,0.59629,0,0.0097656,0.82157,0.82549
13.312,0.59335,0,0.0097656,0.85686,0.82549
13.32,0.58944,0,0.015625,0.82549,0.82157
13.328,0.58553,0,0.015625,0.82157,0.81569
13.336,0.58162,0,0.019531,0.85098,0.80588
13.344,0.57674,0,0.025391,0.81176,0.81569
13.352,0.57087,0,0.015625,0.85686,0.80588
13.36,0.565,0,0.13086,0.83137,0.75098
13.368,0.55816,0,0.31445,0.85098,0.64118
13.376,0.5523,0,0.67969,0.74118,0.42941
13.384,0.54545,0,1.0449,0.62549,0.22353
13.392,0.53959,0,0.93555,0.56078,0.3
13.4,0.5347,0,0.4707,0.6451,0.58039
13.408,0.52884,0,-0.14844,0.7549,0.93137
13.416,0.52199,0,-0.25,0.82157,0.98627
13.424,0.51711,0,-0.125,0.8,0.89608
13.432,0.51222,0,-0.048828,0.85098,0.85686
13.44,0.50929,0,-0.0097656,0.82549,0.82549
13.448,0.50635,0,0,0.86667,0.82549
13.456,0.5044,0,0.0097656,0.82157,0.81176
13.464,0.50147,0,0.019531,0.86667,0.80588
13.472,0.49951,0,0.03125,0.81569,0.80588
13.48,0.49853,0,0.041016,0.86078,0.8
13.488,0.49756,0,0.041016,0.83137,0.79608
13.496,0.49658,0,0.041016,0.86667,0.79608
13.504,0.49462,0,0.050781,0.83137,0.79608
13.512,0.49071,0,0.054688,0.86667,0.7902
13.52,0.48778,0,0.064453,0.83529,0.78039
13.528,0.48387,0,0.064453,0.85098,0.78039
13.536,0.48094,0,0.070312,0.82157,0.78039
13.544,0.47801,0,0.080078,0.81176,0.77647
13.552,0.47605,0,0.085938,0.85098,0.76667
13.56,0.47312,0,0.095703,0.80588,0.76078
13.568,0.47116,0,0.11133,0.85098,0.7549
13.576,0.46823,0,0.11133,0.80588,0.75098
13.584,0.4653,0,0.125,0.85098,0.7451
13.592,0.46237,0,0.13086,0.8,0.73529
13.6,0.46041,0,0.13477,0.83137,0.73137
13.608,0.45846,0,0.14453,0.79608,0.73137
13.616,0.45552,0,0.14453,0.82549,0.73137
13.624,0.45259,0,0.15039,0.7902,0.72549
13.632,0.45064,0,0.14062,0.82157,0.73137
13.64,0.4477,0,0.13086,0.78627,0.73137
13.648,0.44575,0,0.11133,0.83137,0.7451
13.656,0.44282,0,0.095703,0.79608,0.75098
13.664,0.43988,0,0.064453,0.8451,0.77059
13.672,0.43793,0,0.050781,0.82157,0.78039
13.68,0.435,0,0.025391,0.87059,0.79608
13.688,0.43402,0,-0.0039062,0.83529,0.81569
13.696,0.43304,0,-0.0039062,0.88039,0.82549
13.704,0.43206,0,-0.019531,0.85098,0.82549
13.712,0.43011,0,-0.035156,0.89608,0.84118
13.72,0.42913,0,-0.035156,0.86667,0.84118
13.728,0.42815,0,-0.035156,0.89608,0.85098
13.736,0.4262,0,-0.029297,0.90196,0.84118
13.744,0.42424,0,-0.019531,0.86078,0.83529
13.752,0.42229,0,-0.025391,0.89608,0.84118
13.76,0.42131,0,-0.025391,0.85686,0.8451
13.768,0.42033,0,-0.013672,0.89608,0.83137
13.776,0.41935,0,-0.013672,0.85686,0.83529
13.784,0.41838,0,-0.0039062,0.89608,0.82549
13.792,0.41838,0,0.0058594,0.85098,0.82549
13.8,0.4174,0,0.0097656,0.8902,0.82157
13.808,0.4174,0,0.015625,0.8451,0.81569
13.816,0.4174,0,0.019531,0.88039,0.80588
13.824,0.41544,0,0.019531,0.8451,0.80588
13.832,0.41447,0,0.025391,0.88039,0.81176
13.84,0.41349,0,0.035156,0.83529,0.80588
13.848,0.41251,0,0.041016,0.87059,0.80588
13.856,0.41251,0,0.035156,0.83137,0.80588
13.864,0.41349,0,0.03125,0.87059,0.80588
13.872,0.41642,0.001955,0.035156,0.83529,0.80588
13.88,0.42131,0.0048876,0.041016,0.87647,0.80588
13.888,0.4262,0.01564,0.035156,0.83137,0.80588
13.896,0.43304,0.026393,0.03125,0.87059,0.80588
13.904,0.44184,0.038123,0.03125,0.83137,0.80588
13.912,0.45259,0.048876,0.025391,0.85686,0.81176
13.92,0.46628,0.061584,0.025391,0.81569,0.80588
13.928,0.48094,0.073314,0.025391,0.8451,0.81176
13.936,0.4956,0.084066,0.041016,0.82549,0.8
13.944,0.51026,0.095797,0.041016,0.85686,0.8
13.952,0.52395,0.10655,0.044922,0.87059,0.7902
13.96,0.53666,0.11632,0.050781,0.83137,0.7902
13.968,0.54839,0.1261,0.060547,0.87647,0.78039
13.976,0.55816,0.13587,0.076172,0.83137,0.78039
13.984,0.56598,0.1437,0.089844,0.87647,0.77059
13.992,0.57087,0.15249,0.085938,0.84118,0.77647
14,0.5738,0.15836,0.089844,0.86667,0.78039
14.008,0.57674,0.1652,0.089844,0.82157,0.76078
14.016,0.57869,0.16911,0.089844,0.83137,0.77059
14.024,0.57967,0.174,0.089844,0.7902,0.77647
14.032,0.57967,0.17693,0.070312,0.81569,0.78039
14.04,0.57967,0.18084,0.041016,0.77059,0.8
14.048,0.57967,0.18377,0.019531,0.8,0.81176
14.056,0.57967,0.18671,0.0097656,0.7549,0.80588
14.064,0.57967,0.18866,-0.0039062,0.7902,0.82157
14.072,0.57967,0.19159,-0.0039062,0.7451,0.82549
14.08,0.57967,0.19355,-0.0039062,0.78039,0.82549
14.088,0.57967,0.1955,0,0.7451,0.82157
14.096,0.57869,0.19746,0.0058594,0.78039,0.82549
14.104,0.57869,0.19941,0,0.74118,0.82157
14.112,0.57674,0.20235,0.0058594,0.76667,0.82549
14.12,0.57478,0.2043,0.0058594,0.73529,0.81569
14.128,0.57087,0.20723,0.015625,0.77059,0.81569
14.136,0.56696,0.21017,0.0097656,0.74118,0.82157
14.144,0.56305,0.21408,0.015625,0.73529,0.81569
14.152,0.55718,0.21799,0.076172,0.78039,0.78039
14.16,0.55132,0.2219,0.23047,0.73137,0.6902
14.168,0.54545,0.22678,0.53516,0.67059,0.5098
14.176,0.53763,0.23167,0.93945,0.57059,0.27843
14.184,0.52981,0.23656,1.0488,0.51569,0.22353
14.192,0.52297,0.24145,0.67578,0.50588,0.46471
14.2,0.51711,0.24633,-0.0039062,0.7,0.86078
14.208,0.51026,0.25122,-0.28906,0.73137,1.002
14.216,0.5044,0.25611,-0.19336,0.7451,0.93725
14.224,0.49951,0.261,-0.083984,0.7098,0.87059
14.232,0.4956,0.26686,-0.035156,0.7451,0.84118
14.24,0.49462,0.27273,-0.0039062,0.71569,0.82549
14.248,0.49365,0.27859,0.0058594,0.7451,0.81569
14.256,0.49267,0.28348,0.015625,0.7,0.80588
14.264,0.49169,0.28837,0.025391,0.75098,0.80588
14.272,0.48974,0.29326,0.041016,0.7098,0.8
14.28,0.48876,0.29717,0.035156,0.75098,0.80588
14.288,0.48778,0.30205,0.035156,0.7,0.80588
14.296,0.4868,0.30596,0.041016,0.73529,0.8
14.304,0.48485,0.31085,0.050781,0.70588,0.7902
14.312,0.48192,0.31574,0.054688,0.73529,0.78627
14.32,0.47898,0.32063,0.054688,0.69608,0.78627
14.328,0.47507,0.32551,0.070312,0.71569,0.78039
14.336,0.47116,0.33138,0.076172,0.72157,0.77647
14.344,0.46725,0.33724,0.085938,0.68039,0.77059
14.352,0.46334,0.34213,0.089844,0.72157,0.76667
14.36,0.45846,0.348,0.099609,0.68039,0.7549
14.368,0.45455,0.35288,0.10547,0.71569,0.76078
14.376,0.45064,0.35875,0.11523,0.67647,0.7451
14.384,0.44673,0.36461,0.13086,0.7098,0.74118
14.392,0.44282,0.37048,0.13477,0.66078,0.73529
14.4,0.43891,0.37732,0.14062,0.70588,0.74118
14.408,0.43597,0.38514,0.15039,0.66078,0.72157
14.416,0.43402,0.39198,0.16016,0.68627,0.71569
14.424,0.43109,0.39883,0.16016,0.6549,0.72549
14.432,0.43011,0.40665,0.14453,0.6902,0.72157
14.44,0.42913,0.41349,0.13477,0.6549,0.73137
14.448,0.42913,0.42229,0.11523,0.7,0.7451
14.456,0.42815,0.43109,0.089844,0.67059,0.7549
14.464,0.42815,0.44086,0.070312,0.72157,0.77647
14.472,0.42815,0.45064,0.044922,0.68627,0.78627
14.48,0.42717,0.46041,0.025391,0.74118,0.8
14.488,0.42717,0.47019,0.0058594,0.7098,0.81176
14.496,0.4262,0.47996,-0.0039062,0.7451,0.82157
14.504,0.42424,0.48974,-0.019531,0.7098,0.82549
14.512,0.42229,0.49853,-0.025391,0.75098,0.83137
14.52,0.42033,0.50831,-0.019531,0.73137,0.83529
14.528,0.41838,0.51711,-0.029297,0.76078,0.83529
14.536,0.41642,0.5259,-0.029297,0.73137,0.84118
14.544,0.41447,0.53568,-0.025391,0.72549,0.84118
14.552,0.41251,0.54545,-0.019531,0.7549,0.83529
14.56,0.41056,0.55621,-0.019531,0.72157,0.83137
14.568,0.4086,0.56696,-0.0097656,0.7549,0.83529
14.576,0.40567,0.57674,-0.0039062,0.72157,0.83137
14.584,0.40371,0.58749,0.0058594,0.7549,0.82549
14.592,0.40274,0.59824,0.0097656,0.70588,0.81569
14.6,0.40078,0.60899,0.015625,0.74118,0.81176
14.608,0.3998,0.62268,0.019531,0.7098,0.81569
14.616,0.39785,0.63636,0.025391,0.7451,0.80588
14.624,0.39492,0.65396,0.03125,0.72157,0.80588
14.632,0.39198,0.67058,0.025391,0.7451,0.81176
14.64,0.39003,0.6911,0.041016,0.7098,0.80588
14.648,0.3871,0.71065,0.035156,0.7451,0.80588
14.656,0.38514,0.73314,0.035156,0.70588,0.80588
14.664,0.38416,0.75562,0.041016,0.73529,0.8
14.672,0.38514,0.77517,0.035156,0.69608,0.79608
14.68,0.38807,0.7957,0.041016,0.73529,0.8
14.688,0.39296,0.81329,0.035156,0.68627,0.80588
14.696,0.3998,0.83187,0.03125,0.73137,0.80588
14.704,0.41056,0.84946,0.025391,0.6902,0.80588
14.712,0.42326,0.86804,0.03125,0.73137,0.81176
14.72,0.43793,0.88563,0.035156,0.7,0.8
14.728,0.45357,0.90323,0.041016,0.74118,0.80588
14.736,0.47019,0.91789,0.044922,0.71569,0.79608
14.744,0.48485,0.93255,0.060547,0.7451,0.78627
14.752,0.49853,0.94428,0.064453,0.75098,0.78039
14.76,0.51026,0.95601,0.070312,0.71569,0.78039
14.768,0.52102,0.96579,0.089844,0.76667,0.77059
14.776,0.52884,0.97556,0.099609,0.72157,0.76667
14.784,0.5347,0.9824,0.089844,0.7451,0.77647
14.792,0.53861,0.99022,0.089844,0.7,0.77059
14.8,0.54154,0.99511,0.089844,0.73529,0.76667
14.808,0.5435,1,0.089844,0.68039,0.77059
14.816,0.54545,1,0.080078,0.7098,0.77647
14.824,0.54741,1,0.054688,0.67059,0.7902
14.832,0.54936,1,0.035156,0.69608,0.80588
14.84,0.55132,1,0.015625,0.66078,0.82157
14.848,0.55425,1,0.015625,0.6902,0.82549
14.856,0.55523,1,0.0097656,0.6549,0.82157
14.864,0.55621,1,0.015625,0.68627,0.81569
14.872,0.55621,1,0.0058594,0.6451,0.81569
14.88,0.55718,1,0,0.6902,0.82157
14.888,0.55621,1,0,0.6451,0.82157
14.896,0.55523,1,0.0097656,0.68627,0.81569
14.904,0.55327,1,0.0058594,0.65098,0.82157
14.912,0.55132,1,0.015625,0.68627,0.81176
14.92,0.54741,1,0.015625,0.6451,0.81569
14.928,0.54448,1,0.015625,0.6902,0.81176
14.936,0.53959,1,0.060547,0.70588,0.78627
14.944,0.5347,1,0.20508,0.67647,0.70588
14.952,0.52884,1,0.48047,0.6098,0.5451
14.96,0.52199,1,0.93555,0.52941,0.2902
14.968,0.51613,1,1.0996,0.43922,0.20392
14.976,0.50929,1,0.81445,0.42941,0.3902
14.984,0.50244,1,0.13477,0.5902,0.77647
14.992,0.49658,1,-0.25977,0.67647,0.98627
15,0.49267,1,-0.19336,0.69608,0.94118
15.008,0.48778,1,-0.089844,0.66078,0.88039
15.016,0.48387,1,-0.025391,0.71569,0.83137
15.024,0.47996,1,-0.0039062,0.6902,0.82157
15.032,0.47703,1,0.0097656,0.73529,0.81176
15.04,0.4741,1,0.019531,0.70588,0.80588
15.048,0.47312,1,0.015625,0.75098,0.80588
15.056,0.47116,1,0.03125,0.71569,0.8
15.064,0.46921,1,0.035156,0.7549,0.79608
15.072,0.46628,1,0.044922,0.71569,0.8
15.08,0.46432,1,0.050781,0.76078,0.7902
15.088,0.46334,1,0.060547,0.7098,0.78627
15.096,0.46139,1,0.060547,0.7549,0.78039
15.104,0.45943,1,0.064453,0.7098,0.78039
15.112,0.45748,1,0.076172,0.75098,0.78039
15.12,0.45552,1,0.080078,0.70588,0.77647
15.128,0.45161,1,0.085938,0.74118,0.77059
15.136,0.4477,1,0.095703,0.7,0.76078
15.144,0.44379,1,0.10547,0.72549,0.75098
15.152,0.43988,1,0.11133,0.73137,0.75098
15.16,0.43891,1,0.125,0.69608,0.7451
15.168,0.43891,1,0.13477,0.73137,0.73529
15.176,0.43891,1,0.14453,0.68627,0.73137
15.184,0.43695,1,0.16016,0.71569,0.72549
15.192,0.43597,1,0.16016,0.67647,0.72157
15.2,0.435,1,0.16602,0.72157,0.72157
15.208,0.43304,1,0.16992,0.67647,0.71569
15.216,0.43109,1,0.16602,0.72549,0.71569
15.224,0.42913,1,0.15039,0.69608,0.72549
15.232,0.42815,1,0.125,0.73137,0.73529
15.24,0.4262,1,0.10547,0.70588,0.75098
15.248,0.4262,1,0.080078,0.76078,0.76667
15.256,0.42522,1,0.054688,0.74118,0.77647
15.264,0.42522,1,0.03125,0.8,0.79608
15.272,0.42424,1,0.0058594,0.77059,0.81176
15.28,0.42229,1,-0.0097656,0.82157,0.82157
15.288,0.42131,1,-0.025391,0.7902,0.83137
15.296,0.42033,1,-0.029297,0.84118,0.84118
15.304,0.41935,1,-0.029297,0.8,0.8451
15.312,0.41935,1,-0.035156,0.84118,0.85098
15.32,0.42033,1,-0.035156,0.8,0.85098
15.328,0.42131,1,-0.029297,0.84118,0.8451
15.336,0.42326,1,-0.025391,0.80588,0.85098
15.344,0.42326,1,-0.019531,0.83529,0.83529
15.352,0.42326,1,-0.0097656,0.80588,0.84118
15.36,0.42229,1,-0.013672,0.83529,0.84118
15.368,0.42033,1,-0.0039062,0.8451,0.83137
15.376,0.41838,1,-0.0039062,0.80588,0.82549
15.384,0.41642,1,0.0097656,0.8451,0.82157
15.392,0.41544,1,0.015625,0.80588,0.81569
15.4,0.41349,1,0.015625,0.85098,0.82157
15.408,0.41251,1,0.015625,0.81176,0.82157
15.416,0.41251,1,0.019531,0.85098,0.81569
15.424,0.41251,1,0.03125,0.81569,0.81176
15.432,0.41349,1,0.041016,0.85098,0.81176
15.44,0.41544,1,0.041016,0.81176,0.80588
15.448,0.4174,1,0.035156,0.84118,0.80588
15.456,0.41935,1,0.035156,0.8,0.80588
15.464,0.42326,1,0.035156,0.83529,0.80588
15.472,0.42913,1,0.03125,0.8,0.81176
15.48,0.43695,1,0.035156,0.8451,0.80588
15.488,0.44477,1,0.03125,0.80588,0.80588
15.496,0.45357,1,0.025391,0.8451,0.81176
15.504,0.46628,1,0.03125,0.80588,0.80588
15.512,0.48094,1,0.035156,0.85098,0.8
15.52,0.49658,1,0.03125,0.83137,0.80588
15.528,0.5132,1,0.044922,0.87059,0.8
15.536,0.52884,1,0.050781,0.83137,0.7902
15.544,0.5435,1,0.060547,0.86667,0.7902
15.552,0.55621,1,0.076172,0.85098,0.78039
15.56,0.56598,1,0.085938,0.88039,0.78039
15.568,0.57283,1,0.089844,0.84118,0.78039
15.576,0.57869,1,0.089844,0.85098,0.77647
15.584,0.5826,1,0.089844,0.82157,0.77647
15.592,0.58553,1,0.080078,0.8,0.77647
15.6,0.58651,1,0.080078,0.83529,0.78039
15.608,0.58847,1,0.060547,0.79608,0.7902
15.616,0.58944,1,0.035156,0.83529,0.80588
15.624,0.58944,1,0.015625,0.8,0.81569
15.632,0.58944,1,0.0058594,0.83137,0.82549
15.64,0.59042,1,0,0.79608,0.82549
15.648,0.59042,1,-0.0039062,0.82549,0.82549
15.656,0.59042,1,0,0.79608,0.82549
15.664,0.59042,1,0,0.83529,0.82549
15.672,0.59042,1,-0.0039062,0.8,0.82549
15.68,0.58944,1,-0.0039062,0.84118,0.82549
15.688,0.58749,1,0,0.79608,0.82549
15.696,0.58456,1,0.0058594,0.83529,0.82549
15.704,0.58065,1,0.015625,0.79608,0.82157
15.712,0.57674,1,0.015625,0.8451,0.82157
15.72,0.5738,1,0.041016,0.82549,0.81176
15.728,0.56989,1,0.16992,0.8451,0.73137
15.736,0.56696,1,0.39453,0.78627,0.6
15.744,0.56207,1,0.79883,0.73529,0.37059
15.752,0.55718,1,1.084,0.58431,0.21373
15.76,0.55132,0.99218,0.88477,0.5451,0.33922
15.768,0.54448,0.98338,0.30078,0.65098,0.68039
15.776,0.53861,0.97361,-0.20898,0.79608,0.96078
15.784,0.53275,0.96383,-0.24023,0.83137,0.97647
15.792,0.52786,0.95503,-0.09375,0.8,0.88627
15.8,0.52493,0.94624,-0.035156,0.86078,0.8451
15.808,0.52199,0.93744,-0.0097656,0.82549,0.82549
15.816,0.52004,0.92864,-0.0039062,0.86667,0.82157
15.824,0.51808,0.91984,0.0097656,0.82549,0.82157
15.832,0.51515,0.91105,0.015625,0.86078,0.81569
15.84,0.5132,0.90127,0.015625,0.82549,0.81176
15.848,0.51124,0.8915,0.025391,0.87059,0.81569
15.856,0.50929,0.8827,0.03125,0.84118,0.80588
15.864,0.50733,0.87292,0.041016,0.87647,0.80588
15.872,0.50635,0.86413,0.041016,0.8451,0.80588
15.88,0.5044,0.85435,0.050781,0.88039,0.79608
15.888,0.50244,0.84457,0.060547,0.84118,0.7902
15.896,0.50049,0.83578,0.064453,0.88039,0.78627
15.904,0.49658,0.82502,0.076172,0.83137,0.78039
15.912,0.49267,0.81525,0.080078,0.87059,0.78039
15.92,0.48974,0.8045,0.089844,0.82549,0.77647
15.928,0.4868,0.79374,0.099609,0.86078,0.77059
15.936,0.48387,0.78299,0.11133,0.82549,0.76078
15.944,0.48289,0.77224,0.11133,0.8451,0.7549
15.952,0.48094,0.76149,0.125,0.81569,0.7451
15.96,0.47898,0.75171,0.13477,0.84118,0.73529
15.968,0.47703,0.74291,0.15039,0.80588,0.72549
15.976,0.47507,0.73314,0.15625,0.79608,0.72157
15.984,0.4741,0.72434,0.16016,0.84118,0.72549
15.992,0.47214,0.71457,0.16602,0.8,0.7098
16,0.47116,0.70479,0.16016,0.85098,0.72157
16.008,0.46921,0.69501,0.14453,0.81176,0.72549
16.016,0.46628,0.68622,0.125,0.86078,0.73529
16.024,0.46334,0.67742,0.099609,0.82549,0.7549
16.032,0.45943,0.6696,0.080078,0.87059,0.76667
16.04,0.45552,0.6608,0.054688,0.83529,0.78039
16.048,0.45161,0.652,0.035156,0.88039,0.7902
16.056,0.44868,0.64223,0.0097656,0.85686,0.80588
16.064,0.44673,0.63245,-0.0039062,0.90588,0.82549
16.072,0.44477,0.6217,-0.025391,0.87059,0.83137
16.08,0.44379,0.60997,-0.029297,0.91569,0.84118
16.088,0.44282,0.59824,-0.029297,0.87647,0.83529
16.096,0.44282,0.58553,-0.029297,0.92157,0.8451
16.104,0.44184,0.57185,-0.029297,0.87647,0.8451
16.112,0.44086,0.56109,-0.029297,0.91569,0.8451
16.12,0.43988,0.54936,-0.025391,0.87647,0.84118
16.128,0.43891,0.53861,-0.025391,0.91569,0.8451
16.136,0.43695,0.52884,-0.013672,0.87647,0.84118
16.144,0.435,0.51906,-0.0097656,0.91569,0.83529
16.152,0.43304,0.50929,-0.0039062,0.87647,0.83137
16.16,0.43109,0.50049,-0.0039062,0.90588,0.83137
16.168,0.42913,0.49169,0.0058594,0.91176,0.82157
16.176,0.42717,0.48485,0.0097656,0.87647,0.82549
16.184,0.4262,0.47801,0.015625,0.91569,0.82157
16.192,0.42424,0.47214,0.015625,0.88039,0.82549
16.2,0.42326,0.46725,0.015625,0.92157,0.81569
16.208,0.42229,0.46334,0.015625,0.88627,0.81569
16.216,0.42131,0.46041,0.025391,0.92549,0.81176
16.224,0.42229,0.45943,0.025391,0.88627,0.81569
16.232,0.42326,0.45748,0.025391,0.92157,0.81176
16.24,0.4262,0.4565,0.025391,0.88039,0.80588
16.248,0.43206,0.4565,0.025391,0.91569,0.82157
16.256,0.43891,0.4565,0.025391,0.88039,0.81176
16.264,0.4477,0.4565,0.019531,0.91176,0.81176
16.272,0.46041,0.4565,0.015625,0.87647,0.82157
16.28,0.4741,0.4565,0.025391,0.91569,0.81569
16.288,0.48778,0.45552,0.035156,0.87647,0.81176
16.296,0.50049,0.45552,0.041016,0.92549,0.80588
16.304,0.51417,0.45357,0.050781,0.90196,0.80588
16.312,0.52884,0.45161,0.044922,0.94706,0.80588
16.32,0.5435,0.44966,0.060547,0.91176,0.8
16.328,0.55621,0.44673,0.070312,0.95686,0.78627
16.336,0.56794,0.44379,0.085938,0.92157,0.78039
16.344,0.57771,0.43988,0.089844,0.95098,0.78039
16.352,0.58651,0.43597,0.085938,0.90588,0.78039
16.36,0.59238,0.43206,0.085938,0.92549,0.78039
16.368,0.59726,0.42522,0.089844,0.88627,0.77647
16.376,0.6002,0.4174,0.080078,0.87059,0.78039
16.384,0.60215,0.4086,0.064453,0.90588,0.78627
16.392,0.60215,0.39883,0.041016,0.86078,0.80588
16.4,0.60313,0.3871,0.015625,0.90196,0.81176
16.408,0.60313,0.37537,0.0058594,0.85098,0.82157
16.416,0.60313,0.36364,0,0.89608,0.82549
16.424,0.60411,0.35093,0,0.86078,0.82549
16.432,0.60508,0.3392,-0.0039062,0.90196,0.82549
16.44,0.60606,0.32747,-0.0039062,0.86078,0.82549
16.448,0.60704,0.31672,-0.0039062,0.90196,0.82549
16.456,0.60802,0.30596,0,0.86078,0.82157
16.464,0.60899,0.29326,0.0097656,0.89608,0.82157
16.472,0.60802,0.28152,0.015625,0.85686,0.82157
16.48,0.60704,0.26882,0.015625,0.89608,0.81176
16.488,0.60411,0.25709,0.015625,0.86667,0.82157
16.496,0.6002,0.24633,0.019531,0.91569,0.81569
16.504,0.59629,0.23558,0.099609,0.8902,0.77059
16.512,0.59238,0.22581,0.26953,0.90196,0.67647
16.52,0.58651,0.21701,0.59961,0.81176,0.47451
16.528,0.58065,0.20723,0.98438,0.73529,0.25882
16.536,0.57478,0.19844,1.0488,0.61961,0.22353
16.544,0.56794,0.18866,0.60938,0.69608,0.50588
16.552,0.56109,0.17889,-0.064453,0.79608,0.88627
16.56,0.55425,0.17009,-0.24414,0.88039,0.97647
16.568,0.54741,0.16031,-0.14844,0.87059,0.91569
16.576,0.54057,0.15054,-0.058594,0.91176,0.86667
16.584,0.5347,0.14174,-0.0097656,0.92157,0.83137
16.592,0.52981,0.13294,0,0.88627,0.82157
16.6,0.5259,0.12512,0.0097656,0.92549,0.82157
16.608,0.52297,0.1173,0.015625,0.88627,0.81569
16.616,0.52004,0.10948,0.03125,0.92157,0.80588
16.624,0.51808,0.10068,0.03125,0.87647,0.80588
16.632,0.51515,0.091887,0.041016,0.92157,0.8
16.64,0.5132,0.082111,0.041016,0.8902,0.79608
16.648,0.51124,0.072336,0.044922,0.93137,0.8
16.656,0.50929,0.064516,0.054688,0.89608,0.7902
16.664,0.50635,0.055718,0.054688,0.93137,0.7902
16.672,0.50342,0.048876,0.064453,0.89608,0.78039
16.68,0.50147,0.041056,0.070312,0.92157,0.77647
16.688,0.49853,0.034213,0.085938,0.87647,0.77059
16.696,0.49658,0.02737,0.089844,0.91176,0.77059
16.704,0.49365,0.01955,0.099609,0.85686,0.76078
16.712,0.49071,0.012708,0.11133,0.90196,0.7549
16.72,0.48778,0.0058651,0.11133,0.85098,0.7549
16.728,0.48485,0,0.125,0.88039,0.7451
16.736,0.48192,0,0.13477,0.83529,0.73529
16.744,0.47801,0,0.14062,0.87059,0.74118
16.752,0.4741,0,0.15039,0.83137,0.73137
16.76,0.47019,0,0.16016,0.85686,0.72549
16.768,0.46725,0,0.16016,0.82549,0.72157
16.776,0.46432,0,0.15625,0.82157,0.73137
16.784,0.46237,0,0.13477,0.86078,0.73529
16.792,0.45943,0,0.125,0.82549,0.74118
16.8,0.45748,0,0.11133,0.87647,0.7549
16.808,0.45455,0,0.085938,0.83529,0.76667
16.816,0.45161,0,0.054688,0.8902,0.78039
16.824,0.44868,0,0.041016,0.85686,0.7902
16.832,0.44673,0,0.015625,0.90588,0.80588
16.84,0.44379,0,0,0.87647,0.82157
16.848,0.44184,0,-0.013672,0.92549,0.83137
16.856,0.44086,0,-0.025391,0.89608,0.83529
16.864,0.43891,0,-0.029297,0.92549,0.8451
16.872,0.43793,0,-0.029297,0.88627,0.85098
16.88,0.43695,0,-0.029297,0.92549,0.8451
16.888,0.43695,0,-0.029297,0.88627,0.84118
16.896,0.43695,0,-0.029297,0.92549,0.8451
16.904,0.43695,0,-0.019531,0.88627,0.8451
16.912,0.43597,0,-0.0097656,0.92157,0.84118
16.92,0.435,0,-0.0097656,0.88039,0.83529
16.928,0.43304,0,-0.0039062,0.92157,0.83137
16.936,0.43109,0,-0.0039062,0.88039,0.83529
16.944,0.43011,0,0.0058594,0.91176,0.83137
16.952,0.42815,0,0.015625,0.88039,0.82549
16.96,0.42717,0,0.015625,0.91569,0.82549
16.968,0.4262,0,0.019531,0.88039,0.82157
16.976,0.42522,0,0.015625,0.87059,0.82157
16.984,0.42522,0,0.025391,0.91176,0.82157
16.992,0.42424,0,0.03125,0.87059,0.82157
17,0.42424,0,0.025391,0.90588,0.81569
17.008,0.42326,0,0.03125,0.86078,0.81176
17.016,0.42424,0,0.025391,0.90196,0.81569
17.024,0.42717,0,0.03125,0.85098,0.81569
17.032,0.43109,0,0.025391,0.8902,0.81176
17.04,0.43695,0,0.025391,0.8451,0.82157
17.048,0.44477,0,0.025391,0.8902,0.81569
17.056,0.45552,0.0078201,0.019531,0.8451,0.82549
17.064,0.46823,0.01564,0.025391,0.88627,0.81569
17.072,0.48289,0.022483,0.03125,0.85686,0.80588
17.08,0.49853,0.030303,0.041016,0.89608,0.80588
17.088,0.51222,0.036168,0.044922,0.86078,0.80588
17.096,0.52395,0.043011,0.050781,0.90196,0.8
17.104,0.53763,0.047898,0.060547,0.86078,0.7902
17.112,0.55132,0.052786,0.070312,0.90588,0.78627
17.12,0.56305,0.055718,0.085938,0.86078,0.78039
17.128,0.57283,0.058651,0.080078,0.89608,0.78039
17.136,0.57967,0.060606,0.076172,0.8451,0.78627
17.144,0.58456,0.062561,0.085938,0.87647,0.77647
17.152,0.58944,0.063539,0.070312,0.83137,0.78039
17.16,0.59238,0.064516,0.070312,0.86667,0.78039
17.168,0.59531,0.063539,0.060547,0.83529,0.78627
17.176,0.59726,0.061584,0.03125,0.82549,0.80588
17.184,0.59726,0.058651,0.015625,0.86078,0.82157
17.192,0.59726,0.055718,0,0.82549,0.83137
17.2,0.59629,0.051808,-0.0039062,0.86667,0.82549
17.208,0.59629,0.046921,-0.0039062,0.81569,0.82549
17.216,0.59531,0.042033,-0.0039062,0.85098,0.82549
17.224,0.59531,0.037146,-0.0039062,0.80588,0.82549
17.232,0.59629,0.033236,-0.0039062,0.85098,0.83137
17.24,0.59726,0.029326,-0.0039062,0.81569,0.83137
17.248,0.59824,0.025415,0,0.85098,0.82549
17.256,0.59922,0.021505,0.0097656,0.81569,0.82157
17.264,0.59922,0.018573,0.015625,0.85098,0.82157
17.272,0.59726,0.01564,0.015625,0.82157,0.81569
17.28,0.59335,0.01173,0.025391,0.87059,0.80588
17.288,0.58944,0.0087977,0.125,0.83529,0.7549
17.296,0.5826,0.0068426,0.31445,0.8451,0.6451
17.304,0.57576,0.0048876,0.66992,0.73137,0.43529
17.312,0.56891,0.0039101,1.0293,0.6549,0.22941
17.32,0.56109,0.001955,1.0352,0.57059,0.22353
17.328,0.55425,0.00097752,0.46484,0.68039,0.58431
17.336,0.54643,0,-0.16016,0.77059,0.93725
17.344,0.53861,0,-0.25391,0.83529,0.98627
17.352,0.53177,0,-0.13477,0.81176,0.90588
17.36,0.52395,0,-0.044922,0.86667,0.85098
17.368,0.51711,0,-0.0039062,0.83529,0.82157
17.376,0.51026,0,0.0058594,0.86078,0.81569
17.384,0.50342,0,0.015625,0.86667,0.80588
17.392,0.49951,0,0.03125,0.82549,0.81176
17.4,0.49756,0,0.035156,0.86078,0.80588
17.408,0.49658,0,0.041016,0.82549,0.8
17.416,0.4956,0,0.041016,0.87647,0.78627
17.424,0.4956,0,0.044922,0.83529,0.78627
17.432,0.4956,0,0.050781,0.87059,0.7902
17.44,0.4956,0,0.064453,0.82549,0.78039
17.448,0.49462,0,0.064453,0.86078,0.77647
17.456,0.49267,0,0.076172,0.82549,0.77059
17.464,0.48876,0,0.080078,0.85686,0.77647
17.472,0.48583,0,0.089844,0.81176,0.77059
17.48,0.48289,0,0.095703,0.83529,0.76667
17.488,0.47996,0,0.10547,0.7902,0.7549
17.496,0.47703,0,0.11133,0.82549,0.7549
17.504,0.4741,0,0.11523,0.78039,0.7451
17.512,0.47116,0,0.125,0.82157,0.74118
17.52,0.46823,0,0.13477,0.77647,0.73529
17.528,0.46432,0,0.14062,0.81569,0.73137
17.536,0.45943,0,0.15039,0.76078,0.72157
17.544,0.45552,0,0.15625,0.79608,0.72549
17.552,0.45161,0,0.15625,0.7549,0.72549
17.56,0.4477,0,0.14453,0.7902,0.72549
17.568,0.44575,0,0.13477,0.76078,0.73137
17.576,0.44282,0,0.12109,0.8,0.74118
17.584,0.44086,0,0.099609,0.78627,0.75098
17.592,0.43891,0,0.080078,0.82157,0.76667
17.6,0.43597,0,0.050781,0.83529,0.78039
17.608,0.43304,0,0.025391,0.80588,0.79608
17.616,0.42913,0,0.0097656,0.85098,0.80588
17.624,0.42522,0,-0.0039062,0.81569,0.82157
17.632,0.42229,0,-0.019531,0.86667,0.82549
17.64,0.41935,0,-0.025391,0.83137,0.83137
17.648,0.4174,0,-0.029297,0.87647,0.84118
17.656,0.41447,0,-0.029297,0.83529,0.8451
17.664,0.41349,0,-0.029297,0.87059,0.85098
17.672,0.41153,0,-0.025391,0.84118,0.84118
17.68,0.41056,0,-0.013672,0.87059,0.83529
17.688,0.40958,0,-0.019531,0.83137,0.84118
17.696,0.40958,0,-0.013672,0.87059,0.83529
17.704,0.40958,0,-0.0039062,0.83137,0.82549
17.712,0.40958,0,-0.0039062,0.87647,0.83137
17.72,0.40958,0,0.0058594,0.83137,0.82157
17.728,0.4086,0,0.0058594,0.87647,0.82549
17.736,0.40665,0,0.0097656,0.82549,0.82157
17.744,0.40469,0,0.015625,0.86078,0.82549
17.752,0.40274,0,0.019531,0.82157,0.81176
17.76,0.40078,0.0039101,0.019531,0.85686,0.82157
17.768,0.39883,0.0078201,0.025391,0.82549,0.81176
17.776,0.39589,0.014663,0.025391,0.85098,0.80588
17.784,0.39492,0.021505,0.03125,0.82157,0.80588
17.792,0.39589,0.029326,0.03125,0.81569,0.80588
17.8,0.39687,0.038123,0.025391,0.86078,0.81176
17.808,0.3998,0.046921,0.025391,0.81569,0.80588
17.816,0.40567,0.055718,0.025391,0.86667,0.81569
17.824,0.41349,0.064516,0.03125,0.82549,0.81176
17.832,0.42229,0.074291,0.019531,0.86667,0.80588
17.84,0.435,0.083089,0.025391,0.81569,0.80588
17.848,0.44966,0.092864,0.035156,0.85098,0.80588
17.856,0.46725,0.10166,0.041016,0.82157,0.80588
17.864,0.48485,0.11144,0.044922,0.86667,0.80588
17.872,0.50244,0.11828,0.050781,0.84118,0.80588
17.88,0.51711,0.1261,0.054688,0.87647,0.8
17.888,0.52981,0.13196,0.060547,0.8451,0.79608
17.896,0.5435,0.13783,0.076172,0.89608,0.78039
17.904,0.55425,0.14076,0.085938,0.85098,0.78039
17.912,0.56305,0.14467,0.085938,0.88039,0.78039
17.92,0.56989,0.14663,0.089844,0.83529,0.77647
17.928,0.57478,0.14858,0.080078,0.87059,0.78039
17.936,0.57674,0.14858,0.080078,0.81176,0.77647
17.944,0.57771,0.14956,0.085938,0.8451,0.78039
17.952,0.57869,0.14761,0.050781,0.8,0.79608
17.96,0.58065,0.14663,0.019531,0.84118,0.81569
17.968,0.58162,0.14467,0.0097656,0.79608,0.82157
17.976,0.58553,0.14272,0,0.82549,0.82549
17.984,0.58749,0.13978,0,0.7902,0.82549
17.992,0.58847,0.13685,-0.0039062,0.78627,0.82549
18,0.58944,0.13294,-0.0039062,0.82549,0.82549
18.008,0.59042,0.12903,-0.0039062,0.79608,0.82549
18.016,0.59042,0.12512,-0.0039062,0.83529,0.82549
18.024,0.59042,0.12023,-0.0039062,0.7902,0.82157
18.032,0.58944,0.1173,-0.0039062,0.83137,0.82549
18.04,0.58651,0.11437,0.0058594,0.78627,0.82549
18.048,0.5826,0.11241,0.0058594,0.82549,0.82549
18.056,0.57869,0.11144,0.0058594,0.78039,0.82157
18.064,0.5738,0.11046,0.03125,0.82549,0.80588
18.072,0.56891,0.10948,0.16016,0.7902,0.73529
18.08,0.56305,0.10948,0.38086,0.79608,0.60588
18.088,0.55816,0.10948,0.78516,0.65098,0.35882
18.096,0.55132,0.11046,1.0547,0.58039,0.21373
18.104,0.54448,0.11046,0.85547,0.53922,0.3451
18.112,0.53763,0.11144,0.27539,0.68627,0.7
18.12,0.53079,0.11241,-0.25,0.75098,0.97647
18.128,0.52395,0.11437,-0.28516,0.79608,0.99216
18.136,0.51711,0.11632,-0.11914,0.7549,0.8902
18.144,0.51026,0.11828,-0.039062,0.8,0.8451
18.152,0.50342,0.12023,-0.0097656,0.7549,0.82549
18.16,0.49853,0.12317,-0.0039062,0.7902,0.82157
18.168,0.49462,0.1261,0.0097656,0.75098,0.80588
18.176,0.49267,0.12903,0.015625,0.78039,0.80588
18.184,0.49169,0.13196,0.015625,0.7549,0.80588
18.192,0.49071,0.1349,0.025391,0.75098,0.8
18.2,0.49071,0.13685,0.035156,0.7902,0.79608
18.208,0.49071,0.13978,0.041016,0.73529,0.79608
18.216,0.48974,0.14174,0.041016,0.77059,0.8
18.224,0.4868,0.14467,0.044922,0.72549,0.7902
18.232,0.48387,0.14663,0.060547,0.76078,0.78039
18.24,0.47996,0.14858,0.060547,0.7098,0.78039
18.248,0.47605,0.15054,0.054688,0.74118,0.78627
18.256,0.47116,0.15347,0.070312,0.6902,0.78039
18.264,0.46725,0.1564,0.080078,0.72549,0.77647
18.272,0.46334,0.16031,0.089844,0.68039,0.76667
18.28,0.46041,0.16422,0.099609,0.71569,0.76078
18.288,0.45748,0.16911,0.11133,0.66471,0.75098
18.296,0.45552,0.17302,0.12109,0.69608,0.74118
18.304,0.45259,0.17889,0.125,0.65098,0.74118
18.312,0.44966,0.18475,0.13477,0.68627,0.73529
18.32,0.44673,0.19257,0.14453,0.64118,0.73137
18.328,0.44282,0.20039,0.15625,0.68039,0.72157
18.336,0.43891,0.20919,0.16016,0.64118,0.7098
18.344,0.43402,0.21799,0.15039,0.6902,0.72549
18.352,0.42913,0.22581,0.13477,0.66471,0.73137
18.36,0.42522,0.23363,0.12109,0.70588,0.74118
18.368,0.42229,0.24145,0.11133,0.67059,0.7451
18.376,0.41935,0.24927,0.085938,0.70588,0.7549
18.384,0.41838,0.25806,0.050781,0.68039,0.78039
18.392,0.4174,0.26588,0.03125,0.7098,0.8
18.4,0.4174,0.27566,0.0058594,0.69608,0.81569
18.408,0.41642,0.28446,-0.0039062,0.72549,0.82157
18.416,0.41447,0.29326,-0.013672,0.74118,0.82549
18.424,0.41251,0.30108,-0.025391,0.7,0.82549
18.432,0.41056,0.3089,-0.035156,0.75098,0.84118
18.44,0.40762,0.31672,-0.035156,0.7098,0.8451
18.448,0.40567,0.32551,-0.039062,0.7549,0.8451
18.456,0.40371,0.33529,-0.029297,0.7098,0.83529
18.464,0.40274,0.34506,-0.029297,0.74118,0.84118
18.472,0.40274,0.35582,-0.025391,0.70588,0.83529
18.48,0.40274,0.36852,-0.029297,0.73529,0.83529
18.488,0.40176,0.38123,-0.013672,0.70588,0.83137
18.496,0.3998,0.39492,-0.0039062,0.73137,0.83137
18.504,0.39785,0.4086,-0.0039062,0.6902,0.82549
18.512,0.39589,0.42229,0,0.73137,0.82549
18.52,0.39296,0.43597,0.0058594,0.69608,0.82157
18.528,0.39003,0.44966,0.015625,0.74118,0.81569
18.536,0.3871,0.46334,0.019531,0.6902,0.80588
18.544,0.38416,0.47996,0.035156,0.73529,0.80588
18.552,0.38123,0.49658,0.035156,0.68627,0.80588
18.56,0.3783,0.51613,0.035156,0.73137,0.80588
18.568,0.37537,0.53568,0.03125,0.6902,0.80588
18.576,0.37341,0.55425,0.035156,0.73137,0.80588
18.584,0.37341,0.57283,0.025391,0.70588,0.80588
18.592,0.37439,0.59042,0.03125,0.7,0.80588
18.6,0.3783,0.60802,0.025391,0.74118,0.80588
18.608,0.38514,0.62561,0.025391,0.7,0.80588
18.616,0.39492,0.64418,0.015625,0.74118,0.81176
18.624,0.4086,0.66276,0.03125,0.69608,0.80588
18.632,0.42424,0.68231,0.035156,0.7451,0.80588
18.64,0.44086,0.6999,0.041016,0.7098,0.8
18.648,0.45846,0.7175,0.044922,0.76667,0.8
18.656,0.47605,0.73412,0.044922,0.73137,0.80588
18.664,0.49071,0.75073,0.050781,0.77059,0.7902
18.672,0.50342,0.76344,0.064453,0.73529,0.78039
18.68,0.51417,0.77713,0.085938,0.77647,0.77059
18.688,0.52297,0.78788,0.089844,0.73529,0.78039
18.696,0.53079,0.79765,0.080078,0.7549,0.78039
18.704,0.53763,0.80645,0.076172,0.7098,0.78039
18.712,0.54448,0.81623,0.080078,0.73529,0.77647
18.72,0.54936,0.82307,0.076172,0.69608,0.78039
18.728,0.55327,0.83089,0.064453,0.73137,0.78039
18.736,0.55621,0.83675,0.035156,0.68627,0.80588
18.744,0.55914,0.84164,0.015625,0.72157,0.80588
18.752,0.56109,0.84555,0.0058594,0.68039,0.81569
18.76,0.56403,0.85044,0,0.7098,0.82157
18.768,0.565,0.85435,-0.0039062,0.67647,0.82549
18.776,0.56598,0.85826,-0.0039062,0.70588,0.82157
18.784,0.56696,0.86217,-0.0097656,0.68039,0.82549
18.792,0.56598,0.86608,-0.0039062,0.70588,0.82549
18.8,0.56598,0.87097,0,0.7098,0.81569
18.808,0.56696,0.87683,-0.0039062,0.67059,0.82157
18.816,0.56696,0.88368,0,0.7098,0.82549
18.824,0.56598,0.89052,0.0097656,0.66471,0.81569
18.832,0.565,0.89638,0.0097656,0.72157,0.82157
18.84,0.56305,0.90225,0.015625,0.68627,0.81176
18.848,0.56012,0.90811,0.089844,0.75098,0.77059
18.856,0.55523,0.91398,0.25586,0.67059,0.68039
18.864,0.54839,0.92082,0.60938,0.61961,0.46471
18.872,0.54057,0.92864,1.0391,0.4902,0.22941
18.88,0.53372,0.93646,1.1152,0.47451,0.18824
18.888,0.52493,0.94526,0.62891,0.46471,0.49412
18.896,0.51613,0.95308,-0.080078,0.66471,0.8902
18.904,0.50831,0.96188,-0.26953,0.68039,0.98627
18.912,0.49951,0.96872,-0.17383,0.72157,0.92549
18.92,0.49267,0.97654,-0.074219,0.68627,0.86667
18.928,0.4868,0.98534,-0.025391,0.73529,0.83137
18.936,0.48192,0.99316,-0.0097656,0.6902,0.82549
18.944,0.47801,0.99707,-0.0039062,0.7451,0.82157
18.952,0.47605,1,0.0097656,0.70588,0.81176
18.96,0.47507,1,0.015625,0.7451,0.81569
18.968,0.4741,1,0.015625,0.70588,0.81176
18.976,0.4741,1,0.03125,0.73529,0.8
18.984,0.47214,1,0.03125,0.69608,0.79608
18.992,0.47019,1,0.041016,0.72157,0.7902
19,0.46823,1,0.041016,0.6902,0.79608
19.008,0.4653,1,0.050781,0.68627,0.7902
19.016,0.46237,1,0.060547,0.71569,0.78627
19.024,0.45943,1,0.064453,0.67647,0.78039
19.032,0.4565,1,0.070312,0.70588,0.77647
19.04,0.45259,1,0.089844,0.6549,0.77059
19.048,0.44966,1,0.089844,0.69608,0.76667
19.056,0.44575,1,0.089844,0.6451,0.76078
19.064,0.44086,1,0.11133,0.68627,0.75098
19.072,0.43597,1,0.12109,0.63529,0.7451
19.08,0.43109,1,0.13477,0.67647,0.73529
19.088,0.42717,1,0.14453,0.63529,0.73137
19.096,0.42326,1,0.16016,0.66471,0.72549
19.104,0.41935,1,0.16016,0.62549,0.72549
19.112,0.41642,1,0.16016,0.66471,0.72157
19.12,0.41251,1,0.16602,0.62941,0.71569
19.128,0.40958,1,0.15625,0.67647,0.72549
19.136,0.40567,1,0.14062,0.64118,0.73137
19.144,0.40176,1,0.125,0.7,0.73529
19.152,0.39883,1,0.099609,0.66471,0.7549
19.16,0.39687,1,0.064453,0.7098,0.77647
19.168,0.39394,1,0.044922,0.67059,0.78039
19.176,0.39198,1,0.025391,0.72157,0.80588
19.184,0.39003,1,-0.0039062,0.69608,0.81176
19.192,0.38807,1,-0.013672,0.73137,0.82157
19.2,0.38612,1,-0.025391,0.71569,0.83137
19.208,0.38416,1,-0.029297,0.7451,0.83529
19.216,0.38221,1,-0.029297,0.76078,0.84118
19.224,0.38025,1,-0.029297,0.72549,0.83529
19.232,0.37732,1,-0.029297,0.77059,0.84118
19.24,0.37634,1,-0.025391,0.73137,0.83529
19.248,0.37537,1,-0.019531,0.77647,0.84118
19.256,0.37439,1,-0.013672,0.73529,0.82549
19.264,0.37439,1,-0.0039062,0.77647,0.82549
19.272,0.37243,1,-0.0039062,0.74118,0.82549
19.28,0.37146,1,-0.0039062,0.78627,0.82549
19.288,0.3695,1,0,0.75098,0.82157
19.296,0.36755,1,0.0097656,0.78039,0.81569
19.304,0.36559,1,0.015625,0.73529,0.81569
19.312,0.36266,1,0.015625,0.77647,0.81569
19.32,0.3607,1,0.015625,0.73529,0.81176
19.328,0.35777,1,0.03125,0.78039,0.81176
19.336,0.35582,1,0.041016,0.73529,0.80588
19.344,0.35386,1,0.044922,0.77647,0.80588
19.352,0.35288,1,0.041016,0.73529,0.8
19.36,0.35288,1,0.041016,0.78039,0.79608
19.368,0.35484,1,0.041016,0.75098,0.8
19.376,0.35875,1,0.041016,0.7902,0.8
19.384,0.36364,1,0.041016,0.7549,0.80588
19.392,0.37341,1,0.041016,0.79608,0.80588
19.4,0.3871,1,0.041016,0.8,0.79608
19.408,0.40371,1,0.044922,0.77059,0.8
19.416,0.42326,1,0.044922,0.81176,0.79608
19.424,0.44379,1,0.060547,0.78039,0.7902
19.432,0.4653,1,0.064453,0.83137,0.7902
19.44,0.48583,1,0.064453,0.7902,0.78627
19.448,0.5044,1,0.076172,0.8451,0.78039
19.456,0.52004,1,0.089844,0.81176,0.77647
19.464,0.5347,1,0.099609,0.85686,0.77647
19.472,0.54545,1,0.089844,0.8,0.77059
19.48,0.55425,1,0.085938,0.83137,0.77647
19.488,0.56012,1,0.085938,0.78627,0.77647
19.496,0.565,1,0.080078,0.81176,0.77647
19.504,0.56891,1,0.076172,0.77647,0.77647
19.512,0.57185,1,0.050781,0.81176,0.7902
19.52,0.57478,1,0.03125,0.77059,0.80588
19.528,0.57771,1,0.015625,0.81176,0.81569
19.536,0.57967,1,0.0058594,0.77647,0.82549
19.544,0.5826,1,0,0.81176,0.82549
19.552,0.58553,1,0,0.77647,0.82549
19.56,0.58749,1,-0.0039062,0.81569,0.82549
19.568,0.58847,1,-0.0039062,0.77647,0.82549
19.576,0.58847,1,-0.0039062,0.82549,0.82549
19.584,0.58847,1,-0.0039062,0.78627,0.82549
19.592,0.58847,1,0.0097656,0.82549,0.82157
19.6,0.58847,1,0.015625,0.7902,0.81569
19.608,0.58651,1,0.0097656,0.81569,0.81176
19.616,0.58456,1,0.015625,0.8,0.81569
19.624,0.5826,1,0.041016,0.84118,0.80588
19.632,0.57967,1,0.17578,0.8451,0.73137
19.64,0.57576,1,0.43945,0.76667,0.57059
19.648,0.57087,1,0.84961,0.6902,0.33922
19.656,0.56403,1,1.1035,0.57059,0.2
19.664,0.55621,1,0.85547,0.56471,0.35882
19.672,0.54936,1,0.24609,0.65098,0.7098
19.68,0.54252,1,-0.22461,0.79608,0.96667
19.688,0.53568,1,-0.24023,0.78039,0.97647
19.696,0.52884,1,-0.099609,0.84118,0.88627
19.704,0.52102,1,-0.035156,0.81569,0.8451
19.712,0.51515,1,-0.013672,0.86667,0.83137
19.72,0.51222,1,-0.0039062,0.83137,0.82157
19.728,0.51124,1,0.0097656,0.87059,0.81176
19.736,0.51026,1,0.0058594,0.83137,0.81176
19.744,0.51026,1,0.015625,0.88039,0.80588
19.752,0.50831,1,0.025391,0.84118,0.80588
19.76,0.50635,1,0.035156,0.87647,0.80588
19.768,0.50342,1,0.035156,0.84118,0.79608
19.776,0.50147,1,0.041016,0.88627,0.79608
19.784,0.50049,1,0.050781,0.8451,0.78627
19.792,0.49853,0.99804,0.060547,0.87647,0.78627
19.8,0.49658,0.99609,0.064453,0.84118,0.78039
19.808,0.4956,0.99022,0.064453,0.86078,0.78039
19.816,0.49462,0.98534,0.070312,0.83137,0.78039
19.824,0.49267,0.97947,0.080078,0.82157,0.77059
19.832,0.49071,0.97361,0.095703,0.85686,0.76078
19.84,0.48778,0.96676,0.10547,0.81176,0.76078
19.848,0.48485,0.9609,0.11523,0.85098,0.7549
19.856,0.48094,0.95503,0.12109,0.79608,0.75098
19.864,0.47801,0.94917,0.13477,0.83137,0.73529
19.872,0.47507,0.9433,0.14062,0.78627,0.73529
19.88,0.47214,0.93744,0.15625,0.81569,0.73137
19.888,0.46921,0.9306,0.16016,0.77647,0.72549
19.896,0.46628,0.92375,0.15625,0.81176,0.72549
19.904,0.46334,0.91593,0.14453,0.78627,0.73137
19.912,0.45943,0.90811,0.14062,0.82549,0.73137
19.92,0.45552,0.90029,0.125,0.8,0.73529
19.928,0.45259,0.89247,0.095703,0.8451,0.7549
19.936,0.44966,0.88465,0.080078,0.81569,0.76078
19.944,0.44575,0.87586,0.054688,0.86667,0.77647
19.952,0.44282,0.86804,0.03125,0.83137,0.7902
19.96,0.43988,0.86119,0.015625,0.88039,0.80588
19.968,0.43695,0.85337,-0.0039062,0.85098,0.82157
19.976,0.435,0.84555,-0.019531,0.89608,0.82549
19.984,0.43206,0.83675,-0.019531,0.86078,0.83137
19.992,0.43011,0.82698,-0.029297,0.90588,0.83529
20,0.42717,0.81623,-0.029297,0.87647,0.84118
20.008,0.42424,0.80645,-0.025391,0.90588,0.83529
20.016,0.42229,0.79668,-0.029297,0.87647,0.84118
20.024,0.42033,0.78788,-0.019531,0.87059,0.84118
20.032,0.41935,0.78006,-0.025391,0.91176,0.84118
20.04,0.42033,0.77224,-0.0097656,0.86078,0.83137
20.048,0.42033,0.76442,-0.0039062,0.90196,0.82549
20.056,0.42033,0.75758,-0.0039062,0.86078,0.82157
20.064,0.42033,0.75073,0,0.90588,0.82549
20.072,0.41838,0.74389,0.0058594,0.86078,0.82549
20.08,0.4174,0.739,0.0097656,0.90196,0.82549
20.088,0.41642,0.73509,0.019531,0.85686,0.81569
20.096,0.41642,0.73216,0.025391,0.89608,0.81176
20.104,0.41544,0.73021,0.015625,0.87059,0.81569
20.112,0.41447,0.72825,0.019531,0.90196,0.81176
20.12,0.41544,0.72727,0.025391,0.87059,0.81176
20.128,0.4174,0.7263,0.03125,0.91176,0.81569
20.136,0.41838,0.72532,0.03125,0.87059,0.81176
20.144,0.42033,0.72532,0.025391,0.91176,0.81176
20.152,0.42424,0.7263,0.025391,0.86667,0.81569
20.16,0.42913,0.72727,0.03125,0.91176,0.82157
20.168,0.43695,0.72825,0.025391,0.86078,0.80588
20.176,0.44575,0.72825,0.025391,0.90196,0.81176
20.184,0.4565,0.72923,0.025391,0.86078,0.81569
20.192,0.47214,0.72923,0.041016,0.90196,0.80588
20.2,0.48974,0.72923,0.041016,0.88039,0.80588
20.208,0.50831,0.72825,0.044922,0.92549,0.80588
20.216,0.5259,0.72727,0.044922,0.93137,0.8
20.224,0.54448,0.72532,0.064453,0.89608,0.7902
20.232,0.56109,0.72239,0.070312,0.93137,0.78039
20.24,0.57478,0.7175,0.089844,0.89608,0.77647
20.248,0.58553,0.71261,0.089844,0.94118,0.78039
20.256,0.59335,0.70577,0.089844,0.88039,0.78039
20.264,0.6002,0.6999,0.085938,0.92157,0.78039
20.272,0.60606,0.69208,0.085938,0.87059,0.77647
20.28,0.60997,0.68426,0.076172,0.90588,0.78039
20.288,0.61388,0.67546,0.080078,0.86667,0.77647
20.296,0.61779,0.66667,0.044922,0.89608,0.8
20.304,0.6217,0.65494,0.025391,0.86078,0.81176
20.312,0.62366,0.64418,0.015625,0.8902,0.82157
20.32,0.62659,0.6305,0.0058594,0.8451,0.82157
20.328,0.62854,0.61779,-0.0039062,0.8902,0.82549
20.336,0.62952,0.60606,-0.0039062,0.85098,0.82549
20.344,0.62952,0.59335,-0.0097656,0.89608,0.83529
20.352,0.62952,0.58162,-0.0039062,0.85098,0.83137
20.36,0.62952,0.57087,-0.0097656,0.90196,0.83137
20.368,0.62952,0.55816,-0.0039062,0.85686,0.82549
20.376,0.62757,0.54643,-0.0039062,0.89608,0.83137
20.384,0.62463,0.53372,0.0058594,0.85686,0.82157
20.392,0.62072,0.52102,0.0097656,0.90588,0.82549
20.4,0.61681,0.50831,0.0097656,0.87647,0.82549
20.408,0.61193,0.4956,0.070312,0.92549,0.7902
20.416,0.60606,0.48387,0.2207,0.86667,0.70588
20.424,0.59922,0.47214,0.53516,0.8451,0.51961
20.432,0.59238,0.46139,0.91992,0.72549,0.29412
20.44,0.58456,0.45064,1.0547,0.6451,0.22353
20.448,0.57771,0.43988,0.69531,0.64118,0.44902
20.456,0.56989,0.43011,0.054688,0.76667,0.81569
20.464,0.56109,0.41935,-0.24023,0.8451,0.97647
20.472,0.55132,0.40958,-0.16992,0.83137,0.93137
20.48,0.54252,0.39883,-0.080078,0.89608,0.87647
20.488,0.5347,0.38905,-0.019531,0.85686,0.83529
20.496,0.52688,0.38025,-0.0039062,0.90588,0.82549
20.504,0.51906,0.37146,0,0.87059,0.82549
20.512,0.51417,0.36266,0.0097656,0.91176,0.82157
20.52,0.51222,0.35386,0.015625,0.88039,0.81569
20.528,0.51124,0.34409,0.019531,0.92157,0.81176
20.536,0.51124,0.33333,0.03125,0.88039,0.80588
20.544,0.51124,0.3216,0.035156,0.92549,0.8
20.552,0.51026,0.30987,0.041016,0.8902,0.8
20.56,0.51026,0.29717,0.044922,0.92549,0.8
20.568,0.51026,0.28543,0.050781,0.87647,0.79608
20.576,0.51026,0.27273,0.060547,0.91176,0.7902
20.584,0.50929,0.26002,0.064453,0.86667,0.78039
20.592,0.50733,0.24927,0.080078,0.90196,0.77647
20.6,0.50342,0.23851,0.089844,0.85686,0.76667
20.608,0.49853,0.22776,0.089844,0.88627,0.76667
20.616,0.49365,0.21799,0.099609,0.85686,0.76667
20.624,0.48974,0.20821,0.11133,0.85098,0.7549
20.632,0.4868,0.19941,0.11523,0.88627,0.7549
20.64,0.48289,0.19062,0.13086,0.84118,0.7451
20.648,0.47801,0.18182,0.13477,0.88039,0.73529
20.656,0.4741,0.174,0.14062,0.83529,0.73137
20.664,0.46921,0.16618,0.15625,0.86667,0.72549
20.672,0.46334,0.16031,0.15039,0.81569,0.73137
20.68,0.45943,0.15347,0.15039,0.86078,0.73137
20.688,0.45552,0.14761,0.14453,0.83137,0.73137
20.696,0.45161,0.14174,0.13086,0.87059,0.73529
20.704,0.44868,0.13587,0.11133,0.83137,0.75098
20.712,0.44673,0.13001,0.095703,0.87059,0.76078
20.72,0.44477,0.12512,0.070312,0.8451,0.77647
20.728,0.44282,0.11926,0.044922,0.89608,0.78039
20.736,0.44086,0.11437,0.019531,0.86667,0.8
20.744,0.43695,0.1085,-0.0039062,0.91569,0.81569
20.752,0.43304,0.10459,-0.0097656,0.88039,0.82549
20.76,0.43011,0.099707,-0.025391,0.93137,0.83529
20.768,0.42717,0.095797,-0.025391,0.88627,0.83529
20.776,0.42522,0.091887,-0.029297,0.92549,0.8451
20.784,0.42326,0.087977,-0.025391,0.8902,0.84118
20.792,0.42131,0.083089,-0.025391,0.92157,0.84118
20.8,0.41935,0.078201,-0.013672,0.88039,0.84118
20.808,0.4174,0.073314,-0.025391,0.90588,0.84118
20.816,0.41544,0.069404,-0.013672,0.87059,0.83529
20.824,0.41349,0.065494,-0.0039062,0.86667,0.83137
20.832,0.41251,0.061584,-0.0039062,0.90196,0.82549
20.84,0.41153,0.058651,0,0.85686,0.82549
20.848,0.41056,0.056696,0.0058594,0.90196,0.82549
20.856,0.4086,0.054741,0.0097656,0.85098,0.83137
20.864,0.40665,0.054741,0.015625,0.86078,0.82157
20.872,0.40371,0.053763,0.015625,0.83529,0.81569
20.88,0.40176,0.054741,0.019531,0.88627,0.81176
20.888,0.40078,0.056696,0.03125,0.8451,0.80588
20.896,0.39883,0.058651,0.025391,0.88627,0.81569
20.904,0.39687,0.061584,0.025391,0.85098,0.81569
20.912,0.39687,0.065494,0.03125,0.88627,0.81569
20.92,0.39785,0.069404,0.025391,0.8451,0.81176
20.928,0.3998,0.074291,0.03125,0.8902,0.80588
20.936,0.40469,0.079179,0.035156,0.85098,0.80588
20.944,0.41153,0.084066,0.03125,0.88039,0.80588
20.952,0.42229,0.089932,0.035156,0.83137,0.8
20.96,0.43597,0.094819,0.025391,0.88039,0.81176
20.968,0.45259,0.10068,0.019531,0.8451,0.81176
20.976,0.46823,0.10459,0.025391,0.88039,0.81569
20.984,0.48387,0.10948,0.03125,0.85098,0.80588
20.992,0.50147,0.11339,0.035156,0.89608,0.80588
21,0.51906,0.1173,0.041016,0.86667,0.80588
21.008,0.53666,0.11926,0.041016,0.90588,0.8
21.016,0.55327,0.12219,0.054688,0.88039,0.7902
21.024,0.56794,0.12317,0.064453,0.91176,0.7902
21.032,0.58065,0.12414,0.080078,0.92157,0.78039
21.04,0.5914,0.12219,0.085938,0.88039,0.77647
21.048,0.59922,0.12121,0.080078,0.90588,0.78039
21.056,0.60508,0.11828,0.085938,0.86078,0.77647
21.064,0.61095,0.11535,0.080078,0.89608,0.77059
21.072,0.61486,0.11144,0.076172,0.84118,0.78039
21.08,0.61681,0.10753,0.064453,0.87647,0.78039
21.088,0.61681,0.10362,0.041016,0.83137,0.79608
21.096,0.61779,0.099707,0.019531,0.87059,0.80588
21.104,0.61877,0.094819,0.0097656,0.83529,0.82157
21.112,0.62072,0.088954,0.0058594,0.86667,0.82549
21.12,0.6217,0.083089,0,0.83529,0.82549
21.128,0.62366,0.077224,0.0058594,0.87059,0.82549
21.136,0.62463,0.072336,-0.0039062,0.83529,0.82549
21.144,0.62463,0.066471,-0.0039062,0.86667,0.82549
21.152,0.62463,0.061584,0,0.81176,0.82549
21.16,0.62366,0.056696,0,0.86078,0.82549
21.168,0.6217,0.051808,0,0.82157,0.82549
21.176,0.61779,0.046921,0.0097656,0.87059,0.82157
21.184,0.61388,0.043011,0.015625,0.83137,0.81569
21.192,0.60899,0.039101,0.015625,0.88039,0.82157
21.2,0.60313,0.035191,0.089844,0.85686,0.77647
21.208,0.59531,0.031281,0.25977,0.85098,0.67647
21.216,0.58749,0.028348,0.58398,0.78039,0.48431
21.224,0.57967,0.025415,0.99414,0.68039,0.2549
21.232,0.57283,0.02346,1.0645,0.58039,0.21373
21.24,0.56403,0.021505,0.62891,0.63529,0.49412
21.248,0.55523,0.020528,-0.048828,0.75098,0.87647
21.256,0.54545,0.01955,-0.24414,0.82157,0.98235
21.264,0.53763,0.017595,-0.1543,0.84118,0.92549
21.272,0.52981,0.016618,-0.064453,0.82549,0.87059
21.28,0.52297,0.014663,-0.0097656,0.88039,0.82549
21.288,0.51711,0.012708,0.0097656,0.8451,0.81569
21.296,0.5132,0.010753,0.015625,0.88627,0.82157
21.304,0.5132,0.0087977,0.0097656,0.8451,0.81176
21.312,0.51515,0.0068426,0.019531,0.88039,0.81176
21.32,0.51613,0.0058651,0.03125,0.85686,0.80588
21.328,0.51711,0.0029325,0.041016,0.89608,0.8
21.336,0.51711,0,0.041016,0.85686,0.79608
21.344,0.51613,0,0.050781,0.89608,0.8
21.352,0.51515,0,0.060547,0.85098,0.7902
21.36,0.5132,0,0.060547,0.90196,0.7902
21.368,0.51026,0,0.064453,0.85686,0.78039
21.376,0.50733,0,0.076172,0.90196,0.78039
21.384,0.5044,0,0.076172,0.85098,0.78039
21.392,0.50049,0,0.089844,0.8902,0.77059
21.4,0.4956,0,0.089844,0.8451,0.77059
21.408,0.49169,0,0.099609,0.87647,0.76078
21.416,0.48778,0,0.11133,0.83529,0.7549
21.424,0.48387,0,0.125,0.85686,0.75098
21.432,0.47996,0,0.13477,0.82549,0.73529
21.44,0.47703,0,0.14062,0.82157,0.73137
21.448,0.47312,0,0.14453,0.85686,0.73529
21.456,0.46921,0,0.15039,0.80588,0.73137
21.464,0.46628,0,0.14453,0.85098,0.73137
21.472,0.46334,0,0.15039,0.80588,0.73137
21.48,0.46139,0,0.14062,0.8451,0.73137
21.488,0.45846,0,0.125,0.81176,0.73529
21.496,0.45455,0,0.10547,0.85098,0.75098
21.504,0.45064,0,0.085938,0.82549,0.76078
21.512,0.4477,0,0.060547,0.87647,0.78039
21.52,0.44575,0,0.035156,0.8451,0.7902
21.528,0.44477,0,0.0097656,0.89608,0.80588
21.536,0.44379,0,-0.0039062,0.86667,0.82157
21.544,0.44282,0,-0.0097656,0.89608,0.82157
21.552,0.44184,0,-0.025391,0.86667,0.83529
21.56,0.43988,0,-0.029297,0.91569,0.8451
21.568,0.43891,0,-0.035156,0.87059,0.84118
21.576,0.43793,0,-0.029297,0.90588,0.8451
21.584,0.43793,0,-0.029297,0.87059,0.8451
21.592,0.43695,0,-0.019531,0.90196,0.8451
21.6,0.43597,0,-0.019531,0.85686,0.84118
21.608,0.435,0,-0.0097656,0.89608,0.83529
21.616,0.43304,0,-0.0039062,0.85686,0.83137
21.624,0.43206,0,-0.0039062,0.85098,0.83137
21.632,0.43011,0,0,0.88627,0.82549
21.64,0.42815,0,0.015625,0.85098,0.82157
21.648,0.4262,0,0.015625,0.87647,0.82157
21.656,0.42424,0,0.015625,0.83137,0.81569
21.664,0.42229,0,0.019531,0.86078,0.82157
21.672,0.42033,0,0.025391,0.81569,0.81176
21.68,0.42033,0,0.035156,0.85098,0.80588
21.688,0.42033,0,0.035156,0.82157,0.80588
21.696,0.42131,0.0078201,0.03125,0.86078,0.81176
21.704,0.42229,0.01564,0.035156,0.82549,0.80588
21.712,0.42424,0.02346,0.041016,0.87059,0.80588
21.72,0.42717,0.031281,0.041016,0.83529,0.80588
21.728,0.43109,0.040078,0.041016,0.87059,0.80588
21.736,0.43695,0.048876,0.035156,0.83137,0.80588
21.744,0.44379,0.057674,0.041016,0.86667,0.80588
21.752,0.45259,0.066471,0.03125,0.82157,0.8
21.76,0.4653,0.075269,0.03125,0.86078,0.80588
21.768,0.48094,0.084066,0.035156,0.81569,0.8
21.776,0.4956,0.090909,0.041016,0.86667,0.80588
21.784,0.51026,0.098729,0.044922,0.83137,0.8
21.792,0.5259,0.10459,0.054688,0.87647,0.79608
21.8,0.54154,0.11046,0.060547,0.8451,0.7902
21.808,0.55718,0.11437,0.064453,0.8902,0.7902
21.816,0.56989,0.11828,0.085938,0.86078,0.78039
21.824,0.58065,0.12023,0.089844,0.90196,0.78039
21.832,0.58749,0.12219,0.095703,0.86667,0.77647
21.84,0.59335,0.12219,0.089844,0.88039,0.78039
21.848,0.59726,0.12219,0.089844,0.84118,0.77059
21.856,0.6002,0.12023,0.089844,0.82549,0.77059
