Time [s], RESP, PLETH, II, V, AVR, ABP
0,-0.29819,0.67253,-0.29492,0.72157,1.0216,44.785
0.008,-0.29819,0.69892,-0.33984,0.94706,1.0961,44.785
0.016,-0.29518,0.72336,-0.14844,1.0216,1.0059,44.98
0.024,-0.29518,0.74291,-0.089844,1.0373,0.97647,44.98
0.032,-0.29518,0.75758,-0.054688,1.0471,0.96078,44.98
0.04,-0.29518,0.76833,-0.054688,1.0569,0.96078,45.176
0.048,-0.29518,0.77419,-0.035156,1.051,0.94706,45.176
0.056,-0.29518,0.77517,-0.035156,1.0471,0.94706,45.176
0.064,-0.29518,0.77126,-0.025391,1.0471,0.94118,44.98
0.072,-0.29518,0.76442,-0.025391,1.0471,0.94118,44.98
0.08,-0.29217,0.75367,-0.019531,1.0471,0.93137,44.785
0.088,-0.29217,0.73998,-0.013672,1.0471,0.93137,44.785
0.096,-0.29217,0.72239,-0.0039062,1.0471,0.92157,44.589
0.104,-0.29217,0.70186,-0.013672,1.0471,0.92549,44.394
0.112,-0.29217,0.67937,0,1.0471,0.91569,44.198
0.12,-0.29217,0.65591,0,1.0412,0.91569,44.003
0.128,-0.29217,0.6305,0,1.0373,0.91569,43.612
0.136,-0.29217,0.60606,0.0058594,1.0471,0.91176,43.416
0.144,-0.28916,0.58162,0,1.0412,0.91569,43.025
0.152,-0.28916,0.55718,0.019531,1.0471,0.90588,42.829
0.16,-0.28916,0.53568,0.015625,1.0471,0.90196,42.438
0.168,-0.28916,0.51613,0.03125,1.0569,0.8902,41.851
0.176,-0.28916,0.49951,0.025391,1.051,0.90196,41.46
0.184,-0.28916,0.48192,0.035156,1.0608,0.89608,41.069
0.192,-0.28614,0.46432,0.03125,1.0725,0.90196,40.678
0.2,-0.28614,0.44868,0.050781,1.0765,0.88627,40.287
0.208,-0.28313,0.435,0.050781,1.0824,0.88627,39.896
0.216,-0.28313,0.42229,0.070312,1.0765,0.87647,39.7
0.224,-0.28012,0.41251,0.060547,1.0725,0.87059,39.309
0.232,-0.28012,0.40469,0.076172,1.0608,0.86667,39.309
0.24,-0.27711,0.39785,0.060547,1.0412,0.87647,39.505
0.248,-0.27711,0.39198,0.070312,1.0275,0.86667,40.091
0.256,-0.2741,0.38807,0.054688,1.0059,0.87647,41.46
0.264,-0.27108,0.38514,0.050781,0.99608,0.87647,44.003
0.272,-0.26807,0.38319,0.035156,0.98235,0.88627,48.11
0.28,-0.26506,0.38221,0.041016,0.97647,0.88627,52.999
0.288,-0.26205,0.38025,0.019531,0.96078,0.8902,58.475
0.296,-0.26205,0.37928,0.015625,0.95686,0.8902,64.146
0.304,-0.25904,0.37732,0,0.96667,0.90196,69.035
0.312,-0.25904,0.37634,0,0.95686,0.90196,73.338
0.32,-0.25904,0.37537,-0.0097656,0.96078,0.90588,76.662
0.328,-0.25602,0.37439,-0.0097656,0.95098,0.91569,79.009
0.336,-0.25602,0.37341,-0.0039062,0.95686,0.90588,80.378
0.344,-0.25602,0.37243,-0.013672,0.95098,0.91569,81.16
0.352,-0.25602,0.37048,-0.0039062,0.95686,0.90588,81.16
0.36,-0.25602,0.37048,-0.019531,0.95098,0.91569,80.769
0.368,-0.25904,0.37048,-0.0097656,0.95686,0.91176,79.987
0.376,-0.25904,0.3695,-0.019531,0.95098,0.91569,79.009
0.384,-0.25904,0.36852,-0.0097656,0.95098,0.91176,77.836
0.392,-0.26205,0.36559,-0.019531,0.95098,0.91569,76.271
0.4,-0.26205,0.36266,-0.0097656,0.95098,0.91176,74.511
0.408,-0.26506,0.35973,-0.025391,0.95098,0.91569,72.555
0.416,-0.26807,0.35679,-0.013672,0.95098,0.91176,70.404
0.424,-0.26807,0.35288,-0.025391,0.96078,0.91569,68.057
0.432,-0.27108,0.34897,0,0.96667,0.90196,65.711
0.44,-0.2741,0.34604,0.0097656,0.97059,0.8902,62.973
0.448,-0.27711,0.34311,0.03125,0.97647,0.88627,60.43
0.456,-0.27711,0.3392,0.041016,0.97059,0.87059,57.888
0.464,-0.28012,0.33627,0.044922,0.96078,0.86667,55.346
0.472,-0.28012,0.33333,0.03125,0.94706,0.87059,53.194
0.48,-0.28012,0.3304,0.019531,0.93725,0.87647,50.847
0.488,-0.28313,0.32551,0.0058594,0.93725,0.88627,49.087
0.496,-0.28313,0.3216,0.019531,0.95098,0.87647,47.523
0.504,-0.28313,0.31867,0.015625,0.96667,0.87059,46.154
0.512,-0.28313,0.31574,-0.019531,0.97059,0.91176,44.98
0.52,-0.28313,0.31574,-0.064453,0.97647,0.94118,44.198
0.528,-0.28313,0.31769,-0.074219,0.96667,0.94706,43.612
0.536,-0.28313,0.32454,-0.083984,0.97647,0.95098,43.22
0.544,-0.28313,0.33529,-0.080078,0.97059,0.94706,42.829
0.552,-0.28313,0.35093,-0.074219,0.97647,0.95098,42.829
0.56,-0.28313,0.36755,-0.089844,0.97647,0.96078,42.829
0.568,-0.28313,0.38807,-0.083984,0.97647,0.95686,42.829
0.576,-0.28313,0.41544,-0.09375,0.97647,0.96078,42.829
0.584,-0.28313,0.44673,-0.074219,0.97647,0.94706,43.025
0.592,-0.28313,0.48289,-0.025391,0.93137,0.92549,43.22
0.6,-0.28313,0.52004,0.054688,0.8451,0.87647,43.416
0.608,-0.28313,0.55816,0.089844,0.79608,0.84118,43.612
0.616,-0.28313,0.59531,-0.048828,0.70588,0.85686,43.807
0.624,-0.28313,0.61877,-0.17383,0.56471,0.88039,44.003
0.632,-0.28313,0.63245,-0.23438,0.5549,0.93725,44.198
0.64,-0.28313,0.652,-0.33008,0.81569,1.0667,44.198
0.648,-0.28313,0.67253,-0.33398,0.98627,1.0961,44.198
0.656,-0.28313,0.69013,-0.125,1.0216,0.99216,44.198
0.664,-0.28313,0.70283,-0.058594,1.0471,0.95686,44.394
0.672,-0.28313,0.70968,-0.064453,1.0569,0.95686,44.394
0.68,-0.28313,0.71554,-0.048828,1.0608,0.95098,44.394
0.688,-0.28313,0.71848,-0.044922,1.0569,0.94706,44.198
0.696,-0.28313,0.71848,-0.025391,1.0471,0.93725,44.198
0.704,-0.28313,0.71359,-0.035156,1.0569,0.94118,44.198
0.712,-0.28313,0.70479,-0.025391,1.0471,0.93137,44.003
0.72,-0.28012,0.69306,-0.029297,1.0471,0.93725,43.807
0.728,-0.28012,0.67742,-0.0097656,1.0412,0.91569,43.612
0.736,-0.28012,0.65787,0,1.0471,0.91569,43.416
0.744,-0.28012,0.63636,-0.013672,1.0471,0.92157,43.22
0.752,-0.27711,0.6129,-0.0039062,1.0471,0.91569,43.025
0.76,-0.27711,0.5914,-0.0097656,1.0471,0.91569,42.829
0.768,-0.27711,0.56989,0.0058594,1.0471,0.91176,42.438
0.776,-0.27711,0.54741,0,1.0412,0.91569,42.243
0.784,-0.27711,0.52297,0.015625,1.0373,0.90588,41.851
0.792,-0.27711,0.49951,0.019531,1.0471,0.91176,41.656
0.8,-0.27711,0.47703,0.025391,1.0471,0.90196,41.265
0.808,-0.27711,0.45552,0.019531,1.051,0.90588,40.874
0.816,-0.27711,0.435,0.035156,1.0608,0.89608,40.482
0.824,-0.27711,0.41642,0.03125,1.0608,0.89608,40.091
0.832,-0.27711,0.3998,0.044922,1.0725,0.88627,39.505
0.84,-0.2741,0.38514,0.050781,1.0725,0.88039,39.113
0.848,-0.2741,0.37146,0.070312,1.0725,0.86667,38.722
0.856,-0.27108,0.35973,0.070312,1.0765,0.87059,38.527
0.864,-0.27108,0.35093,0.070312,1.0667,0.86667,38.331
0.872,-0.26807,0.34409,0.064453,1.0471,0.86667,38.331
0.88,-0.26807,0.33822,0.076172,1.0314,0.86078,38.527
0.888,-0.26506,0.33236,0.054688,1.0216,0.87059,39.309
0.896,-0.26205,0.32845,0.070312,1.002,0.86667,40.874
0.904,-0.25904,0.32649,0.050781,0.99216,0.86667,43.807
0.912,-0.25602,0.32454,0.044922,0.97647,0.87647,47.914
0.92,-0.25602,0.32258,0.035156,0.97647,0.88039,52.999
0.928,-0.25301,0.3216,0.019531,0.96667,0.8902,58.279
0.936,-0.25,0.32063,0.015625,0.96078,0.8902,63.755
0.944,-0.24699,0.31867,0.019531,0.95098,0.8902,68.644
0.952,-0.24398,0.31769,0,0.96078,0.89608,72.947
0.96,-0.24398,0.31672,-0.0039062,0.95686,0.90196,76.076
0.968,-0.24096,0.31672,0,0.97059,0.90196,78.422
0.976,-0.23795,0.31574,-0.019531,0.96078,0.91176,79.791
0.984,-0.23795,0.31378,-0.0039062,0.96667,0.90196,80.574
0.992,-0.23494,0.31183,-0.013672,0.96078,0.91176,80.574
1,-0.23193,0.30987,0,0.96667,0.90196,79.987
1.008,-0.23193,0.30694,-0.0039062,0.95098,0.90588,79.205
1.016,-0.22892,0.30401,0,0.95686,0.90588,78.227
1.024,-0.22892,0.3001,-0.013672,0.96667,0.91176,76.662
1.032,-0.2259,0.29717,-0.0097656,0.95686,0.90588,75.098
1.04,-0.2259,0.29326,-0.019531,0.96078,0.91569,73.142
1.048,-0.22289,0.28935,-0.013672,0.95686,0.90588,70.991
1.056,-0.22289,0.28446,-0.013672,0.97059,0.91176,68.84
1.064,-0.22289,0.28055,0,0.96667,0.8902,66.297
1.072,-0.21988,0.27761,0.015625,0.97647,0.88627,63.755
1.08,-0.21988,0.2737,0.035156,0.98235,0.88039,61.213
1.088,-0.21687,0.26979,0.054688,0.97647,0.87059,58.475
1.096,-0.21687,0.26491,0.044922,0.96667,0.87059,55.932
1.104,-0.21386,0.26002,0.041016,0.94706,0.86667,53.39
1.112,-0.21084,0.25611,0.044922,0.93137,0.86667,51.043
1.12,-0.20783,0.25122,0.019531,0.94118,0.87647,48.892
1.128,-0.20482,0.24731,0.03125,0.95098,0.87647,46.936
1.136,-0.20181,0.24242,0.025391,0.96667,0.87647,45.372
1.144,-0.1988,0.23851,0.0097656,0.97059,0.90196,44.198
1.152,-0.19277,0.23558,-0.039062,0.97647,0.93137,43.22
1.16,-0.18976,0.23558,-0.054688,0.96667,0.94118,42.438
1.168,-0.18373,0.23851,-0.044922,0.96667,0.93725,42.047
1.176,-0.18072,0.24438,-0.070312,0.97059,0.94706,41.656
1.184,-0.1747,0.25513,-0.058594,0.97647,0.94118,41.46
1.192,-0.16867,0.27175,-0.070312,0.97647,0.95098,41.46
1.2,-0.16265,0.29326,-0.058594,0.97647,0.94118,41.656
1.208,-0.15361,0.32063,-0.058594,0.97647,0.94118,41.851
1.216,-0.14759,0.35191,-0.048828,0.97647,0.94118,42.047
1.224,-0.13855,0.38612,-0.013672,0.94118,0.92157,42.243
1.232,-0.13253,0.42229,0.03125,0.89608,0.89608,42.634
1.24,-0.12651,0.45943,0.089844,0.81176,0.85098,42.829
1.248,-0.11747,0.49658,-0.013672,0.82157,0.86667,43.025
1.256,-0.11145,0.53275,-0.11523,0.64118,0.88627,43.22
1.264,-0.10542,0.56207,-0.1543,0.60588,0.90196,43.416
1.272,-0.099398,0.58749,-0.27344,0.7451,1.0314,43.612
1.28,-0.093373,0.61193,-0.31445,0.93725,1.0824,43.612
1.288,-0.087349,0.63539,-0.13477,0.99216,0.99608,43.807
1.296,-0.081325,0.65494,-0.054688,1.0275,0.95686,43.807
1.304,-0.075301,0.67155,-0.048828,1.051,0.96078,43.807
1.312,-0.069277,0.68426,-0.035156,1.0471,0.94706,43.807
1.32,-0.066265,0.69208,-0.048828,1.0569,0.95098,43.807
1.328,-0.060241,0.69501,-0.039062,1.051,0.94706,43.807
1.336,-0.054217,0.69306,-0.044922,1.0608,0.94118,43.612
1.344,-0.048193,0.68719,-0.029297,1.0471,0.95098,43.612
1.352,-0.042169,0.67742,-0.019531,1.0471,0.93137,43.416
1.36,-0.036145,0.66471,-0.0039062,1.0373,0.92157,43.22
1.368,-0.027108,0.65005,0.0058594,1.0412,0.91569,43.22
1.376,-0.021084,0.6305,0,1.0314,0.91569,43.025
1.384,-0.012048,0.60802,0.019531,1.0373,0.91176,42.829
1.392,-0.0060241,0.58358,0.0097656,1.0275,0.91569,42.634
1.4,0,0.55816,0.019531,1.0314,0.91176,42.438
1.408,0.0090361,0.53275,0.015625,1.0275,0.91569,42.243
1.416,0.01506,0.50635,0.019531,1.0314,0.91176,42.047
1.424,0.021084,0.48094,0.019531,1.0373,0.91176,41.656
1.432,0.027108,0.45552,0.03125,1.0314,0.90588,41.265
1.44,0.036145,0.43304,0.019531,1.0373,0.91176,40.874
1.448,0.042169,0.41056,0.041016,1.0471,0.89608,40.482
1.456,0.051205,0.39101,0.035156,1.0471,0.90196,40.091
1.464,0.060241,0.37439,0.050781,1.0471,0.8902,39.7
1.472,0.066265,0.36168,0.044922,1.0569,0.8902,39.309
1.48,0.075301,0.348,0.060547,1.0569,0.88627,38.918
1.488,0.081325,0.33627,0.044922,1.0471,0.8902,38.722
1.496,0.090361,0.32649,0.064453,1.0471,0.88627,38.527
1.504,0.099398,0.31867,0.060547,1.0373,0.8902,38.527
1.512,0.10843,0.31183,0.070312,1.0216,0.87647,38.527
1.52,0.11747,0.30792,0.054688,1.0059,0.88627,39.309
1.528,0.12651,0.30401,0.050781,0.99608,0.8902,40.678
1.536,0.13554,0.30108,0.035156,0.98235,0.88627,43.22
1.544,0.14157,0.29814,0.03125,0.97059,0.89608,47.132
1.552,0.1506,0.29619,0.019531,0.96667,0.90196,52.021
1.56,0.15663,0.29423,0.015625,0.96078,0.91176,57.692
1.568,0.16265,0.29326,0,0.96078,0.90588,63.364
1.576,0.16566,0.29228,-0.0097656,0.95686,0.92157,68.84
1.584,0.17169,0.29032,-0.025391,0.96078,0.92549,73.533
1.592,0.17169,0.28935,-0.029297,0.95686,0.93725,77.445
1.6,0.1747,0.28837,-0.025391,0.96078,0.93725,80.378
1.608,0.17169,0.28739,-0.044922,0.95686,0.94118,82.334
1.616,0.17169,0.28543,-0.035156,0.95686,0.94118,83.312
1.624,0.16867,0.28348,-0.044922,0.95098,0.94118,83.507
1.632,0.16566,0.28152,-0.035156,0.95686,0.94118,83.116
1.64,0.16265,0.27957,-0.048828,0.96078,0.94706,82.334
1.648,0.15663,0.27761,-0.039062,0.96667,0.94118,81.16
1.656,0.14759,0.27468,-0.048828,0.95686,0.94118,79.791
1.664,0.14157,0.2737,-0.035156,0.95686,0.94118,78.031
1.672,0.12952,0.27273,-0.048828,0.95686,0.94118,76.271
1.68,0.11747,0.27077,-0.039062,0.95686,0.93725,74.316
1.688,0.10241,0.26784,-0.044922,0.96078,0.94118,72.164
1.696,0.087349,0.26393,-0.029297,0.95686,0.93137,69.622
1.704,0.072289,0.26002,-0.025391,0.96667,0.92157,67.275
1.712,0.057229,0.25611,0,0.96078,0.91176,64.537
1.72,0.042169,0.25122,0,0.97059,0.90588,61.995
1.728,0.027108,0.24633,0.019531,0.97059,0.89608,59.452
1.736,0.012048,0.24145,0.03125,0.96078,0.8902,56.91
1.744,-0.0030121,0.23656,0.019531,0.95098,0.88627,54.368
1.752,-0.01506,0.23167,0.025391,0.95098,0.8902,52.216
1.76,-0.03012,0.22874,0,0.94118,0.90196,50.065
1.768,-0.042169,0.22678,0.0097656,0.95098,0.8902,48.305
1.776,-0.054217,0.22483,0.015625,0.95686,0.8902,46.936
1.784,-0.066265,0.2219,0.019531,0.96667,0.91176,45.763
1.792,-0.078313,0.2219,-0.048828,0.97059,0.94118,44.785
1.8,-0.087349,0.22385,-0.074219,0.96667,0.95686,44.198
1.808,-0.096386,0.22972,-0.083984,0.96078,0.96078,43.807
1.816,-0.10241,0.24047,-0.074219,0.96667,0.96078,43.416
1.824,-0.11145,0.25806,-0.09375,0.97059,0.96078,43.416
1.832,-0.11747,0.28152,-0.083984,0.97647,0.96078,43.22
1.84,-0.12349,0.31085,-0.09375,0.97059,0.96078,43.416
1.848,-0.12952,0.34506,-0.089844,0.97647,0.96078,43.416
1.856,-0.13554,0.38319,-0.09375,0.98235,0.96667,43.612
1.864,-0.14157,0.41935,-0.054688,0.95686,0.94706,44.003
1.872,-0.14759,0.45259,-0.0039062,0.90588,0.92157,44.198
1.88,-0.15361,0.49071,0.085938,0.81176,0.85098,44.394
1.888,-0.15964,0.52981,0.0097656,0.8,0.84118,44.589
1.896,-0.16265,0.56696,-0.089844,0.6549,0.86078,44.785
1.904,-0.16867,0.60313,-0.16992,0.60588,0.88627,44.98
1.912,-0.17169,0.63539,-0.27344,0.73137,1.002,45.176
1.92,-0.1747,0.66373,-0.33984,0.95098,1.0961,45.176
1.928,-0.18072,0.68622,-0.17969,1.0216,1.0216,45.176
1.936,-0.18373,0.70479,-0.099609,1.0373,0.97647,45.176
1.944,-0.18675,0.71848,-0.064453,1.0471,0.96078,45.176
1.952,-0.18976,0.72727,-0.048828,1.0471,0.96078,45.176
1.96,-0.19277,0.73021,-0.054688,1.0471,0.95686,45.176
1.968,-0.19277,0.72923,-0.048828,1.0471,0.95098,45.176
1.976,-0.19578,0.7263,-0.054688,1.0412,0.95686,45.176
1.984,-0.19578,0.71945,-0.035156,1.0471,0.94706,44.98
1.992,-0.1988,0.70772,-0.044922,1.0412,0.95098,44.785
2,-0.1988,0.69306,-0.025391,1.0471,0.94118,44.785
2.008,-0.20181,0.67351,-0.029297,1.0373,0.94118,44.589
2.016,-0.20181,0.652,-0.013672,1.0412,0.93725,44.394
2.024,-0.20181,0.62952,-0.025391,1.0373,0.94118,44.198
2.032,-0.20181,0.60411,-0.0097656,1.0412,0.92549,44.003
2.04,-0.20181,0.57869,-0.019531,1.0373,0.93137,43.612
2.048,-0.20181,0.55425,-0.0039062,1.0412,0.92157,43.416
2.056,-0.20181,0.53177,-0.0039062,1.0373,0.92549,43.025
2.064,-0.20181,0.51124,0.0097656,1.0412,0.91569,42.829
2.072,-0.20181,0.48876,0,1.0471,0.92157,42.438
2.08,-0.1988,0.46725,0.015625,1.0412,0.91176,42.047
2.088,-0.1988,0.44673,0.0097656,1.0569,0.91569,41.656
2.096,-0.1988,0.42717,0.025391,1.0608,0.90588,41.265
2.104,-0.1988,0.40958,0.025391,1.0725,0.90588,40.678
2.112,-0.19578,0.39394,0.035156,1.0725,0.8902,40.287
2.12,-0.19578,0.38123,0.041016,1.0725,0.8902,40.091
2.128,-0.19578,0.37146,0.054688,1.0725,0.88627,39.7
2.136,-0.19578,0.36364,0.054688,1.0667,0.88039,39.505
2.144,-0.19578,0.35777,0.064453,1.0569,0.87647,39.309
2.152,-0.1988,0.35386,0.070312,1.0471,0.88039,39.505
2.16,-0.1988,0.35191,0.060547,1.0275,0.87059,40.482
2.168,-0.1988,0.35191,0.064453,1.0216,0.87059,42.634
2.176,-0.20181,0.35093,0.050781,1.002,0.88039,45.958
2.184,-0.20181,0.35093,0.035156,0.98627,0.88627,50.652
2.192,-0.20482,0.35093,0.025391,0.97647,0.8902,56.519
2.2,-0.20482,0.35191,0.03125,0.97647,0.8902,62.582
2.208,-0.20783,0.35191,0.015625,0.96667,0.90196,68.449
2.216,-0.21084,0.35191,0.0058594,0.96667,0.89608,73.533
2.224,-0.21084,0.35288,-0.0039062,0.95686,0.90588,77.64
2.232,-0.21386,0.35386,0,0.96078,0.91176,80.769
2.24,-0.21687,0.35484,-0.019531,0.96667,0.91569,82.725
2.248,-0.21988,0.35582,-0.013672,0.95686,0.91176,83.898
2.256,-0.22289,0.35679,-0.025391,0.96078,0.91569,84.289
2.264,-0.2259,0.35777,-0.013672,0.95686,0.91569,84.094
2.272,-0.22892,0.35777,-0.025391,0.97059,0.92157,83.507
2.28,-0.23193,0.35777,-0.025391,0.96078,0.91569,82.529
2.288,-0.23494,0.35777,-0.029297,0.97059,0.92157,81.356
2.296,-0.23795,0.35777,-0.019531,0.96078,0.91569,79.987
2.304,-0.24096,0.35679,-0.025391,0.97059,0.91569,78.422
2.312,-0.24699,0.35582,-0.025391,0.97647,0.91569,76.662
2.32,-0.25,0.35386,-0.048828,0.97647,0.93725,74.707
2.328,-0.25301,0.35191,-0.070312,0.98235,0.95098,72.36
2.336,-0.25904,0.34897,-0.11914,0.99216,0.99216,70.013
2.344,-0.26205,0.34604,-0.16992,0.99608,1.0216,67.471
2.352,-0.26506,0.34311,-0.26953,1.0157,1.0922,64.928
2.36,-0.27108,0.34018,-0.41406,1.0373,1.1824,62.386
2.368,-0.2741,0.33724,-0.49805,1.0314,1.2569,59.648
2.376,-0.27711,0.33333,-0.49805,0.96667,1.3176,57.106
2.384,-0.28012,0.32845,-0.49805,0.8902,1.3176,54.759
2.392,-0.28313,0.32356,-0.49805,0.85098,1.298,52.412
2.4,-0.28614,0.31867,-0.49805,0.86078,1.2725,50.456
2.408,-0.28916,0.31378,-0.49805,0.90588,1.3373,48.696
2.416,-0.29217,0.3089,-0.49805,1.0373,1.3922,47.327
2.424,-0.29217,0.30596,-0.49805,1.1118,1.402,46.154
2.432,-0.29518,0.30401,-0.49805,1.1216,1.2529,45.176
2.44,-0.29518,0.30694,-0.19336,1.0725,1.0314,44.589
2.448,-0.29819,0.31476,0.099609,1.002,0.83529,44.198
2.456,-0.29819,0.32454,0.17969,0.97647,0.7902,43.807
2.464,-0.29819,0.33822,0.22461,0.97059,0.76667,43.612
2.472,-0.3012,0.35973,0.22461,0.96078,0.76078,43.612
2.48,-0.3012,0.38807,0.25,0.95686,0.75098,43.612
2.488,-0.3012,0.42131,0.25,0.96078,0.75098,43.807
2.496,-0.3012,0.45846,0.26953,0.95686,0.74118,44.003
2.504,-0.3012,0.49853,0.27539,0.95686,0.74118,44.198
2.512,-0.3012,0.53959,0.28516,0.95098,0.73137,44.589
2.52,-0.3012,0.57967,0.29102,0.96078,0.73137,44.785
2.528,-0.3012,0.61779,0.30469,0.95098,0.71569,44.98
2.536,-0.30422,0.65298,0.31445,0.95098,0.71569,45.176
2.544,-0.30422,0.68524,0.33984,0.95098,0.7,45.372
2.552,-0.30422,0.71457,0.35547,0.95098,0.68627,45.372
2.56,-0.30422,0.73509,0.38086,0.94706,0.67059,45.567
2.568,-0.30422,0.74976,0.39453,0.95098,0.66078,45.567
2.576,-0.30422,0.76442,0.41602,0.95098,0.6451,45.567
2.584,-0.30422,0.77517,0.43555,0.95098,0.63529,45.567
2.592,-0.30422,0.78299,0.45508,0.94706,0.61961,45.567
2.6,-0.30422,0.78592,0.46484,0.95098,0.61569,45.567
2.608,-0.30422,0.78495,0.4707,0.95098,0.61961,45.567
2.616,-0.30422,0.77908,0.48047,0.96078,0.6098,45.567
2.624,-0.30422,0.76931,0.46484,0.95098,0.61961,45.372
2.632,-0.30422,0.75562,0.44922,0.96667,0.62941,45.372
2.64,-0.3012,0.739,0.41992,0.96667,0.6549,45.176
2.648,-0.3012,0.71848,0.39062,0.97059,0.67647,44.98
2.656,-0.3012,0.69795,0.33594,0.96078,0.70588,44.785
2.664,-0.29819,0.67644,0.29492,0.95686,0.73137,44.589
2.672,-0.29819,0.64809,0.23438,0.95686,0.77059,44.394
2.68,-0.29819,0.61681,0.18945,0.95098,0.7902,44.198
2.688,-0.29819,0.58847,0.13086,0.95686,0.83137,43.807
2.696,-0.29518,0.56305,0.089844,0.95098,0.85098,43.612
2.704,-0.29518,0.53959,0.041016,0.96078,0.88039,43.22
2.712,-0.29518,0.51711,0.019531,0.95686,0.8902,43.025
2.72,-0.29518,0.49462,-0.013672,0.96667,0.91569,42.634
2.728,-0.29217,0.4741,-0.025391,0.96078,0.92549,42.243
2.736,-0.29217,0.45455,-0.054688,0.96667,0.94118,41.851
2.744,-0.29217,0.43793,-0.058594,0.96078,0.94118,41.656
2.752,-0.29217,0.42326,-0.074219,0.97647,0.94118,41.265
2.76,-0.28916,0.41251,-0.080078,0.96667,0.94706,40.874
2.768,-0.28916,0.40469,-0.074219,0.97059,0.95098,40.482
2.776,-0.28916,0.39687,-0.083984,0.97059,0.95686,40.287
2.784,-0.28916,0.38905,-0.089844,0.97647,0.95686,39.896
2.792,-0.28614,0.38319,-0.09375,0.97059,0.96078,39.505
2.8,-0.28614,0.3783,-0.089844,0.97059,0.95686,39.113
2.808,-0.28313,0.37439,-0.09375,0.96667,0.96078,38.722
2.816,-0.28313,0.37048,-0.089844,0.97647,0.96078,38.527
2.824,-0.28012,0.36852,-0.10352,0.97059,0.96667,38.136
2.832,-0.28012,0.36657,-0.09375,0.97647,0.96078,37.94
2.84,-0.27711,0.36461,-0.099609,0.97059,0.96078,37.744
2.848,-0.27711,0.36364,-0.09375,0.97647,0.96078,37.549
2.856,-0.27711,0.36266,-0.099609,0.97059,0.96078,37.353
2.864,-0.2741,0.36168,-0.089844,0.97059,0.96078,37.158
2.872,-0.2741,0.35973,-0.09375,0.97647,0.96078,37.158
2.88,-0.2741,0.35777,-0.074219,0.97059,0.95098,36.962
2.888,-0.2741,0.35582,-0.09375,0.97647,0.96078,36.962
2.896,-0.27108,0.35386,-0.083984,0.97647,0.96078,36.962
2.904,-0.27108,0.35191,-0.09375,0.97647,0.96078,36.962
2.912,-0.27108,0.34995,-0.080078,0.97059,0.95686,36.767
2.92,-0.27108,0.348,-0.089844,0.97647,0.96078,36.767
2.928,-0.27108,0.34604,-0.080078,0.97059,0.95686,36.571
2.936,-0.27108,0.34409,-0.083984,0.97647,0.96078,36.376
2.944,-0.27108,0.34213,-0.074219,0.97059,0.95098,36.376
2.952,-0.27108,0.34115,-0.080078,0.97647,0.95686,36.18
2.96,-0.27108,0.34018,-0.083984,0.97647,0.95686,35.984
2.968,-0.27108,0.33822,-0.074219,0.97647,0.95098,35.984
2.976,-0.27108,0.33627,-0.070312,0.97647,0.94118,35.789
2.984,-0.27108,0.33333,-0.054688,0.98235,0.94118,35.789
2.992,-0.27108,0.32942,-0.035156,0.97647,0.92157,35.789
3,-0.27108,0.32454,-0.025391,0.99216,0.91569,35.789
3.008,-0.27108,0.31965,-0.0039062,0.98627,0.90588,35.593
3.016,-0.27108,0.31476,0.0097656,0.97647,0.8902,35.593
3.024,-0.27108,0.31085,-0.0039062,0.96078,0.90196,35.398
3.032,-0.27108,0.30694,0,0.96078,0.88627,35.398
3.04,-0.27108,0.30401,-0.025391,0.95098,0.90588,35.398
3.048,-0.27108,0.30205,0,0.96078,0.8902,35.202
3.056,-0.27108,0.3001,0,0.97647,0.89608,35.202
3.064,-0.2741,0.29912,0.0058594,0.98235,0.90588,35.007
3.072,-0.2741,0.29619,-0.074219,0.98627,0.95686,34.811
3.08,-0.2741,0.29326,-0.089844,0.97647,0.96078,34.811
3.088,-0.2741,0.29032,-0.10352,0.98235,0.96667,34.615
3.096,-0.27711,0.28641,-0.089844,0.97647,0.95686,34.42
3.104,-0.27711,0.2825,-0.10352,0.98235,0.96667,34.42
3.112,-0.28012,0.27957,-0.09375,0.97647,0.96667,34.224
3.12,-0.28012,0.27664,-0.099609,0.98235,0.96078,34.029
3.128,-0.28313,0.27468,-0.09375,0.98235,0.97059,34.029
3.136,-0.28313,0.27273,-0.099609,0.97647,0.96078,33.833
3.144,-0.28313,0.27175,-0.058594,0.95098,0.95098,33.833
3.152,-0.28614,0.27077,-0.0039062,0.90196,0.92157,33.833
3.16,-0.28614,0.26979,0.085938,0.81176,0.85098,33.638
3.168,-0.28614,0.26979,-0.013672,0.82157,0.8451,33.638
3.176,-0.28614,0.26979,-0.10938,0.61961,0.87059,33.638
3.184,-0.28614,0.26882,-0.17969,0.58431,0.90196,33.442
3.192,-0.28614,0.26882,-0.29883,0.71569,1.0314,33.442
3.2,-0.28614,0.26882,-0.34375,0.95098,1.0961,33.246
3.208,-0.28614,0.26784,-0.17969,1.0216,1.0275,33.246
3.216,-0.28614,0.26686,-0.10352,1.0471,0.98627,33.246
3.224,-0.28614,0.26588,-0.080078,1.0471,0.97647,33.051
3.232,-0.28614,0.26491,-0.064453,1.0569,0.96078,33.051
3.24,-0.28313,0.26491,-0.074219,1.0569,0.96667,33.051
3.248,-0.28313,0.26491,-0.058594,1.0608,0.96078,32.855
3.256,-0.28313,0.26588,-0.064453,1.051,0.96078,32.855
3.264,-0.28012,0.26784,-0.048828,1.0569,0.95098,32.855
3.272,-0.28012,0.26882,-0.054688,1.051,0.95686,32.855
3.28,-0.27711,0.26979,-0.039062,1.051,0.95098,32.855
3.288,-0.27711,0.27077,-0.048828,1.0471,0.95686,32.855
3.296,-0.2741,0.27077,-0.035156,1.0471,0.94118,32.66
3.304,-0.2741,0.27175,-0.039062,1.051,0.95098,32.66
3.312,-0.2741,0.27175,-0.029297,1.0471,0.94118,32.464
3.32,-0.2741,0.27175,-0.025391,1.051,0.94118,32.464
3.328,-0.27108,0.27273,-0.029297,1.0471,0.93137,32.464
3.336,-0.27108,0.2737,-0.025391,1.0471,0.92549,32.464
3.344,-0.27108,0.2737,-0.0097656,1.0471,0.92157,32.269
3.352,-0.27108,0.27273,-0.0097656,1.0569,0.92549,32.269
3.36,-0.27108,0.27273,0,1.051,0.91569,32.073
3.368,-0.27108,0.27273,0,1.0667,0.91569,31.877
3.376,-0.27108,0.27273,0.0058594,1.0608,0.92157,31.877
3.384,-0.27108,0.27175,0.015625,1.0725,0.91176,31.682
3.392,-0.27108,0.27077,0.0058594,1.0725,0.91569,31.486
3.4,-0.26807,0.26979,0.019531,1.0824,0.90588,31.486
3.408,-0.26807,0.26979,0.015625,1.0765,0.90588,31.291
3.416,-0.26807,0.26979,0.025391,1.0765,0.90196,31.291
3.424,-0.26807,0.26979,0.019531,1.0667,0.91176,31.682
3.432,-0.26506,0.26979,0.03125,1.0569,0.89608,32.855
3.44,-0.26506,0.26882,0.019531,1.0373,0.90196,35.789
3.448,-0.26506,0.26784,0.035156,1.0216,0.8902,40.874
3.456,-0.26506,0.26784,0.019531,1.0059,0.89608,47.914
3.464,-0.26506,0.26784,0.019531,0.99608,0.8902,56.323
3.472,-0.26506,0.26784,0.015625,0.98235,0.8902,64.537
3.48,-0.26506,0.26686,0.019531,0.97059,0.8902,71.773
3.488,-0.26506,0.26588,0.0097656,0.96078,0.89608,77.64
3.496,-0.26506,0.26588,0.015625,0.95686,0.89608,81.747
3.504,-0.26506,0.26588,0,0.96078,0.91176,84.485
3.512,-0.26506,0.26588,0.0058594,0.95098,0.90196,85.854
3.52,-0.26807,0.26686,0,0.95098,0.90588,86.441
3.528,-0.26807,0.26686,0,0.95686,0.90196,86.245
3.536,-0.27108,0.26686,-0.019531,0.96667,0.91176,85.854
3.544,-0.27108,0.26686,-0.0097656,0.95686,0.91569,84.876
3.552,-0.2741,0.26686,-0.013672,0.96078,0.90588,83.703
3.56,-0.27711,0.26784,-0.0097656,0.95686,0.91569,82.334
3.568,-0.27711,0.26882,-0.025391,0.95686,0.90588,80.574
3.576,-0.28012,0.26882,-0.013672,0.95098,0.91569,78.814
3.584,-0.28313,0.26882,-0.019531,0.96078,0.91176,76.858
3.592,-0.28614,0.26784,-0.025391,0.96078,0.91569,74.902
3.6,-0.28916,0.26882,-0.013672,0.96667,0.91176,72.751
3.608,-0.29217,0.26979,-0.025391,0.96078,0.91569,70.404
3.616,-0.29518,0.27077,-0.0097656,0.97059,0.91176,68.057
3.624,-0.29819,0.27175,-0.013672,0.96667,0.90196,65.711
3.632,-0.3012,0.2737,0.015625,0.97647,0.8902,62.973
3.64,-0.30422,0.27468,0.019531,0.97647,0.8902,60.43
3.648,-0.30422,0.27566,0.044922,0.98235,0.88039,58.083
3.656,-0.30422,0.27664,0.041016,0.96667,0.87647,55.541
3.664,-0.30723,0.27761,0.035156,0.96078,0.87059,53.194
3.672,-0.30723,0.27761,0.019531,0.94706,0.88039,51.043
3.68,-0.30723,0.27761,0.019531,0.93725,0.88039,49.283
3.688,-0.30723,0.27761,0.019531,0.95098,0.88627,47.523
3.696,-0.30723,0.27761,0.025391,0.96078,0.87647,46.154
3.704,-0.30723,0.27957,-0.0039062,0.97059,0.91176,44.98
3.712,-0.30723,0.28446,-0.044922,0.96667,0.93725,44.198
3.72,-0.30422,0.29423,-0.080078,0.97647,0.96078,43.612
3.728,-0.30422,0.3089,-0.074219,0.96667,0.95686,43.22
3.736,-0.30422,0.3304,-0.083984,0.97059,0.96078,43.025
3.744,-0.30422,0.35875,-0.074219,0.97059,0.95686,43.025
3.752,-0.3012,0.39198,-0.083984,0.97647,0.96078,43.025
3.76,-0.3012,0.42424,-0.080078,0.97059,0.96078,43.025
3.768,-0.3012,0.4565,-0.089844,0.97647,0.96078,43.025
3.776,-0.3012,0.4956,-0.09375,0.97059,0.96667,43.22
3.784,-0.29819,0.53763,-0.054688,0.95098,0.94118,43.416
3.792,-0.29819,0.58065,-0.0039062,0.8902,0.91569,43.807
3.8,-0.29819,0.62268,0.064453,0.80588,0.86667,44.003
3.808,-0.29819,0.66276,0,0.77647,0.85098,44.198
3.816,-0.29819,0.70088,-0.10938,0.61961,0.87647,44.394
3.824,-0.29819,0.73607,-0.18945,0.56078,0.8902,44.589
3.832,-0.3012,0.76735,-0.29492,0.6902,1.0118,44.589
3.84,-0.3012,0.79374,-0.34375,0.91569,1.1118,44.785
3.848,-0.3012,0.81623,-0.17383,1.0059,1.0216,44.785
3.856,-0.3012,0.83089,-0.089844,1.0275,0.98235,44.785
3.864,-0.30422,0.84066,-0.058594,1.0471,0.96078,44.785
3.872,-0.30422,0.84848,-0.054688,1.0471,0.96078,44.785
3.88,-0.30422,0.85337,-0.044922,1.0471,0.95686,44.785
3.888,-0.30422,0.85533,-0.048828,1.051,0.95098,44.589
3.896,-0.30422,0.85239,-0.029297,1.0471,0.94118,44.589
3.904,-0.30723,0.84653,-0.039062,1.0471,0.95098,44.589
3.912,-0.30723,0.83675,-0.029297,1.0471,0.94118,44.394
3.92,-0.30723,0.82307,-0.029297,1.0471,0.94118,44.198
3.928,-0.30723,0.80743,-0.025391,1.0412,0.94118,44.003
3.936,-0.30723,0.78788,-0.025391,1.0412,0.94118,43.807
3.944,-0.30723,0.76735,-0.013672,1.0412,0.93725,43.416
3.952,-0.30723,0.74682,-0.019531,1.0412,0.93725,43.22
3.96,-0.30422,0.72532,-0.0097656,1.0412,0.92549,43.025
3.968,-0.30422,0.70186,-0.013672,1.0471,0.92157,42.829
3.976,-0.30422,0.6784,-0.0039062,1.0412,0.93137,42.438
3.984,-0.30422,0.65396,0,1.0471,0.92157,42.047
3.992,-0.3012,0.6305,0.0058594,1.0471,0.91569,41.851
4,-0.3012,0.60704,0.0097656,1.0608,0.91569,41.46
4.008,-0.29819,0.58553,0,1.0608,0.91569,41.069
4.016,-0.29518,0.56403,0.019531,1.0725,0.90588,40.678
4.024,-0.29217,0.54545,0.015625,1.0725,0.91176,40.091
4.032,-0.29217,0.52884,0.03125,1.0765,0.89608,39.896
4.04,-0.28916,0.51417,0.041016,1.0824,0.90196,39.505
4.048,-0.28614,0.50049,0.050781,1.0863,0.8902,39.113
4.056,-0.28313,0.49071,0.044922,1.0725,0.88627,38.722
4.064,-0.28012,0.48192,0.060547,1.0608,0.87647,38.527
4.072,-0.27711,0.47507,0.050781,1.0412,0.87647,38.527
4.08,-0.2741,0.46823,0.060547,1.0314,0.87647,38.918
4.088,-0.27108,0.46334,0.044922,1.0118,0.87647,39.896
4.096,-0.26807,0.45943,0.050781,0.99608,0.87059,41.656
4.104,-0.26506,0.45552,0.025391,0.97647,0.8902,44.785
4.112,-0.26205,0.45161,0.03125,0.97059,0.88627,48.892
4.12,-0.25904,0.44868,0.0097656,0.95686,0.89608,53.585
4.128,-0.25602,0.44575,0.015625,0.95686,0.8902,58.475
4.136,-0.25602,0.44282,0,0.95098,0.90196,63.168
4.144,-0.25301,0.43988,0,0.95686,0.90196,67.471
4.152,-0.25301,0.43793,-0.019531,0.96078,0.91176,70.795
4.16,-0.25301,0.435,-0.025391,0.95686,0.91569,73.338
4.168,-0.25602,0.43206,-0.035156,0.96078,0.92157,75.098
4.176,-0.25602,0.42815,-0.029297,0.95098,0.91569,76.076
4.184,-0.25602,0.42424,-0.025391,0.95686,0.91569,76.467
4.192,-0.25904,0.42033,-0.035156,0.95098,0.92157,76.467
4.2,-0.26205,0.4174,-0.025391,0.96078,0.91569,75.88
4.208,-0.26205,0.41349,-0.029297,0.95686,0.91569,75.098
4.216,-0.26506,0.40958,-0.025391,0.96078,0.91569,73.924
4.224,-0.26807,0.40665,-0.044922,0.96667,0.92157,72.555
4.232,-0.27108,0.40274,-0.039062,0.97059,0.91569,70.991
4.24,-0.2741,0.39883,-0.048828,0.97059,0.92549,69.231
4.248,-0.27711,0.39492,-0.044922,0.97647,0.92549,67.275
4.256,-0.27711,0.39101,-0.048828,0.96667,0.92157,65.319
4.264,-0.28012,0.3871,-0.025391,0.97647,0.91569,62.973
4.272,-0.28313,0.38221,-0.0039062,0.97647,0.90196,60.626
4.28,-0.28614,0.37732,0.015625,0.97647,0.8902,58.279
4.288,-0.28614,0.37146,0.025391,0.98627,0.88039,55.932
4.296,-0.28916,0.36657,0.044922,0.97647,0.86667,53.585
4.304,-0.28916,0.3607,0.019531,0.96667,0.87059,51.434
4.312,-0.28916,0.35484,0.025391,0.95686,0.86078,49.479
4.32,-0.29217,0.34897,0.0097656,0.94706,0.87059,47.523
4.328,-0.29217,0.34506,0.025391,0.94118,0.87647,45.958
4.336,-0.29217,0.34115,0.019531,0.96667,0.87059,44.589
4.344,-0.29217,0.33724,0.025391,0.96078,0.88039,43.416
4.352,-0.29217,0.33529,-0.039062,0.98235,0.92549,42.438
4.36,-0.29217,0.33431,-0.058594,0.97647,0.94118,41.656
4.368,-0.29217,0.33431,-0.074219,0.97647,0.94706,41.265
4.376,-0.29217,0.33822,-0.080078,0.97647,0.95098,40.678
4.384,-0.29217,0.34604,-0.070312,0.97647,0.94706,40.482
4.392,-0.29217,0.35777,-0.074219,0.97647,0.95098,40.287
4.4,-0.29217,0.37537,-0.074219,0.98235,0.94706,40.287
4.408,-0.29217,0.39687,-0.064453,0.97647,0.95098,40.287
4.416,-0.29217,0.42229,-0.058594,0.98235,0.94118,40.287
4.424,-0.29217,0.45161,-0.074219,0.96667,0.95686,40.482
4.432,-0.29217,0.48192,-0.0097656,0.92549,0.92157,40.482
4.44,-0.28916,0.5132,0.070312,0.83137,0.87647,40.678
4.448,-0.28916,0.54448,0.11133,0.78627,0.82549,40.874
4.456,-0.28916,0.57087,-0.048828,0.67059,0.85098,41.069
4.464,-0.28916,0.59335,-0.1543,0.57059,0.87059,41.265
4.472,-0.28614,0.61681,-0.22852,0.63529,0.95098,41.265
4.48,-0.28614,0.6393,-0.30469,0.8451,1.0667,41.46
4.488,-0.28313,0.65885,-0.21875,0.98627,1.0765,41.46
4.496,-0.28313,0.67546,-0.083984,1.0216,0.96667,41.46
4.504,-0.28313,0.68817,-0.048828,1.0471,0.95098,41.46
4.512,-0.28012,0.69795,-0.029297,1.0569,0.94118,41.46
4.52,-0.28012,0.70283,-0.039062,1.0608,0.94706,41.656
4.528,-0.28012,0.70381,-0.019531,1.0569,0.93137,41.656
4.536,-0.27711,0.70186,-0.025391,1.0608,0.93137,41.46
4.544,-0.27711,0.69599,-0.019531,1.051,0.93137,41.46
4.552,-0.27711,0.68719,-0.025391,1.0608,0.93725,41.46
4.56,-0.27711,0.67546,-0.0039062,1.0471,0.91569,41.265
4.568,-0.27711,0.6608,0,1.051,0.92157,41.069
4.576,-0.27711,0.64321,-0.0097656,1.0569,0.92549,41.069
4.584,-0.27711,0.62366,0,1.051,0.91569,40.874
4.592,-0.27711,0.60215,0.0058594,1.0412,0.91569,40.482
4.6,-0.27711,0.58065,0,1.0471,0.91569,40.287
4.608,-0.27711,0.55816,0.015625,1.0412,0.91176,40.091
4.616,-0.27711,0.53666,0.019531,1.0471,0.90588,39.896
4.624,-0.27711,0.51515,0.015625,1.0471,0.90196,39.7
4.632,-0.27711,0.49365,0.03125,1.0471,0.8902,39.309
4.64,-0.2741,0.47312,0.025391,1.0471,0.89608,38.918
4.648,-0.2741,0.45357,0.035156,1.0569,0.8902,38.527
4.656,-0.27108,0.43597,0.019531,1.0569,0.89608,38.136
4.664,-0.26807,0.42229,0.044922,1.0608,0.8902,37.744
4.672,-0.26506,0.40762,0.044922,1.0667,0.8902,37.353
4.68,-0.26205,0.39394,0.054688,1.0725,0.88039,37.158
4.688,-0.25904,0.38123,0.054688,1.0725,0.88627,36.767
4.696,-0.25301,0.37048,0.064453,1.0725,0.87059,36.571
4.704,-0.25,0.3607,0.060547,1.0569,0.87647,36.376
4.712,-0.24398,0.35288,0.070312,1.0471,0.86667,36.18
4.72,-0.23795,0.3392,0.054688,1.0314,0.87647,36.571
4.728,-0.23193,0.32454,0.076172,1.0157,0.86078,37.353
4.736,-0.22289,0.31476,0.054688,1.0059,0.86667,39.113
4.744,-0.21687,0.30987,0.044922,1.002,0.87647,42.047
4.752,-0.20783,0.30694,0.03125,0.98627,0.88627,46.545
4.76,-0.20181,0.30499,0.035156,0.97647,0.8902,51.825
4.768,-0.19578,0.30401,0.025391,0.97059,0.88627,57.301
4.776,-0.18976,0.30303,0.03125,0.96078,0.88627,62.973
4.784,-0.18373,0.30205,0,0.96667,0.89608,67.666
4.792,-0.17771,0.30205,-0.0039062,0.96078,0.90588,71.773
4.8,-0.17169,0.30108,0,0.96667,0.90196,74.902
4.808,-0.16566,0.3001,-0.0097656,0.96667,0.92157,77.054
4.816,-0.15964,0.29814,-0.0039062,0.96667,0.91569,78.227
4.824,-0.15663,0.29717,-0.013672,0.95686,0.92157,78.814
4.832,-0.1506,0.29619,-0.0097656,0.96078,0.91569,78.618
4.84,-0.14759,0.29423,-0.025391,0.95686,0.92157,78.031
4.848,-0.14458,0.29228,0,0.96078,0.91569,77.054
4.856,-0.13855,0.2913,-0.025391,0.96667,0.92549,75.88
4.864,-0.13554,0.28935,-0.025391,0.97059,0.92549,74.316
4.872,-0.13253,0.28837,-0.0039062,0.95686,0.91569,72.751
4.88,-0.12952,0.28641,-0.019531,0.96667,0.92157,70.795
4.888,-0.12651,0.28446,-0.013672,0.96078,0.92157,68.84
4.896,-0.12349,0.28152,-0.0097656,0.96667,0.91569,66.688
4.904,-0.11747,0.27859,-0.019531,0.97059,0.92157,64.342
4.912,-0.11446,0.27566,0.019531,0.97059,0.8902,61.799
4.92,-0.11145,0.27175,0.015625,0.97647,0.89608,59.452
4.928,-0.10843,0.26882,0.035156,0.98235,0.88627,56.91
4.936,-0.10241,0.26491,0.035156,0.97059,0.8902,54.563
4.944,-0.099398,0.26197,0.03125,0.95686,0.87059,52.216
4.952,-0.093373,0.25904,0.03125,0.94118,0.87059,49.87
4.96,-0.090361,0.25709,0.025391,0.93137,0.87647,47.718
4.968,-0.084337,0.25513,0.019531,0.95686,0.88627,45.958
4.976,-0.078313,0.25122,0.025391,0.96667,0.87647,44.394
4.984,-0.075301,0.24829,0.0097656,0.97647,0.8902,43.025
4.992,-0.069277,0.24633,-0.029297,0.97647,0.92549,42.047
5,-0.066265,0.24536,-0.064453,0.98235,0.94706,41.265
5.008,-0.060241,0.24633,-0.064453,0.97647,0.95686,40.678
5.016,-0.054217,0.25122,-0.080078,0.98627,0.96078,40.482
5.024,-0.048193,0.25806,-0.074219,0.98235,0.96078,40.091
5.032,-0.045181,0.26979,-0.070312,0.98235,0.95686,40.091
5.04,-0.039157,0.28641,-0.058594,0.97647,0.94706,40.091
5.048,-0.033133,0.30694,-0.048828,0.97647,0.94118,40.287
5.056,-0.024096,0.32649,-0.058594,0.97059,0.94706,40.482
5.064,-0.018072,0.34702,-0.035156,0.96078,0.93725,40.678
5.072,-0.012048,0.37243,0,0.92157,0.92157,40.874
5.08,-0.0060241,0.3998,0.070312,0.85098,0.87059,41.265
5.088,0,0.42815,0.089844,0.81569,0.85098,41.46
5.096,0.0060241,0.4565,-0.048828,0.71569,0.87647,41.656
5.104,0.012048,0.48289,-0.14844,0.61569,0.89608,41.851
5.112,0.018072,0.50831,-0.20898,0.6098,0.96078,41.851
5.12,0.024096,0.53177,-0.30859,0.85098,1.0765,42.047
5.128,0.03012,0.5523,-0.22461,0.98235,1.0863,42.047
5.136,0.036145,0.56891,-0.10352,1.0118,0.98627,42.047
5.144,0.042169,0.5826,-0.054688,1.0373,0.96078,42.047
5.152,0.048193,0.5914,-0.048828,1.0471,0.96078,42.243
5.16,0.054217,0.59531,-0.044922,1.0471,0.95686,42.243
5.168,0.060241,0.59824,-0.048828,1.0412,0.95098,42.243
5.176,0.066265,0.59922,-0.035156,1.0412,0.94118,42.047
5.184,0.072289,0.59629,-0.029297,1.0412,0.94706,42.047
5.192,0.078313,0.5914,-0.035156,1.0314,0.94118,42.047
5.2,0.087349,0.5826,-0.025391,1.0314,0.94118,42.047
5.208,0.093373,0.57185,-0.025391,1.0275,0.94706,42.047
5.216,0.099398,0.55718,-0.029297,1.0314,0.94118,42.047
5.224,0.10542,0.54154,-0.025391,1.0216,0.95098,41.851
5.232,0.11145,0.52297,-0.019531,1.0275,0.94118,41.851
5.24,0.11747,0.5044,-0.025391,1.0216,0.93725,41.851
5.248,0.12349,0.48387,-0.0097656,1.0275,0.93137,41.656
5.256,0.12651,0.46628,-0.019531,1.0314,0.93725,41.656
5.264,0.12952,0.44966,-0.0097656,1.0216,0.92549,41.46
5.272,0.12952,0.43206,-0.0039062,1.0275,0.93137,41.265
5.28,0.13253,0.41447,0,1.0314,0.92549,40.874
5.288,0.13253,0.39589,0,1.0373,0.92157,40.678
5.296,0.13253,0.37928,0.019531,1.0314,0.91569,40.482
5.304,0.13253,0.36364,0.0097656,1.0471,0.91569,40.091
5.312,0.13253,0.34995,0.03125,1.0471,0.90588,39.896
5.32,0.12952,0.33822,0.025391,1.0569,0.91176,39.7
5.328,0.12952,0.32747,0.044922,1.051,0.8902,39.505
5.336,0.12349,0.31965,0.035156,1.0569,0.90196,39.309
5.344,0.11747,0.31281,0.050781,1.0412,0.8902,39.309
5.352,0.10843,0.30792,0.044922,1.0314,0.89608,39.309
5.36,0.099398,0.30499,0.050781,1.0216,0.8902,39.7
5.368,0.087349,0.30303,0.041016,1.0059,0.89608,40.678
5.376,0.078313,0.3001,0.044922,0.99608,0.8902,42.634
5.384,0.066265,0.29814,0.025391,0.98235,0.89608,45.763
5.392,0.054217,0.29717,0.019531,0.97647,0.90588,49.87
5.4,0.042169,0.29619,0.0097656,0.97059,0.90196,54.759
5.408,0.03012,0.29521,0.0058594,0.96078,0.90588,60.039
5.416,0.018072,0.29423,-0.0039062,0.96667,0.91569,65.124
5.424,0.0090361,0.29326,-0.013672,0.95686,0.92157,69.426
5.432,-0.0030121,0.29228,-0.0097656,0.96078,0.91569,73.142
5.44,-0.01506,0.29228,-0.025391,0.95098,0.92549,75.88
5.448,-0.024096,0.2913,-0.029297,0.95686,0.92549,77.836
5.456,-0.036145,0.29032,-0.035156,0.96078,0.93137,78.814
5.464,-0.045181,0.29032,-0.025391,0.96078,0.93137,79.205
5.472,-0.054217,0.29032,-0.044922,0.95686,0.93725,79.009
5.48,-0.063253,0.28935,-0.035156,0.96667,0.93137,78.422
5.488,-0.072289,0.28837,-0.039062,0.95686,0.93725,77.445
5.496,-0.081325,0.28739,-0.029297,0.96078,0.92549,76.271
5.504,-0.087349,0.28739,-0.039062,0.95098,0.93725,75.098
5.512,-0.096386,0.28739,-0.025391,0.95686,0.92549,73.533
5.52,-0.10241,0.28739,-0.029297,0.96078,0.93137,71.773
5.528,-0.11145,0.28739,-0.019531,0.96667,0.92549,69.818
5.536,-0.11747,0.28739,-0.029297,0.97059,0.93137,67.666
5.544,-0.12651,0.28739,-0.025391,0.96667,0.92549,65.515
5.552,-0.13253,0.28739,-0.019531,0.97647,0.92549,63.168
5.56,-0.13855,0.28739,0.0058594,0.97059,0.90588,60.821
5.568,-0.14759,0.28641,0.0097656,0.97647,0.89608,58.279
5.576,-0.15361,0.28446,0.044922,0.97647,0.88039,56.128
5.584,-0.15663,0.28348,0.044922,0.97647,0.87647,53.781
5.592,-0.16265,0.28152,0.035156,0.95686,0.88039,51.63
5.6,-0.16867,0.27957,0.019531,0.95098,0.87647,49.674
5.608,-0.1747,0.27859,0.0097656,0.94706,0.8902,47.914
5.616,-0.17771,0.27664,0.019531,0.95098,0.88627,46.349
5.624,-0.18373,0.27468,0.025391,0.96078,0.88039,45.176
5.632,-0.18675,0.27468,0.03125,0.97647,0.87647,44.198
5.64,-0.18976,0.27566,-0.029297,0.97647,0.92157,43.416
5.648,-0.19277,0.27859,-0.054688,0.97059,0.94118,42.829
5.656,-0.19578,0.28446,-0.074219,0.97647,0.95098,42.438
5.664,-0.1988,0.29228,-0.080078,0.97647,0.95098,42.243
5.672,-0.20181,0.30401,-0.083984,0.97647,0.95686,42.047
5.68,-0.20482,0.32063,-0.074219,0.97647,0.95098,42.047
5.688,-0.20482,0.34115,-0.080078,0.97647,0.96078,42.047
5.696,-0.20783,0.36461,-0.074219,0.97647,0.95098,42.047
5.704,-0.20783,0.39003,-0.080078,0.97059,0.96078,42.243
5.712,-0.21084,0.4174,-0.054688,0.96078,0.94118,42.438
5.72,-0.21084,0.44575,-0.025391,0.92549,0.93725,42.438
5.728,-0.21084,0.4741,0.064453,0.83529,0.87647,42.634
5.736,-0.21084,0.50049,0.089844,0.8,0.8451,42.829
5.744,-0.21386,0.52493,-0.058594,0.68627,0.86667,43.025
5.752,-0.21386,0.54545,-0.17383,0.6,0.8902,43.025
5.76,-0.21386,0.56109,-0.25977,0.66471,0.97647,43.025
5.768,-0.21386,0.57869,-0.35938,0.88627,1.0961,43.025
5.776,-0.21687,0.59335,-0.21875,1.0157,1.0412,43.025
5.784,-0.21687,0.60508,-0.11523,1.0275,0.99216,43.025
5.792,-0.21687,0.61486,-0.070312,1.0471,0.96667,43.025
5.8,-0.21687,0.62072,-0.054688,1.051,0.96078,43.025
5.808,-0.21687,0.62268,-0.039062,1.0471,0.95098,43.025
5.816,-0.21687,0.62268,-0.035156,1.0471,0.94706,43.025
5.824,-0.21687,0.61877,-0.048828,1.0412,0.95686,43.025
5.832,-0.21988,0.6129,-0.029297,1.0471,0.94118,43.025
5.84,-0.21988,0.60313,-0.035156,1.0471,0.94706,43.025
5.848,-0.21988,0.59335,-0.025391,1.0471,0.94118,42.829
5.856,-0.21988,0.58162,-0.019531,1.0412,0.93725,42.829
5.864,-0.22289,0.56794,-0.013672,1.0471,0.93725,42.634
5.872,-0.22289,0.5523,-0.019531,1.0412,0.93137,42.438
5.88,-0.22289,0.53568,-0.0097656,1.0412,0.92549,42.243
5.888,-0.2259,0.51808,-0.019531,1.0373,0.93137,42.047
5.896,-0.2259,0.49951,0,1.0412,0.91569,41.851
5.904,-0.2259,0.48192,0,1.0412,0.92157,41.656
5.912,-0.2259,0.46432,0.0097656,1.0471,0.91569,41.46
5.92,-0.22892,0.4477,0,1.0412,0.92157,41.069
5.928,-0.22892,0.43304,0.019531,1.0471,0.91176,40.678
5.936,-0.22892,0.41838,0.015625,1.051,0.91569,40.287
5.944,-0.22892,0.40567,0.019531,1.0471,0.90588,40.091
5.952,-0.22892,0.39492,0.019531,1.0725,0.90588,39.7
5.96,-0.22892,0.38612,0.041016,1.0725,0.89608,39.309
5.968,-0.22892,0.3783,0.035156,1.0824,0.90196,38.918
5.976,-0.22892,0.37048,0.050781,1.0765,0.8902,38.527
5.984,-0.2259,0.36364,0.044922,1.0765,0.8902,38.331
5.992,-0.2259,0.35777,0.054688,1.0725,0.88627,38.136
6,-0.2259,0.35386,0.050781,1.0569,0.88039,37.94
6.008,-0.2259,0.34995,0.044922,1.0412,0.8902,38.527
6.016,-0.2259,0.34702,0.054688,1.0216,0.87647,39.7
6.024,-0.2259,0.34409,0.041016,0.99608,0.8902,42.438
6.032,-0.2259,0.34311,0.044922,0.99216,0.88039,46.349
6.04,-0.2259,0.34213,0.03125,0.97647,0.8902,51.63
6.048,-0.2259,0.34115,0.015625,0.97059,0.8902,57.497
6.056,-0.2259,0.34115,0.0097656,0.95686,0.89608,63.364
6.064,-0.2259,0.34018,0.015625,0.96667,0.90196,68.644
6.072,-0.22892,0.3392,-0.0097656,0.96078,0.91176,73.142
6.08,-0.22892,0.33822,-0.013672,0.96667,0.91176,76.662
6.088,-0.23193,0.33724,-0.025391,0.96078,0.91569,78.814
6.096,-0.23193,0.33627,-0.013672,0.96078,0.91569,80.183
6.104,-0.23494,0.33529,-0.025391,0.95686,0.91569,80.965
6.112,-0.23795,0.33431,-0.013672,0.95686,0.91569,80.965
6.12,-0.24096,0.33236,-0.025391,0.96078,0.92157,80.574
6.128,-0.24398,0.33138,-0.019531,0.95686,0.91569,79.791
6.136,-0.25,0.3304,-0.029297,0.96667,0.92549,78.814
6.144,-0.25301,0.32942,-0.019531,0.96078,0.91569,77.64
6.152,-0.25602,0.32845,-0.035156,0.96667,0.92549,76.271
6.16,-0.25904,0.32747,-0.025391,0.96078,0.92157,74.707
6.168,-0.26506,0.32551,-0.035156,0.97059,0.92549,72.947
6.176,-0.26807,0.32454,-0.025391,0.96078,0.92157,70.991
6.184,-0.27108,0.32258,-0.039062,0.96667,0.92549,68.84
6.192,-0.27711,0.32063,-0.025391,0.96667,0.91569,66.493
6.2,-0.28012,0.31769,-0.0097656,0.97647,0.91176,64.146
6.208,-0.28313,0.31476,0.015625,0.97647,0.8902,61.604
6.216,-0.28313,0.31281,0.019531,0.97647,0.8902,59.257
6.224,-0.28614,0.30987,0.041016,0.97059,0.88039,56.91
6.232,-0.28916,0.30694,0.025391,0.96078,0.87647,54.563
6.24,-0.28916,0.30401,0.03125,0.95098,0.87059,52.412
6.248,-0.28916,0.30205,0.015625,0.94706,0.87647,50.456
6.256,-0.29217,0.29912,0.0058594,0.94706,0.88039,48.696
6.264,-0.29217,0.29619,0.03125,0.96078,0.87059,47.132
6.272,-0.29217,0.29423,0.019531,0.96078,0.88039,45.763
6.28,-0.29217,0.29228,-0.013672,0.97647,0.91176,44.785
6.288,-0.29217,0.2913,-0.058594,0.97059,0.94118,44.003
6.296,-0.29217,0.29423,-0.070312,0.97647,0.94706,43.416
6.304,-0.29217,0.3001,-0.074219,0.97059,0.95098,42.829
6.312,-0.29217,0.31085,-0.074219,0.97647,0.94706,42.634
6.32,-0.29217,0.32649,-0.083984,0.97059,0.96078,42.438
6.328,-0.29217,0.34604,-0.074219,0.97647,0.95686,42.243
6.336,-0.29217,0.3695,-0.083984,0.97647,0.96078,42.438
6.344,-0.29217,0.39589,-0.074219,0.97647,0.95686,42.438
6.352,-0.29217,0.42033,-0.083984,0.97059,0.96078,42.634
6.36,-0.29217,0.44379,-0.029297,0.93725,0.92549,42.829
6.368,-0.29217,0.47116,0.019531,0.87059,0.90196,43.025
6.376,-0.29217,0.49853,0.089844,0.7902,0.84118,43.025
6.384,-0.29217,0.52688,-0.035156,0.79608,0.86667,43.22
6.392,-0.29217,0.5523,-0.1543,0.59608,0.88039,43.416
6.4,-0.29217,0.57674,-0.22461,0.58431,0.93137,43.612
6.408,-0.29217,0.59824,-0.31445,0.78039,1.051,43.612
6.416,-0.29217,0.61681,-0.33398,0.98235,1.0922,43.612
6.424,-0.29217,0.63245,-0.11523,1.0157,0.99216,43.807
6.432,-0.29217,0.64418,-0.070312,1.0471,0.96667,43.807
6.44,-0.29217,0.652,-0.044922,1.0471,0.95686,43.807
6.448,-0.29217,0.65494,-0.035156,1.051,0.95098,43.807
6.456,-0.29217,0.65494,-0.039062,1.0471,0.95686,43.807
6.464,-0.29217,0.65298,-0.029297,1.051,0.95098,43.807
6.472,-0.29217,0.64809,-0.035156,1.0471,0.94118,43.612
6.48,-0.29518,0.64027,-0.019531,1.0471,0.94118,43.612
6.488,-0.29518,0.6305,-0.025391,1.0471,0.93725,43.416
6.496,-0.29518,0.61779,-0.0097656,1.0471,0.93137,43.22
6.504,-0.29518,0.60313,-0.013672,1.0471,0.92549,43.22
6.512,-0.29518,0.58651,0,1.0471,0.91569,43.025
6.52,-0.29518,0.56794,-0.0039062,1.0373,0.92157,42.829
6.528,-0.29518,0.54839,0.0058594,1.0314,0.91569,42.634
6.536,-0.29518,0.52884,-0.0039062,1.0412,0.92157,42.438
6.544,-0.29518,0.50929,0.0058594,1.0471,0.91569,42.047
6.552,-0.29518,0.49169,0,1.0412,0.91569,41.656
6.56,-0.29518,0.47605,0.015625,1.0471,0.90588,41.46
6.568,-0.29518,0.45943,0.015625,1.0471,0.91569,41.069
6.576,-0.29518,0.44379,0.019531,1.051,0.90588,40.678
6.584,-0.29518,0.42815,0.025391,1.0569,0.91176,40.287
6.592,-0.29518,0.41349,0.019531,1.0608,0.90196,39.896
6.6,-0.29518,0.3998,0.041016,1.0765,0.90196,39.505
6.608,-0.29518,0.3871,0.054688,1.0725,0.8902,39.113
6.616,-0.29217,0.37634,0.054688,1.0824,0.8902,38.722
6.624,-0.29217,0.36657,0.064453,1.0725,0.88039,38.527
6.632,-0.28916,0.35875,0.070312,1.0725,0.87647,38.331
6.64,-0.28614,0.35191,0.054688,1.0471,0.87647,38.136
6.648,-0.28614,0.34702,0.070312,1.0412,0.86667,38.136
6.656,-0.28313,0.34311,0.064453,1.0216,0.87647,38.722
6.664,-0.28012,0.34018,0.054688,1.0118,0.87059,40.287
6.672,-0.27711,0.33822,0.044922,0.99216,0.87647,43.025
6.68,-0.2741,0.33627,0.041016,0.98235,0.88039,46.936
6.688,-0.27108,0.33431,0.035156,0.97059,0.88627,52.021
6.696,-0.26807,0.33236,0.041016,0.96667,0.88039,57.301
6.704,-0.26506,0.33138,0.015625,0.97059,0.8902,62.582
6.712,-0.26205,0.32942,0.019531,0.95686,0.8902,67.471
6.72,-0.25904,0.32845,0,0.96078,0.89608,71.382
6.728,-0.25904,0.32747,0.0058594,0.96078,0.8902,74.511
6.736,-0.25602,0.32649,-0.0097656,0.96667,0.90588,76.662
6.744,-0.25602,0.32551,0,0.95686,0.90588,77.836
6.752,-0.25602,0.32454,-0.019531,0.96667,0.91569,78.422
6.76,-0.25904,0.32356,-0.0039062,0.95686,0.91176,78.422
6.768,-0.25904,0.32747,-0.019531,0.96078,0.91569,78.031
6.776,-0.26205,0.33431,-0.0039062,0.95686,0.91176,77.249
6.784,-0.26205,0.33627,-0.0097656,0.96667,0.91569,76.076
6.792,-0.26506,0.33627,0,0.96667,0.91176,74.902
6.8,-0.26807,0.33431,-0.019531,0.97059,0.91569,73.338
6.808,-0.27108,0.33236,-0.013672,0.97059,0.91569,71.578
6.816,-0.2741,0.32942,-0.0097656,0.97059,0.91569,69.622
6.824,-0.27711,0.32551,-0.025391,0.96667,0.91569,67.471
6.832,-0.28012,0.32258,-0.0039062,0.97059,0.91569,65.319
6.84,-0.28313,0.31867,-0.0097656,0.97059,0.90588,62.973
6.848,-0.28614,0.31574,0.015625,0.97647,0.8902,60.43
6.856,-0.28916,0.31281,0.03125,0.97647,0.88627,58.083
6.864,-0.29217,0.3089,0.044922,0.98627,0.87647,55.737
6.872,-0.29518,0.30499,0.044922,0.97059,0.87059,53.39
6.88,-0.29518,0.30108,0.044922,0.96078,0.86667,51.239
6.888,-0.29819,0.29619,0.025391,0.95098,0.87647,49.283
6.896,-0.29819,0.29228,0.019531,0.94706,0.87647,47.523
6.904,-0.29819,0.28837,0.019531,0.94706,0.88039,45.958
6.912,-0.3012,0.28348,0.03125,0.96667,0.87059,44.589
6.92,-0.3012,0.28055,0.0058594,0.97059,0.89608,43.612
6.928,-0.3012,0.27859,-0.039062,0.97647,0.92549,42.829
6.936,-0.3012,0.27957,-0.070312,0.97059,0.95098,42.047
6.944,-0.3012,0.28348,-0.064453,0.97059,0.94118,41.656
6.952,-0.3012,0.29032,-0.074219,0.97647,0.95098,41.46
6.96,-0.3012,0.30108,-0.070312,0.97059,0.94706,41.265
6.968,-0.3012,0.31672,-0.083984,0.97647,0.96078,41.265
6.976,-0.3012,0.3392,-0.074219,0.97647,0.95686,41.265
6.984,-0.3012,0.36559,-0.080078,0.97647,0.96078,41.46
6.992,-0.3012,0.39492,-0.074219,0.97059,0.95686,41.46
7,-0.3012,0.42717,-0.058594,0.95686,0.94706,41.656
7.008,-0.3012,0.46139,-0.013672,0.89608,0.92157,41.851
7.016,-0.3012,0.4956,0.054688,0.81176,0.87647,42.047
7.024,-0.3012,0.52884,0.060547,0.78627,0.86078,42.243
7.032,-0.3012,0.56012,-0.125,0.62549,0.88627,42.438
7.04,-0.3012,0.58944,-0.19922,0.56471,0.90196,42.634
7.048,-0.3012,0.61193,-0.29492,0.6902,1.0157,42.829
7.056,-0.29819,0.63148,-0.33984,0.91569,1.102,42.829
7.064,-0.29819,0.65005,-0.17383,1.0157,1.0275,42.829
7.072,-0.29819,0.66569,-0.083984,1.0314,0.98235,43.025
7.08,-0.29819,0.67937,-0.054688,1.0471,0.96078,43.025
7.088,-0.29819,0.68817,-0.048828,1.0471,0.96667,43.025
7.096,-0.29819,0.69208,-0.039062,1.051,0.94706,43.025
7.104,-0.29819,0.69306,-0.048828,1.0471,0.95686,43.025
7.112,-0.29819,0.68915,-0.029297,1.0471,0.94118,43.025
7.12,-0.29518,0.68133,-0.035156,1.0471,0.94706,43.025
7.128,-0.29518,0.67058,-0.025391,1.0471,0.94118,42.829
7.136,-0.29518,0.65591,-0.029297,1.0412,0.94118,42.829
7.144,-0.29518,0.6393,-0.019531,1.0412,0.93137,42.634
7.152,-0.29518,0.62268,-0.019531,1.0471,0.93725,42.438
7.16,-0.29518,0.60508,0,1.0412,0.92157,42.047
7.168,-0.29518,0.58553,-0.0097656,1.0373,0.93137,41.851
7.176,-0.29217,0.565,0.0097656,1.0314,0.91569,41.656
7.184,-0.29217,0.54252,0,1.0412,0.91569,41.46
7.192,-0.29217,0.52004,0.0097656,1.0373,0.91569,41.265
7.2,-0.29217,0.49756,0.0058594,1.0471,0.91569,40.874
7.208,-0.28916,0.47507,0.019531,1.0412,0.91176,40.482
7.216,-0.28916,0.45455,0.0097656,1.051,0.90588,40.091
7.224,-0.28614,0.435,0.019531,1.0471,0.91176,39.7
7.232,-0.28614,0.4174,0.019531,1.0725,0.90196,39.309
7.24,-0.28614,0.40078,0.041016,1.0725,0.8902,38.918
7.248,-0.28614,0.3871,0.044922,1.0725,0.88627,38.527
7.256,-0.28313,0.37634,0.044922,1.0725,0.88627,38.136
7.264,-0.28313,0.36657,0.054688,1.0824,0.87647,37.744
7.272,-0.28012,0.35679,0.050781,1.0725,0.88039,37.549
7.28,-0.28012,0.34897,0.060547,1.0667,0.87647,37.353
7.288,-0.27711,0.34311,0.054688,1.0471,0.87059,37.158
7.296,-0.2741,0.33822,0.070312,1.0373,0.86667,37.353
7.304,-0.27108,0.33529,0.060547,1.0118,0.87647,38.331
7.312,-0.26807,0.33333,0.044922,1.002,0.88039,40.287
7.32,-0.26807,0.33138,0.035156,0.98235,0.8902,43.416
7.328,-0.26506,0.3304,0.044922,0.97647,0.87647,47.718
7.336,-0.26205,0.3304,0.035156,0.95686,0.88627,52.803
7.344,-0.25904,0.3304,0.025391,0.95686,0.88039,58.083
7.352,-0.25904,0.3304,0,0.96078,0.90196,63.168
7.36,-0.25602,0.33138,0.0058594,0.95686,0.90196,67.666
7.368,-0.25602,0.33138,-0.019531,0.96667,0.91569,71.382
7.376,-0.25301,0.33138,-0.0097656,0.96078,0.91569,74.12
7.384,-0.25301,0.33138,-0.025391,0.96667,0.92157,75.88
7.392,-0.25,0.3304,-0.0097656,0.95686,0.91569,76.858
7.4,-0.25,0.32942,-0.029297,0.96078,0.92157,77.249
7.408,-0.25,0.32845,-0.019531,0.95098,0.91569,77.054
7.416,-0.25,0.32747,-0.013672,0.95686,0.92157,76.467
7.424,-0.25,0.32649,-0.025391,0.96078,0.91569,75.489
7.432,-0.25301,0.32454,-0.019531,0.96667,0.91569,74.316
7.44,-0.25301,0.32258,-0.025391,0.96078,0.92157,72.947
7.448,-0.25602,0.32063,-0.0097656,0.96667,0.91569,71.382
7.456,-0.25904,0.31867,-0.019531,0.96667,0.91569,69.426
7.464,-0.26205,0.31672,-0.013672,0.97059,0.91569,67.471
7.472,-0.26506,0.31378,-0.025391,0.96078,0.91569,65.319
7.48,-0.26807,0.31085,-0.0097656,0.97647,0.91176,62.973
7.488,-0.27108,0.30792,0.0097656,0.96667,0.89608,60.43
7.496,-0.27108,0.30401,0.019531,0.98235,0.8902,58.083
7.504,-0.2741,0.3001,0.03125,0.97647,0.88039,55.541
7.512,-0.27711,0.29717,0.044922,0.97647,0.87059,53.194
7.52,-0.27711,0.29326,0.019531,0.96078,0.87647,50.847
7.528,-0.28012,0.28837,0.03125,0.95098,0.86667,48.892
7.536,-0.28012,0.28446,0.015625,0.94118,0.87647,46.936
7.544,-0.28313,0.28152,0.03125,0.93725,0.86667,45.176
7.552,-0.28313,0.27859,0.019531,0.96078,0.87647,43.807
7.56,-0.28313,0.27566,0.041016,0.96667,0.87059,42.634
7.568,-0.28313,0.27175,-0.029297,0.97647,0.92157,41.656
7.576,-0.28313,0.26979,-0.039062,0.96667,0.93137,40.874
7.584,-0.28313,0.27077,-0.048828,0.97059,0.94118,40.287
7.592,-0.28012,0.27468,-0.054688,0.96078,0.93725,40.091
7.6,-0.28012,0.2825,-0.074219,0.97059,0.95098,39.7
7.608,-0.27711,0.29619,-0.064453,0.96667,0.94118,39.7
7.616,-0.27711,0.31476,-0.064453,0.97059,0.94118,39.7
7.624,-0.2741,0.33724,-0.054688,0.96667,0.94118,39.7
7.632,-0.2741,0.36461,-0.064453,0.97647,0.94706,39.896
7.64,-0.27108,0.39492,-0.044922,0.95686,0.94118,40.091
7.648,-0.26807,0.42229,-0.0097656,0.92549,0.92157,40.482
7.656,-0.26506,0.44966,0.076172,0.83529,0.87647,40.678
7.664,-0.26506,0.47996,0.10547,0.80588,0.84118,40.874
7.672,-0.26205,0.51124,-0.058594,0.6902,0.86667,41.069
7.68,-0.25904,0.54154,-0.1543,0.58431,0.8902,41.265
7.688,-0.25602,0.57087,-0.22852,0.65098,0.96667,41.46
7.696,-0.25301,0.59726,-0.30859,0.84118,1.0765,41.46
7.704,-0.25,0.61975,-0.21484,0.98235,1.0863,41.656
7.712,-0.24699,0.63832,-0.089844,1.0157,0.97059,41.656
7.72,-0.24398,0.65396,-0.058594,1.0412,0.96078,41.656
7.728,-0.24096,0.66569,-0.044922,1.0569,0.95098,41.851
7.736,-0.23795,0.67253,-0.048828,1.0608,0.94706,41.851
7.744,-0.23494,0.67449,-0.013672,1.0471,0.93725,41.851
7.752,-0.23193,0.67351,-0.025391,1.051,0.93725,41.851
7.76,-0.2259,0.66862,-0.0039062,1.0471,0.92157,41.851
7.768,-0.22289,0.66178,-0.025391,1.0471,0.93725,41.656
7.776,-0.21988,0.65005,-0.025391,1.0471,0.93725,41.46
7.784,-0.21386,0.63636,-0.013672,1.0471,0.93137,41.46
7.792,-0.21084,0.61975,0,1.0471,0.92157,41.265
7.8,-0.20482,0.60117,0.0058594,1.0373,0.91569,41.069
7.808,-0.20181,0.57967,0.015625,1.0314,0.91569,41.069
7.816,-0.1988,0.55718,-0.0039062,1.0471,0.91569,40.874
7.824,-0.19277,0.5347,0.0097656,1.0412,0.91176,40.482
7.832,-0.18976,0.51124,0.015625,1.0412,0.90588,40.287
7.84,-0.18373,0.48778,0.019531,1.0373,0.89608,40.091
7.848,-0.18072,0.46823,0.025391,1.0412,0.89608,39.7
7.856,-0.1747,0.44966,0.041016,1.0373,0.8902,39.505
7.864,-0.16867,0.43109,0.044922,1.0471,0.8902,39.113
7.872,-0.16265,0.41251,0.03125,1.0471,0.89608,38.722
7.88,-0.15964,0.39394,0.044922,1.0569,0.8902,38.331
7.888,-0.15361,0.37732,0.041016,1.0608,0.88627,37.744
7.896,-0.14759,0.36266,0.060547,1.0725,0.87647,37.549
7.904,-0.14157,0.34897,0.054688,1.0725,0.87647,37.158
7.912,-0.13253,0.33822,0.054688,1.0725,0.87059,36.962
7.92,-0.12651,0.32942,0.064453,1.051,0.87647,36.767
7.928,-0.11747,0.32258,0.080078,1.0471,0.86667,36.571
7.936,-0.10843,0.31672,0.076172,1.0216,0.86078,36.571
7.944,-0.099398,0.31281,0.085938,1.0118,0.86078,36.962
7.952,-0.090361,0.31085,0.070312,0.99216,0.87059,38.136
7.96,-0.081325,0.3089,0.070312,0.97647,0.86667,40.287
7.968,-0.072289,0.30792,0.050781,0.96667,0.87647,43.612
7.976,-0.066265,0.30694,0.054688,0.96078,0.87647,48.11
7.984,-0.057229,0.30596,0.035156,0.95686,0.8902,53.194
7.992,-0.051205,0.30401,0.03125,0.95686,0.8902,58.475
8,-0.042169,0.30303,0.015625,0.96078,0.89608,63.364
8.008,-0.036145,0.30205,0.0097656,0.95098,0.90196,67.666
8.016,-0.027108,0.30108,0,0.95686,0.90588,71.382
8.024,-0.021084,0.30108,0,0.95098,0.91176,73.924
8.032,-0.01506,0.3001,-0.0097656,0.96078,0.90588,75.88
8.04,-0.0090361,0.29912,-0.0097656,0.95686,0.91569,76.662
8.048,-0.0030121,0.29814,-0.019531,0.96667,0.91569,77.054
8.056,0.0030121,0.29814,-0.013672,0.95686,0.92157,76.662
8.064,0.0060241,0.29717,-0.0097656,0.96667,0.91569,75.88
8.072,0.012048,0.29619,-0.025391,0.95098,0.92549,74.707
8.08,0.018072,0.29423,-0.013672,0.96078,0.91569,73.338
8.088,0.021084,0.29326,-0.035156,0.95686,0.93137,71.773
8.096,0.027108,0.2913,-0.025391,0.96078,0.92549,69.818
8.104,0.03012,0.28935,-0.039062,0.96078,0.93725,67.862
8.112,0.036145,0.28641,-0.029297,0.96667,0.93137,65.906
8.12,0.039157,0.2825,-0.035156,0.97059,0.93725,63.559
8.128,0.042169,0.27859,-0.0097656,0.97647,0.91569,61.213
8.136,0.045181,0.27468,0,0.97647,0.91176,58.866
8.144,0.048193,0.27175,0.019531,0.98235,0.89608,56.519
8.152,0.048193,0.26882,0.025391,0.98627,0.8902,54.172
8.16,0.051205,0.26588,0.035156,0.96667,0.88627,51.825
8.168,0.051205,0.261,0.019531,0.95098,0.8902,49.674
8.176,0.051205,0.25611,0.0097656,0.94706,0.8902,47.914
8.184,0.051205,0.25122,0,0.94118,0.90196,46.154
8.192,0.054217,0.24633,0.019531,0.95098,0.8902,44.98
8.2,0.051205,0.24145,0.0058594,0.96667,0.89608,43.807
8.208,0.051205,0.23754,-0.013672,0.97059,0.91569,43.025
8.216,0.048193,0.23558,-0.070312,0.97647,0.95098,42.438
8.224,0.045181,0.2346,-0.074219,0.97059,0.96078,42.047
8.232,0.039157,0.23754,-0.09375,0.97647,0.96078,41.851
8.24,0.033133,0.2434,-0.09375,0.97059,0.96667,41.851
8.248,0.024096,0.25318,-0.089844,0.97647,0.96078,41.851
8.256,0.018072,0.26588,-0.099609,0.97059,0.97647,42.047
8.264,0.0060241,0.28348,-0.09375,0.97647,0.96667,42.243
8.272,-0.0030121,0.30596,-0.099609,0.97059,0.97647,42.438
8.28,-0.012048,0.33236,-0.09375,0.97647,0.97647,42.634
8.288,-0.021084,0.36266,-0.064453,0.94118,0.95686,42.829
8.296,-0.03012,0.39589,-0.0097656,0.88627,0.92549,43.025
8.304,-0.039157,0.43011,0.054688,0.80588,0.87059,43.22
8.312,-0.048193,0.46432,-0.048828,0.81176,0.8902,43.416
8.32,-0.057229,0.49756,-0.14844,0.62549,0.89608,43.416
8.328,-0.063253,0.52884,-0.18359,0.60588,0.91569,43.416
8.336,-0.072289,0.55718,-0.31445,0.78627,1.0667,43.416
8.344,-0.078313,0.57967,-0.34961,0.97647,1.1059,43.416
8.352,-0.084337,0.59726,-0.17383,1.0157,1.0314,43.416
8.36,-0.090361,0.61486,-0.099609,1.0373,0.99216,43.22
8.368,-0.096386,0.62952,-0.089844,1.0471,0.98627,43.22
8.376,-0.099398,0.64027,-0.070312,1.0373,0.97647,43.025
8.384,-0.10241,0.64712,-0.064453,1.0471,0.97059,43.025
8.392,-0.10843,0.65005,-0.048828,1.0412,0.96078,42.829
8.4,-0.11145,0.64907,-0.054688,1.0471,0.96078,42.829
8.408,-0.11145,0.64516,-0.039062,1.0412,0.95098,42.634
8.416,-0.11446,0.63636,-0.039062,1.0471,0.95686,42.438
8.424,-0.11747,0.62463,-0.025391,1.0412,0.94118,42.243
8.432,-0.12048,0.60997,-0.029297,1.0471,0.94706,42.243
8.44,-0.12048,0.59335,-0.025391,1.0373,0.94118,42.047
8.448,-0.12349,0.57674,-0.025391,1.0471,0.94706,41.851
8.456,-0.12651,0.56012,-0.019531,1.0373,0.93725,41.656
8.464,-0.12952,0.54057,-0.0097656,1.0412,0.94118,41.656
8.472,-0.13253,0.52102,-0.019531,1.0373,0.92549,41.46
8.48,-0.13554,0.50049,0,1.0471,0.92157,41.265
8.488,-0.14157,0.47898,0.0058594,1.0314,0.92549,41.069
8.496,-0.14458,0.45943,0.0097656,1.0412,0.91569,40.678
8.504,-0.1506,0.44184,0.0058594,1.0471,0.91569,40.482
8.512,-0.15361,0.42424,0.019531,1.0569,0.91569,40.091
8.52,-0.15663,0.40762,0.015625,1.051,0.91176,39.7
8.528,-0.15964,0.39394,0.03125,1.0667,0.90588,39.505
8.536,-0.16566,0.38123,0.019531,1.0667,0.91569,39.113
8.544,-0.16867,0.37243,0.035156,1.0725,0.90196,38.722
8.552,-0.17169,0.36559,0.03125,1.0667,0.90588,38.527
8.56,-0.1747,0.35875,0.054688,1.0569,0.8902,38.136
8.568,-0.17771,0.35386,0.044922,1.0471,0.8902,37.94
8.576,-0.17771,0.34897,0.054688,1.0412,0.88627,38.136
8.584,-0.18072,0.34604,0.044922,1.0216,0.88627,38.722
8.592,-0.18072,0.34311,0.050781,1.002,0.88039,40.287
8.6,-0.18072,0.34018,0.035156,0.99216,0.8902,43.025
8.608,-0.18072,0.33822,0.041016,0.98235,0.88627,46.936
8.616,-0.18373,0.33627,0.019531,0.97059,0.8902,52.021
8.624,-0.18373,0.33431,0.019531,0.96667,0.8902,57.692
8.632,-0.18373,0.33333,0,0.96078,0.90588,63.168
8.64,-0.18373,0.33236,0,0.96078,0.91176,68.057
8.648,-0.18373,0.33138,-0.019531,0.96667,0.91569,72.36
8.656,-0.18373,0.33138,-0.013672,0.96667,0.91569,75.489
8.664,-0.18373,0.3304,-0.025391,0.96667,0.92157,77.836
8.672,-0.18373,0.32942,-0.019531,0.96078,0.92549,79.205
8.68,-0.18373,0.32942,-0.029297,0.96667,0.92157,79.791
8.688,-0.18373,0.32845,-0.035156,0.96078,0.93137,79.791
8.696,-0.18675,0.32845,-0.025391,0.96078,0.92549,79.4
8.704,-0.18675,0.32747,-0.039062,0.95686,0.93725,78.618
8.712,-0.18976,0.32649,-0.025391,0.96078,0.92157,77.64
8.72,-0.18976,0.32551,-0.029297,0.95686,0.93137,76.467
8.728,-0.19277,0.32454,-0.025391,0.96667,0.92157,74.902
8.736,-0.19578,0.32258,-0.035156,0.96078,0.93137,73.338
8.744,-0.1988,0.32258,-0.025391,0.96667,0.92549,71.382
8.752,-0.20181,0.3216,-0.025391,0.96078,0.93137,69.231
8.76,-0.20482,0.3216,-0.019531,0.97647,0.92157,67.08
8.768,-0.20783,0.32063,-0.0097656,0.97059,0.91569,64.733
8.776,-0.21084,0.31965,0.015625,0.97647,0.89608,62.386
8.784,-0.21386,0.31769,0.019531,0.97647,0.8902,59.844
8.792,-0.21386,0.31574,0.044922,0.97647,0.87647,57.497
8.8,-0.21687,0.31378,0.025391,0.96078,0.88627,55.15
8.808,-0.21988,0.31085,0.03125,0.95686,0.88039,52.803
8.816,-0.21988,0.31281,0.0058594,0.94706,0.8902,50.847
8.824,-0.22289,0.31867,0.015625,0.93725,0.88627,48.892
8.832,-0.2259,0.32063,0.0097656,0.95686,0.8902,47.327
8.84,-0.2259,0.32063,0.019531,0.96078,0.88627,45.958
8.848,-0.22892,0.32063,-0.019531,0.97647,0.91569,44.785
8.856,-0.23193,0.3216,-0.054688,0.97059,0.94118,43.807
8.864,-0.23193,0.32258,-0.074219,0.97647,0.95098,43.22
8.872,-0.23494,0.32649,-0.074219,0.97059,0.95686,42.634
8.88,-0.23494,0.33431,-0.080078,0.97647,0.95098,42.243
8.888,-0.23795,0.34702,-0.083984,0.97059,0.96078,42.047
8.896,-0.23795,0.36461,-0.074219,0.97647,0.95098,42.047
8.904,-0.24096,0.38905,-0.083984,0.97647,0.96078,42.047
8.912,-0.24398,0.41838,-0.074219,0.97647,0.95686,42.047
8.92,-0.24699,0.45064,-0.089844,0.97059,0.96078,42.243
8.928,-0.25,0.4868,-0.035156,0.94706,0.94118,42.438
8.936,-0.25301,0.52395,0.015625,0.87647,0.90588,42.634
8.944,-0.25602,0.55621,0.085938,0.8,0.8451,42.829
8.952,-0.25904,0.58553,-0.035156,0.76078,0.86667,43.025
8.96,-0.26205,0.61779,-0.14453,0.6098,0.88039,43.025
8.968,-0.26506,0.65005,-0.22461,0.59608,0.92549,43.22
8.976,-0.26506,0.68035,-0.31836,0.77059,1.051,43.22
8.984,-0.26807,0.70772,-0.34961,0.98235,1.0961,43.416
8.992,-0.27108,0.73118,-0.13477,1.0157,1.002,43.416
9,-0.2741,0.75073,-0.09375,1.0412,0.98627,43.416
9.008,-0.2741,0.76637,-0.058594,1.0471,0.96078,43.416
9.016,-0.27711,0.77615,-0.064453,1.051,0.96667,43.416
9.024,-0.28012,0.78201,-0.044922,1.0471,0.96078,43.612
9.032,-0.28313,0.78397,-0.048828,1.051,0.95686,43.612
9.04,-0.28313,0.78104,-0.044922,1.0471,0.95098,43.416
9.048,-0.28614,0.77419,-0.039062,1.051,0.94706,43.416
9.056,-0.28614,0.76442,-0.029297,1.0471,0.95098,43.416
9.064,-0.28916,0.75073,-0.035156,1.0471,0.94118,43.22
9.072,-0.28916,0.73509,-0.029297,1.0471,0.94706,43.025
9.08,-0.28916,0.7175,-0.025391,1.0471,0.94118,43.025
9.088,-0.29217,0.69697,-0.029297,1.0471,0.94118,42.829
9.096,-0.29217,0.67546,-0.025391,1.0471,0.94118,42.634
9.104,-0.29217,0.652,-0.019531,1.0412,0.93137,42.438
9.112,-0.29217,0.62659,-0.013672,1.0471,0.92549,42.047
9.12,-0.29217,0.60215,-0.019531,1.0471,0.93137,41.851
9.128,-0.28916,0.57771,0,1.0471,0.91569,41.46
9.136,-0.28916,0.55425,-0.0039062,1.0471,0.92157,41.265
9.144,-0.28614,0.53372,0.0097656,1.051,0.91569,40.874
9.152,-0.28313,0.51613,0.0058594,1.051,0.91569,40.482
9.16,-0.28012,0.49853,0.019531,1.0725,0.91176,40.091
9.168,-0.28012,0.48192,0.019531,1.0725,0.91176,39.7
9.176,-0.27711,0.46628,0.035156,1.0765,0.89608,39.505
9.184,-0.2741,0.45259,0.035156,1.0824,0.90196,39.113
9.192,-0.27108,0.43891,0.044922,1.0725,0.8902,38.722
9.2,-0.26807,0.42815,0.044922,1.0667,0.8902,38.527
9.208,-0.26506,0.41935,0.060547,1.051,0.88039,38.331
9.216,-0.26205,0.41251,0.054688,1.0412,0.87647,38.331
9.224,-0.25904,0.40665,0.064453,1.0216,0.87059,38.918
9.232,-0.25602,0.40274,0.044922,1.0059,0.88039,40.287
9.24,-0.25301,0.40078,0.044922,0.99608,0.88039,43.025
9.248,-0.25301,0.39883,0.03125,0.98235,0.88627,46.936
9.256,-0.25,0.39785,0.03125,0.97059,0.8902,51.825
9.264,-0.24699,0.39687,0.015625,0.97059,0.89608,57.106
9.272,-0.24699,0.39589,0.0097656,0.96078,0.89608,62.582
9.28,-0.24398,0.39492,-0.0039062,0.96667,0.90588,67.471
9.288,-0.24398,0.39394,-0.0097656,0.96078,0.91176,71.773
9.296,-0.24398,0.39198,-0.0039062,0.96078,0.90588,74.902
9.304,-0.24398,0.39003,-0.019531,0.95686,0.91569,77.054
9.312,-0.24398,0.38807,-0.0097656,0.96078,0.91176,78.422
9.32,-0.24398,0.38612,-0.025391,0.96078,0.91569,79.009
9.328,-0.24699,0.38416,-0.013672,0.97059,0.91176,79.009
9.336,-0.24699,0.38123,-0.029297,0.96667,0.91569,78.618
9.344,-0.25,0.37928,-0.025391,0.96667,0.91569,77.836
9.352,-0.25301,0.3783,-0.035156,0.96667,0.92157,76.662
9.36,-0.25602,0.37634,-0.025391,0.97059,0.91569,75.489
9.368,-0.25904,0.37439,-0.035156,0.96667,0.92157,73.924
9.376,-0.26205,0.37146,-0.025391,0.97059,0.91569,72.164
9.384,-0.26506,0.36852,-0.029297,0.96667,0.91569,70.404
9.392,-0.27108,0.36461,-0.019531,0.97059,0.91569,68.253
9.4,-0.2741,0.36168,-0.029297,0.97059,0.91569,65.906
9.408,-0.27711,0.35777,-0.0039062,0.97059,0.90588,63.559
9.416,-0.28012,0.35484,0,0.97647,0.90196,61.213
9.424,-0.28313,0.35093,0.03125,0.97059,0.88627,58.67
9.432,-0.28313,0.34604,0.041016,0.98235,0.88039,56.323
9.44,-0.28614,0.34115,0.050781,0.96078,0.87059,53.977
9.448,-0.28916,0.33724,0.035156,0.95098,0.87059,51.825
9.456,-0.29217,0.33333,0.03125,0.94118,0.87059,49.87
9.464,-0.29217,0.32845,0.015625,0.94706,0.88627,48.11
9.472,-0.29518,0.32356,0.019531,0.95098,0.88039,46.545
9.48,-0.29518,0.31867,0.0097656,0.96667,0.88627,45.176
9.488,-0.29518,0.31574,-0.0097656,0.97059,0.91176,44.198
9.496,-0.29819,0.31378,-0.064453,0.97647,0.94118,43.22
9.504,-0.29819,0.31476,-0.074219,0.97059,0.95686,42.634
9.512,-0.29518,0.31867,-0.080078,0.97059,0.96078,42.243
9.52,-0.29518,0.32649,-0.083984,0.97059,0.96078,41.851
9.528,-0.29518,0.34018,-0.074219,0.97647,0.95686,41.656
9.536,-0.29518,0.35973,-0.083984,0.97647,0.96078,41.656
9.544,-0.29518,0.38025,-0.074219,0.97647,0.95686,41.656
9.552,-0.29819,0.40371,-0.083984,0.97059,0.96078,41.656
9.56,-0.29819,0.43304,-0.080078,0.97647,0.96078,41.851
9.568,-0.29819,0.46725,-0.048828,0.93725,0.94706,42.047
9.576,-0.29819,0.50342,0.0097656,0.87647,0.91176,42.243
9.584,-0.29819,0.54057,0.076172,0.7902,0.85686,42.438
9.592,-0.29819,0.57674,-0.029297,0.75098,0.87059,42.634
9.6,-0.29819,0.61193,-0.16016,0.5902,0.8902,42.829
9.608,-0.29819,0.64516,-0.21484,0.57059,0.91176,43.025
9.616,-0.3012,0.67546,-0.32422,0.75098,1.051,43.025
9.624,-0.3012,0.70186,-0.34961,0.96667,1.0961,43.22
9.632,-0.3012,0.72532,-0.14844,1.0157,1.0059,43.22
9.64,-0.3012,0.74096,-0.080078,1.0412,0.96667,43.22
9.648,-0.3012,0.75073,-0.070312,1.051,0.96667,43.416
9.656,-0.3012,0.75953,-0.054688,1.0471,0.95686,43.416
9.664,-0.3012,0.7654,-0.048828,1.051,0.95098,43.416
9.672,-0.3012,0.76637,-0.035156,1.0471,0.94118,43.416
9.68,-0.3012,0.76344,-0.025391,1.0471,0.94118,43.416
9.688,-0.3012,0.7566,-0.035156,1.0471,0.94118,43.22
9.696,-0.3012,0.74585,-0.025391,1.0471,0.93725,43.025
9.704,-0.30422,0.73216,-0.035156,1.0471,0.94118,43.025
9.712,-0.30422,0.71457,-0.025391,1.0471,0.93137,42.829
9.72,-0.30422,0.69501,-0.025391,1.0373,0.94118,42.634
9.728,-0.30422,0.67351,-0.013672,1.0412,0.93137,42.438
9.736,-0.30422,0.65005,-0.019531,1.0373,0.93725,42.243
9.744,-0.30422,0.62757,-0.0097656,1.0412,0.92549,41.851
9.752,-0.30422,0.60606,-0.025391,1.0412,0.93137,41.656
9.76,-0.30422,0.5826,0,1.0412,0.91569,41.265
9.768,-0.30422,0.55816,0,1.0412,0.92157,41.069
9.776,-0.30422,0.5347,0,1.0471,0.91569,40.678
9.784,-0.30422,0.51222,-0.0039062,1.0569,0.91569,40.287
9.792,-0.30422,0.49071,0.0097656,1.051,0.91176,39.896
9.8,-0.30422,0.47116,0.0058594,1.0667,0.91569,39.505
9.808,-0.30422,0.45259,0.03125,1.0725,0.90196,39.113
9.816,-0.30422,0.43695,0.03125,1.0765,0.90196,38.722
9.824,-0.3012,0.42229,0.044922,1.0765,0.8902,38.331
9.832,-0.3012,0.40958,0.035156,1.0824,0.8902,37.94
9.84,-0.29819,0.40078,0.054688,1.0725,0.87647,37.744
9.848,-0.29819,0.39394,0.054688,1.0569,0.88039,37.549
9.856,-0.29518,0.38807,0.054688,1.0471,0.87647,37.353
9.864,-0.29217,0.38319,0.044922,1.0314,0.88039,37.744
9.872,-0.28916,0.38025,0.054688,1.002,0.87059,38.918
9.88,-0.28614,0.37732,0.041016,0.99216,0.88039,41.069
9.888,-0.28614,0.37439,0.03125,0.97647,0.88627,44.589
9.896,-0.28313,0.37341,0.019531,0.97059,0.8902,49.087
9.904,-0.28012,0.37146,0.025391,0.95686,0.8902,54.172
9.912,-0.28012,0.37048,0.0058594,0.96667,0.89608,59.452
9.92,-0.27711,0.3695,0,0.96078,0.90588,64.537
9.928,-0.2741,0.36852,0,0.96667,0.90588,68.84
9.936,-0.2741,0.36657,-0.0097656,0.95686,0.91569,72.164
9.944,-0.2741,0.36559,-0.013672,0.96078,0.91569,74.707
9.952,-0.27108,0.36461,-0.019531,0.95686,0.91569,76.467
9.96,-0.27108,0.36266,-0.013672,0.96078,0.91569,77.249
9.968,-0.27108,0.36168,-0.025391,0.96667,0.92549,77.445
9.976,-0.27108,0.3607,-0.013672,0.95686,0.91569,77.054
9.984,-0.27108,0.35875,-0.029297,0.96078,0.92549,76.467
9.992,-0.27108,0.35777,-0.025391,0.95686,0.91569,75.489
10,-0.2741,0.35679,-0.029297,0.97059,0.92157,74.316
10.008,-0.2741,0.35582,-0.019531,0.96078,0.91569,72.751
10.016,-0.27711,0.35386,-0.029297,0.96078,0.92157,70.991
10.024,-0.27711,0.35191,-0.025391,0.96667,0.91569,69.035
10.032,-0.28012,0.34897,-0.039062,0.97059,0.92549,66.884
10.04,-0.28012,0.34702,-0.025391,0.97059,0.91569,64.733
10.048,-0.28313,0.34506,-0.0097656,0.97647,0.91176,62.19
10.056,-0.28614,0.34115,0.015625,0.97059,0.8902,59.844
10.064,-0.28614,0.33627,0.019531,0.98235,0.88627,57.301
10.072,-0.28916,0.33138,0.050781,0.97647,0.87059,54.759
10.08,-0.28916,0.32649,0.019531,0.96667,0.88039,52.412
10.088,-0.28916,0.3216,0.03125,0.95098,0.87059,50.065
10.096,-0.29217,0.31672,0.015625,0.94706,0.87647,48.11
10.104,-0.29217,0.31183,0.0058594,0.94118,0.88039,46.154
10.112,-0.29217,0.30694,0.025391,0.96667,0.87059,44.589
10.12,-0.29217,0.30205,0.019531,0.96078,0.87647,43.22
10.128,-0.29217,0.29814,-0.013672,0.97647,0.91176,42.047
10.136,-0.29217,0.29423,-0.058594,0.97647,0.94706,41.265
10.144,-0.29217,0.29326,-0.070312,0.97647,0.94706,40.678
10.152,-0.29217,0.29423,-0.074219,0.97647,0.95098,40.091
10.16,-0.29217,0.29814,-0.064453,0.97647,0.94118,39.896
10.168,-0.28916,0.30694,-0.070312,0.97059,0.94706,39.7
10.176,-0.28614,0.3216,-0.054688,0.97059,0.94118,39.7
10.184,-0.28614,0.34018,-0.070312,0.97647,0.95686,39.896
10.192,-0.28313,0.36461,-0.074219,0.97647,0.95686,40.091
10.2,-0.28012,0.39394,-0.070312,0.96667,0.96078,40.287
10.208,-0.27711,0.42717,-0.013672,0.93725,0.93137,40.482
10.216,-0.27711,0.46237,0.041016,0.86078,0.89608,40.678
10.224,-0.2741,0.49853,0.085938,0.80588,0.8451,41.069
10.232,-0.27108,0.5347,-0.044922,0.72157,0.86667,41.265
10.24,-0.26807,0.565,-0.13867,0.58431,0.87647,41.46
10.248,-0.26506,0.59238,-0.21484,0.58039,0.94118,41.656
10.256,-0.26205,0.62072,-0.29883,0.8,1.0608,41.851
10.264,-0.25904,0.64809,-0.31445,0.97059,1.0922,42.047
10.272,-0.25602,0.67253,-0.10938,1.0059,0.98627,42.047
10.28,-0.25301,0.69404,-0.070312,1.0471,0.96078,42.243
10.288,-0.25,0.71065,-0.044922,1.0471,0.94706,42.243
10.296,-0.24699,0.72239,-0.025391,1.0471,0.94118,42.438
10.304,-0.24096,0.72923,-0.048828,1.0569,0.95686,42.438
10.312,-0.23795,0.73118,-0.048828,1.0608,0.95098,42.438
10.32,-0.23193,0.72923,-0.035156,1.0569,0.94706,42.243
10.328,-0.2259,0.72239,-0.025391,1.0471,0.94118,42.243
10.336,-0.22289,0.71163,-0.019531,1.0471,0.93725,42.047
10.344,-0.21687,0.6999,-0.013672,1.0569,0.93725,42.047
10.352,-0.21084,0.68426,-0.029297,1.0412,0.94118,41.851
10.36,-0.20783,0.66667,0,1.0471,0.91569,41.656
10.368,-0.20181,0.64614,-0.019531,1.0471,0.93137,41.46
10.376,-0.19578,0.62366,0,1.0412,0.91569,41.265
10.384,-0.19277,0.59922,-0.013672,1.0471,0.92549,41.069
10.392,-0.18675,0.57478,-0.0097656,1.0412,0.92157,40.874
10.4,-0.18072,0.54936,0.0097656,1.0314,0.91176,40.482
10.408,-0.1747,0.52395,0.019531,1.0314,0.90196,40.091
10.416,-0.16867,0.49951,0.0097656,1.0412,0.91569,39.7
10.424,-0.16265,0.47605,0.025391,1.0471,0.90588,39.309
10.432,-0.15964,0.45357,0.015625,1.051,0.91176,38.918
10.44,-0.15361,0.435,0.03125,1.0471,0.90196,38.527
10.448,-0.14759,0.42033,0.025391,1.0608,0.90196,38.136
10.456,-0.14157,0.40469,0.044922,1.0667,0.8902,37.744
10.464,-0.13554,0.39101,0.050781,1.0725,0.88627,37.549
10.472,-0.12651,0.37732,0.064453,1.0608,0.87059,37.158
10.48,-0.12048,0.36657,0.070312,1.051,0.87647,36.962
10.488,-0.11145,0.35777,0.064453,1.0412,0.86667,36.767
10.496,-0.10542,0.34995,0.080078,1.0275,0.86667,36.767
10.504,-0.096386,0.34311,0.064453,1.0059,0.87647,36.962
10.512,-0.087349,0.3392,0.070312,0.99608,0.87059,37.94
10.52,-0.081325,0.33627,0.054688,0.97647,0.88039,39.896
10.528,-0.072289,0.33333,0.044922,0.97647,0.88627,43.025
10.536,-0.066265,0.33236,0.041016,0.96667,0.8902,47.327
10.544,-0.060241,0.33138,0.025391,0.96667,0.8902,52.216
10.552,-0.051205,0.33138,0.0097656,0.96078,0.90588,57.497
10.56,-0.045181,0.33138,0.015625,0.96667,0.90588,62.386
10.568,-0.039157,0.3304,-0.013672,0.96078,0.92157,66.884
10.576,-0.033133,0.32942,-0.0097656,0.97059,0.91569,70.795
10.584,-0.027108,0.32845,-0.025391,0.96667,0.93137,73.729
10.592,-0.021084,0.32649,-0.025391,0.97059,0.92549,75.88
10.6,-0.018072,0.32551,-0.039062,0.96667,0.94118,77.054
10.608,-0.012048,0.32454,-0.035156,0.96078,0.93725,77.64
10.616,-0.0090361,0.32356,-0.044922,0.96667,0.94118,77.445
10.624,-0.0030121,0.3216,-0.035156,0.96667,0.93725,76.662
10.632,0,0.31965,-0.044922,0.96078,0.94118,75.685
10.64,0.0060241,0.31769,-0.029297,0.96078,0.93725,74.316
10.648,0.0090361,0.31672,-0.039062,0.96667,0.94118,72.751
10.656,0.012048,0.31574,-0.029297,0.96078,0.93725,70.991
10.664,0.01506,0.31281,-0.044922,0.97059,0.94118,69.035
10.672,0.01506,0.31085,-0.035156,0.96667,0.93725,67.08
10.68,0.018072,0.30792,-0.035156,0.97059,0.93725,64.733
10.688,0.018072,0.30401,-0.013672,0.97059,0.91569,62.386
10.696,0.018072,0.3001,0,0.98235,0.91176,59.844
10.704,0.018072,0.29521,0.015625,0.97647,0.90196,57.497
10.712,0.018072,0.2913,0.025391,0.97647,0.89608,55.15
10.72,0.01506,0.28739,0.019531,0.95686,0.8902,52.803
10.728,0.01506,0.28348,0.025391,0.95098,0.88627,50.652
10.736,0.012048,0.27957,0,0.94706,0.90196,48.696
10.744,0.0090361,0.27566,0.0058594,0.94706,0.8902,46.936
10.752,0.0060241,0.27273,0.015625,0.95098,0.90196,45.567
10.76,0.0030121,0.26979,0.019531,0.97059,0.8902,44.394
10.768,0,0.26588,-0.039062,0.97647,0.93725,43.612
10.776,-0.0030121,0.26197,-0.080078,0.97647,0.96078,43.025
10.784,-0.0090361,0.26002,-0.089844,0.97059,0.96667,42.438
10.792,-0.018072,0.26002,-0.083984,0.97647,0.96078,42.243
10.8,-0.024096,0.26393,-0.09375,0.97647,0.97059,42.047
10.808,-0.033133,0.27273,-0.083984,0.97059,0.96667,42.047
10.816,-0.042169,0.28739,-0.10352,0.97647,0.97647,42.243
10.824,-0.051205,0.30694,-0.09375,0.97647,0.97059,42.243
10.832,-0.060241,0.33236,-0.099609,0.97647,0.98235,42.438
10.84,-0.069277,0.35875,-0.080078,0.96667,0.96078,42.634
10.848,-0.075301,0.38514,-0.054688,0.93137,0.95098,42.829
10.856,-0.084337,0.41838,0.025391,0.8451,0.90588,43.025
10.864,-0.090361,0.44868,0.064453,0.8,0.86078,43.22
10.872,-0.099398,0.47605,-0.054688,0.7098,0.88039,43.416
10.88,-0.10542,0.50635,-0.16016,0.6098,0.8902,43.416
10.888,-0.11145,0.53763,-0.21875,0.6,0.95098,43.612
10.896,-0.11747,0.56696,-0.34375,0.85098,1.0922,43.612
10.904,-0.12349,0.59433,-0.26953,1.002,1.1118,43.612
10.912,-0.12651,0.61779,-0.14453,1.0157,1.0059,43.416
10.92,-0.13253,0.63832,-0.09375,1.0314,0.98627,43.416
10.928,-0.13554,0.65494,-0.080078,1.0471,0.97647,43.416
10.936,-0.13855,0.66667,-0.070312,1.0412,0.98235,43.22
10.944,-0.14157,0.67351,-0.058594,1.0471,0.96078,43.22
10.952,-0.14458,0.67644,-0.054688,1.0412,0.96078,43.025
10.96,-0.14759,0.67742,-0.048828,1.0471,0.95686,43.025
10.968,-0.1506,0.67449,-0.054688,1.0373,0.96078,43.025
10.976,-0.1506,0.66764,-0.048828,1.0412,0.95686,42.829
10.984,-0.15361,0.65787,-0.039062,1.0373,0.96078,42.634
10.992,-0.15361,0.64516,-0.025391,1.0373,0.94118,42.634
11,-0.15663,0.62854,-0.029297,1.0314,0.94118,42.438
11.008,-0.15964,0.60997,-0.019531,1.0373,0.94118,42.243
11.016,-0.16265,0.58944,-0.025391,1.0314,0.94118,42.047
11.024,-0.16566,0.56794,-0.0097656,1.0373,0.92549,42.047
11.032,-0.16867,0.54643,-0.0097656,1.0314,0.93137,41.851
11.04,-0.17169,0.5259,0,1.0373,0.91569,41.46
11.048,-0.1747,0.50831,0,1.0412,0.92157,41.265
11.056,-0.17771,0.48876,0.0097656,1.0373,0.91569,41.069
11.064,-0.18072,0.46921,0.0058594,1.0471,0.91569,40.678
11.072,-0.18373,0.45064,0.019531,1.0412,0.90196,40.287
11.08,-0.18675,0.43304,0.03125,1.0471,0.89608,39.896
11.088,-0.18976,0.41838,0.025391,1.051,0.8902,39.7
11.096,-0.18976,0.40469,0.044922,1.0569,0.8902,39.309
11.104,-0.19277,0.39198,0.050781,1.051,0.88627,38.918
11.112,-0.19578,0.38221,0.044922,1.0569,0.88627,38.722
11.12,-0.19578,0.37439,0.060547,1.0471,0.87647,38.331
11.128,-0.19578,0.36852,0.070312,1.0412,0.87647,38.331
11.136,-0.1988,0.36364,0.050781,1.0216,0.88039,38.331
11.144,-0.1988,0.36168,0.060547,1.0059,0.87059,39.113
11.152,-0.1988,0.35875,0.044922,0.99216,0.88627,40.874
11.16,-0.1988,0.35679,0.041016,0.98235,0.88039,44.003
11.168,-0.19578,0.35582,0.03125,0.97059,0.8902,48.305
11.176,-0.19578,0.35386,0.041016,0.96667,0.88039,53.585
11.184,-0.19578,0.35288,0.019531,0.95098,0.8902,59.257
11.192,-0.19578,0.35093,0.015625,0.95686,0.88627,64.537
11.2,-0.19578,0.34995,0,0.95098,0.90196,69.426
11.208,-0.19578,0.348,-0.0097656,0.96078,0.90196,73.533
11.216,-0.19578,0.34604,-0.025391,0.96667,0.91176,76.467
11.224,-0.1988,0.34506,-0.013672,0.95686,0.90588,78.422
11.232,-0.1988,0.34409,-0.025391,0.96667,0.91569,79.596
11.24,-0.1988,0.34409,-0.019531,0.95686,0.91176,79.987
11.248,-0.20181,0.34506,-0.025391,0.96078,0.91569,79.987
11.256,-0.20482,0.34409,-0.0097656,0.95098,0.91176,79.4
11.264,-0.20482,0.34409,-0.025391,0.95098,0.90588,78.618
11.272,-0.20783,0.34311,-0.013672,0.95686,0.91176,77.445
11.28,-0.21084,0.34213,-0.025391,0.96078,0.91569,76.076
11.288,-0.21687,0.34115,-0.019531,0.95686,0.91569,74.511
11.296,-0.21988,0.34018,-0.025391,0.96078,0.91569,72.751
11.304,-0.22289,0.3392,-0.025391,0.95686,0.91569,70.6
11.312,-0.2259,0.33724,-0.019531,0.96078,0.91569,68.644
11.32,-0.22892,0.33724,-0.025391,0.96078,0.90588,66.297
11.328,-0.23494,0.33724,0.0097656,0.97059,0.8902,63.95
11.336,-0.23795,0.33627,0.03125,0.96667,0.88627,61.408
11.344,-0.24096,0.33627,0.044922,0.97647,0.87059,58.866
11.352,-0.24398,0.33627,0.041016,0.96078,0.87647,56.519
11.36,-0.24398,0.33431,0.044922,0.95686,0.87059,54.172
11.368,-0.24699,0.33236,0.019531,0.94706,0.88039,52.021
11.376,-0.25,0.32942,0.015625,0.94706,0.88039,50.065
11.384,-0.25,0.32551,0.0097656,0.94706,0.88627,48.305
11.392,-0.25,0.3216,0.019531,0.96078,0.88039,46.741
11.4,-0.25301,0.31867,-0.0097656,0.96078,0.91176,45.567
11.408,-0.25301,0.31574,-0.048828,0.97059,0.93725,44.589
11.416,-0.25301,0.31378,-0.080078,0.96078,0.95686,43.612
11.424,-0.25301,0.31476,-0.074219,0.96667,0.95686,43.025
11.432,-0.25301,0.31965,-0.080078,0.96667,0.96078,42.634
11.44,-0.25301,0.32649,-0.074219,0.96078,0.95686,42.438
11.448,-0.25301,0.33724,-0.089844,0.97647,0.96078,42.243
11.456,-0.25301,0.35288,-0.080078,0.96667,0.95686,42.243
11.464,-0.25602,0.37439,-0.089844,0.97647,0.96667,42.243
11.472,-0.25602,0.40078,-0.080078,0.97059,0.96078,42.243
11.48,-0.25602,0.43109,-0.058594,0.94706,0.95098,42.438
11.488,-0.25904,0.46432,0,0.8902,0.91569,42.634
11.496,-0.25904,0.49951,0.064453,0.8,0.86667,43.025
11.504,-0.25904,0.53568,-0.013672,0.77059,0.85686,43.025
11.512,-0.26205,0.57087,-0.13867,0.6098,0.88627,43.416
11.52,-0.26205,0.60411,-0.20508,0.58039,0.91176,43.416
11.528,-0.26506,0.63539,-0.31836,0.73529,1.0412,43.612
11.536,-0.26807,0.65885,-0.35352,0.95686,1.1059,43.807
11.544,-0.27108,0.67742,-0.16406,1.0216,1.0216,43.807
11.552,-0.27108,0.69599,-0.09375,1.0157,0.98235,43.807
11.56,-0.2741,0.71163,-0.070312,1.0412,0.97059,43.807
11.568,-0.2741,0.72532,-0.064453,1.0471,0.97647,44.003
11.576,-0.27711,0.73509,-0.054688,1.0471,0.96078,44.003
11.584,-0.27711,0.74096,-0.058594,1.0412,0.96667,44.003
11.592,-0.28012,0.74291,-0.048828,1.0471,0.95686,44.003
11.6,-0.28313,0.73998,-0.048828,1.0471,0.96078,44.003
11.608,-0.28614,0.73412,-0.039062,1.0412,0.95098,43.807
11.616,-0.28614,0.72532,-0.044922,1.0373,0.95686,43.807
11.624,-0.28916,0.71261,-0.029297,1.0471,0.94118,43.612
11.632,-0.28916,0.69697,-0.035156,1.0412,0.94706,43.416
11.64,-0.28916,0.68035,-0.025391,1.0471,0.93725,43.22
11.648,-0.29217,0.66276,-0.025391,1.0412,0.94118,43.025
11.656,-0.29217,0.64223,-0.0097656,1.0412,0.92549,42.829
11.664,-0.29217,0.62072,-0.025391,1.0373,0.92157,42.634
11.672,-0.29217,0.59726,-0.0039062,1.0314,0.93137,42.243
11.68,-0.29217,0.5738,-0.0097656,1.0412,0.91569,41.851
11.688,-0.29217,0.55132,0.0058594,1.0412,0.91569,41.656
11.696,-0.29217,0.52884,0,1.051,0.91569,41.265
11.704,-0.29217,0.50831,0.015625,1.0471,0.90588,40.874
11.712,-0.29217,0.48974,0.019531,1.0608,0.91176,40.482
11.72,-0.29217,0.47116,0.025391,1.0569,0.90588,40.091
11.728,-0.28916,0.45552,0.035156,1.0725,0.90196,39.7
11.736,-0.28916,0.44282,0.044922,1.0667,0.8902,39.309
11.744,-0.28614,0.43206,0.050781,1.0667,0.8902,38.918
11.752,-0.28313,0.42229,0.044922,1.0667,0.89608,38.722
11.76,-0.28313,0.41349,0.054688,1.051,0.8902,38.527
11.768,-0.28012,0.40567,0.050781,1.0314,0.88039,38.527
11.776,-0.27711,0.3998,0.064453,1.0216,0.87647,38.918
11.784,-0.2741,0.39394,0.044922,1.002,0.88627,40.091
11.792,-0.27108,0.39003,0.050781,0.99608,0.88039,42.243
11.8,-0.26807,0.3871,0.025391,0.98235,0.8902,45.958
11.808,-0.26506,0.38514,0.03125,0.97647,0.8902,50.652
11.816,-0.26205,0.38319,0.019531,0.96667,0.89608,55.932
11.824,-0.26205,0.38221,0.015625,0.96078,0.90196,61.408
11.832,-0.25904,0.38123,0,0.95686,0.90588,66.297
11.84,-0.25904,0.38025,-0.0039062,0.96078,0.90588,70.795
11.848,-0.25904,0.37928,-0.013672,0.96667,0.91569,74.316
11.856,-0.25904,0.3783,-0.0097656,0.95686,0.91569,76.662
11.864,-0.25904,0.37634,-0.025391,0.96078,0.92157,78.227
11.872,-0.25904,0.37439,-0.019531,0.96078,0.91569,79.009
11.88,-0.25904,0.37243,-0.025391,0.96667,0.92157,79.205
11.888,-0.25904,0.37048,-0.019531,0.95686,0.91569,78.814
11.896,-0.26205,0.3695,-0.029297,0.96667,0.92549,78.227
11.904,-0.26205,0.36755,-0.019531,0.95098,0.91569,77.054
11.912,-0.26506,0.36559,-0.025391,0.95686,0.91569,75.88
11.92,-0.26807,0.36364,-0.025391,0.95686,0.92157,74.316
11.928,-0.2741,0.36168,-0.029297,0.96078,0.91569,72.751
11.936,-0.27711,0.3607,-0.025391,0.95686,0.92549,70.795
11.944,-0.28012,0.35875,-0.019531,0.96667,0.91569,68.644
11.952,-0.28614,0.35484,-0.029297,0.96078,0.92549,66.493
11.96,-0.28916,0.35191,0,0.97059,0.90588,64.146
11.968,-0.29217,0.348,0.015625,0.97059,0.8902,61.604
11.976,-0.29518,0.34311,0.03125,0.97647,0.88039,59.061
11.984,-0.29518,0.33822,0.044922,0.96667,0.87059,56.715
11.992,-0.29819,0.33333,0.041016,0.96667,0.87647,54.368
12,-0.29819,0.32845,0.03125,0.95098,0.87059,52.216
12.008,-0.3012,0.32454,0.015625,0.94706,0.86667,50.065
12.016,-0.3012,0.31965,0.0058594,0.93725,0.8902,48.305
12.024,-0.3012,0.31476,0.025391,0.95098,0.88039,46.741
12.032,-0.30422,0.31183,0.015625,0.96667,0.8902,45.372
12.04,-0.30422,0.30987,-0.0097656,0.97059,0.91569,44.394
12.048,-0.30422,0.30792,-0.064453,0.97647,0.95098,43.416
12.056,-0.30422,0.30694,-0.070312,0.97059,0.95686,42.829
12.064,-0.30422,0.3089,-0.074219,0.97059,0.95098,42.243
12.072,-0.30422,0.31281,-0.074219,0.97059,0.95098,41.851
12.08,-0.30422,0.3216,-0.083984,0.97647,0.96078,41.851
12.088,-0.30422,0.33529,-0.074219,0.97059,0.95686,41.656
12.096,-0.30422,0.35484,-0.089844,0.97647,0.96078,41.656
12.104,-0.3012,0.37928,-0.074219,0.97647,0.95686,41.851
12.112,-0.3012,0.40762,-0.074219,0.97059,0.95686,42.047
12.12,-0.3012,0.43891,-0.029297,0.92549,0.93137,42.243
12.128,-0.29819,0.47312,0.03125,0.85098,0.89608,42.438
12.136,-0.29819,0.50244,0.070312,0.78627,0.8451,42.634
12.144,-0.29819,0.53079,-0.058594,0.70588,0.87059,43.025
12.152,-0.29819,0.56109,-0.17383,0.57059,0.8902,43.025
12.16,-0.29819,0.59238,-0.25,0.62549,0.95686,43.22
12.168,-0.29819,0.62268,-0.33398,0.81569,1.0765,43.416
12.176,-0.29819,0.65103,-0.25977,1.002,1.102,43.416
12.184,-0.29819,0.67449,-0.10938,1.0157,0.99216,43.612
12.192,-0.29819,0.69404,-0.070312,1.0471,0.96667,43.612
12.2,-0.29819,0.70968,-0.058594,1.0471,0.97059,43.612
12.208,-0.29819,0.72043,-0.039062,1.051,0.95686,43.612
12.216,-0.29819,0.7263,-0.044922,1.0471,0.95098,43.807
12.224,-0.29819,0.72825,-0.025391,1.0471,0.94118,43.807
12.232,-0.29819,0.7263,-0.029297,1.0471,0.94706,43.807
12.24,-0.29819,0.72043,-0.013672,1.0471,0.94118,43.612
12.248,-0.3012,0.71163,-0.025391,1.0471,0.94118,43.416
12.256,-0.3012,0.6999,-0.0039062,1.0471,0.93137,43.416
12.264,-0.30422,0.68524,-0.013672,1.0471,0.94118,43.22
12.272,-0.30422,0.66764,0,1.0471,0.92157,43.025
12.28,-0.30422,0.64809,-0.0039062,1.0412,0.93137,42.829
12.288,-0.30422,0.62561,0,1.0412,0.92157,42.634
12.296,-0.30723,0.60313,-0.0097656,1.0471,0.92549,42.243
12.304,-0.30723,0.57967,0,1.0412,0.92157,42.047
12.312,-0.30723,0.55621,0,1.0471,0.91569,41.656
12.32,-0.30723,0.53372,0.015625,1.0412,0.91569,41.265
12.328,-0.30723,0.51124,0.019531,1.0471,0.91176,40.874
12.336,-0.30723,0.49267,0.0097656,1.0471,0.91569,40.482
12.344,-0.30723,0.47605,0.025391,1.0569,0.90588,40.091
12.352,-0.30723,0.45846,0.035156,1.0569,0.89608,39.7
12.36,-0.30723,0.44184,0.044922,1.0725,0.8902,39.309
12.368,-0.30723,0.4262,0.041016,1.0725,0.89608,38.918
12.376,-0.30422,0.41251,0.054688,1.0765,0.88627,38.722
12.384,-0.30422,0.3998,0.044922,1.0667,0.8902,38.331
12.392,-0.3012,0.38905,0.060547,1.0608,0.88627,38.136
12.4,-0.29819,0.38025,0.044922,1.0412,0.8902,37.94
12.408,-0.29518,0.37439,0.060547,1.0314,0.88039,38.136
12.416,-0.29217,0.36852,0.044922,1.0157,0.88627,38.527
12.424,-0.28916,0.36559,0.050781,1.002,0.88039,40.091
12.432,-0.28614,0.36266,0.03125,0.98627,0.8902,42.634
12.44,-0.28614,0.3607,0.041016,0.97647,0.88039,46.349
12.448,-0.28313,0.35973,0.019531,0.96667,0.89608,51.239
12.456,-0.28012,0.35875,0.015625,0.96078,0.8902,56.519
12.464,-0.27711,0.35777,0,0.95686,0.90196,61.799
12.472,-0.27711,0.35679,0.0058594,0.95098,0.90196,66.688
12.48,-0.2741,0.35484,-0.013672,0.95686,0.91176,70.795
12.488,-0.2741,0.35288,-0.0039062,0.95098,0.90588,73.924
12.496,-0.2741,0.35093,-0.025391,0.96078,0.91569,76.271
12.504,-0.2741,0.34995,-0.013672,0.95686,0.91176,77.64
12.512,-0.2741,0.348,-0.025391,0.96078,0.91569,78.227
12.52,-0.2741,0.34702,-0.019531,0.95098,0.91569,78.227
12.528,-0.2741,0.34604,-0.029297,0.95686,0.91569,77.836
12.536,-0.27711,0.34604,-0.019531,0.95098,0.91569,77.054
12.544,-0.27711,0.34506,-0.029297,0.95686,0.91569,76.076
12.552,-0.28012,0.34506,-0.025391,0.95686,0.91569,74.707
12.56,-0.28012,0.34311,-0.019531,0.96667,0.91176,73.142
12.568,-0.28313,0.34115,-0.025391,0.95686,0.91569,71.382
12.576,-0.28614,0.3392,-0.019531,0.96078,0.91569,69.231
12.584,-0.28916,0.33627,-0.025391,0.96078,0.91569,67.08
12.592,-0.29217,0.33333,-0.0097656,0.97059,0.91176,64.733
12.6,-0.29518,0.32942,0.0058594,0.96667,0.89608,62.386
12.608,-0.29819,0.32551,0.025391,0.97059,0.88627,59.844
12.616,-0.29819,0.3216,0.035156,0.97647,0.8902,57.497
12.624,-0.3012,0.31769,0.050781,0.96667,0.86667,55.15
12.632,-0.30422,0.31378,0.035156,0.95098,0.87059,52.803
12.64,-0.30422,0.31085,0.044922,0.94706,0.86078,50.652
12.648,-0.30723,0.30792,0.0097656,0.94118,0.87647,48.696
12.656,-0.30723,0.30499,0.03125,0.94706,0.87059,46.936
12.664,-0.30723,0.3001,0.019531,0.95686,0.88039,45.567
12.672,-0.31024,0.29423,0.015625,0.96667,0.87647,44.198
12.68,-0.31024,0.29032,-0.048828,0.97059,0.93137,43.22
12.688,-0.31024,0.28739,-0.070312,0.96667,0.94118,42.634
12.696,-0.31024,0.28543,-0.083984,0.97059,0.96078,42.047
12.704,-0.31024,0.28837,-0.074219,0.96078,0.95098,41.656
12.712,-0.31024,0.29423,-0.09375,0.97059,0.96078,41.46
12.72,-0.31024,0.30499,-0.089844,0.96667,0.96078,41.265
12.728,-0.31024,0.32063,-0.089844,0.97647,0.96078,41.265
12.736,-0.31024,0.33822,-0.083984,0.96667,0.96078,41.265
12.744,-0.31024,0.35875,-0.09375,0.97059,0.96667,41.46
12.752,-0.31024,0.38514,-0.054688,0.94706,0.94118,41.46
12.76,-0.31024,0.41642,-0.013672,0.89608,0.91569,41.851
12.768,-0.31024,0.44966,0.080078,0.79608,0.85686,42.047
12.776,-0.31024,0.48485,-0.0039062,0.78039,0.84118,42.243
12.784,-0.31024,0.51906,-0.11914,0.6,0.87059,42.438
12.792,-0.31024,0.55327,-0.20898,0.5549,0.90196,42.634
12.8,-0.31024,0.58456,-0.31445,0.68627,1.0216,42.829
12.808,-0.31024,0.61388,-0.33984,0.92549,1.102,42.829
12.816,-0.31024,0.6393,-0.17969,1.0157,1.0216,43.025
12.824,-0.31024,0.66178,-0.099609,1.0412,0.97647,43.025
12.832,-0.31024,0.68035,-0.083984,1.051,0.97059,43.025
12.84,-0.30723,0.69306,-0.064453,1.0569,0.96078,43.025
12.848,-0.30723,0.6999,-0.064453,1.0608,0.96667,43.025
12.856,-0.30723,0.70577,-0.048828,1.0569,0.95686,43.025
12.864,-0.30422,0.70772,-0.048828,1.0608,0.95686,43.025
12.872,-0.30422,0.70577,-0.035156,1.051,0.94706,43.025
12.88,-0.30422,0.6999,-0.039062,1.0569,0.95098,42.829
12.888,-0.3012,0.69013,-0.029297,1.0471,0.94118,42.634
12.896,-0.3012,0.67742,-0.044922,1.0569,0.95098,42.438
12.904,-0.29819,0.66178,-0.025391,1.051,0.94118,42.243
12.912,-0.29819,0.64125,-0.025391,1.051,0.93725,42.047
12.92,-0.29518,0.61681,-0.013672,1.051,0.92549,41.656
12.928,-0.29518,0.59335,-0.0039062,1.0471,0.91569,41.46
12.936,-0.29217,0.57087,0.0097656,1.0412,0.91176,41.069
12.944,-0.28916,0.55034,0,1.0471,0.91569,40.678
12.952,-0.28614,0.52786,-0.0039062,1.0471,0.91176,40.482
12.96,-0.28614,0.5044,0.019531,1.0471,0.90588,40.091
12.968,-0.28313,0.48094,0.019531,1.051,0.91176,39.7
12.976,-0.28012,0.45846,0.019531,1.0608,0.90588,39.309
12.984,-0.27711,0.43695,0.03125,1.0608,0.89608,38.722
12.992,-0.27711,0.4174,0.044922,1.0725,0.8902,38.331
13,-0.2741,0.3998,0.044922,1.0725,0.88627,37.94
13.008,-0.27108,0.38319,0.050781,1.0765,0.88039,37.549
13.016,-0.26807,0.3695,0.060547,1.0725,0.87647,37.158
13.024,-0.26506,0.35679,0.076172,1.0725,0.86667,36.962
13.032,-0.26205,0.348,0.064453,1.051,0.87647,36.767
13.04,-0.25904,0.34115,0.070312,1.0412,0.86667,36.767
13.048,-0.25602,0.33529,0.070312,1.0157,0.86667,36.962
13.056,-0.25301,0.32942,0.070312,1.002,0.86667,37.549
13.064,-0.25,0.32551,0.050781,0.99216,0.87059,38.918
13.072,-0.24398,0.32258,0.050781,0.97647,0.87059,41.656
13.08,-0.24398,0.32063,0.041016,0.96078,0.87647,45.372
13.088,-0.24096,0.31965,0.03125,0.95686,0.88039,50.261
13.096,-0.23795,0.31769,0.0097656,0.96078,0.8902,55.346
13.104,-0.23494,0.31672,0.019531,0.95098,0.8902,60.235
13.112,-0.23193,0.31672,-0.0097656,0.95686,0.90196,64.928
13.12,-0.23193,0.31574,0,0.95686,0.90588,68.84
13.128,-0.22892,0.31476,-0.013672,0.96078,0.89608,71.969
13.136,-0.2259,0.31476,0,0.95686,0.90588,74.12
13.144,-0.2259,0.31476,-0.013672,0.96667,0.91569,75.685
13.152,-0.22289,0.31378,-0.019531,0.95686,0.91176,76.271
13.16,-0.22289,0.31281,-0.013672,0.96078,0.91569,76.467
13.168,-0.21988,0.31183,-0.025391,0.95098,0.91569,76.076
13.176,-0.21988,0.30987,-0.019531,0.96078,0.91569,75.293
13.184,-0.21988,0.30694,-0.013672,0.95686,0.91176,74.12
13.192,-0.21988,0.30401,-0.025391,0.96667,0.91569,72.751
13.2,-0.21687,0.30108,-0.029297,0.95686,0.92157,70.991
13.208,-0.21687,0.29814,-0.013672,0.96078,0.91569,69.231
13.216,-0.21687,0.29423,-0.025391,0.96667,0.91569,67.08
13.224,-0.21386,0.28935,-0.0097656,0.95686,0.91176,64.733
13.232,-0.21386,0.28543,-0.0039062,0.97059,0.90588,62.386
13.24,-0.21084,0.2825,0,0.97647,0.8902,59.844
13.248,-0.21084,0.27859,0.019531,0.98235,0.88627,57.301
13.256,-0.20783,0.2737,0.044922,0.97647,0.87059,54.954
13.264,-0.20783,0.26882,0.019531,0.96667,0.88627,52.412
13.272,-0.20482,0.26393,0.041016,0.95098,0.86078,50.261
13.28,-0.20181,0.25904,0.025391,0.93725,0.86667,48.11
13.288,-0.1988,0.25318,0.041016,0.93137,0.86078,46.154
13.296,-0.19277,0.24829,0.044922,0.95098,0.86667,44.394
13.304,-0.18976,0.24242,0.025391,0.96078,0.87647,43.025
13.312,-0.18675,0.23656,-0.019531,0.97059,0.91176,41.851
13.32,-0.18072,0.23167,-0.044922,0.96667,0.93137,41.069
13.328,-0.17771,0.22874,-0.054688,0.97059,0.94118,40.287
13.336,-0.17169,0.22776,-0.048828,0.96667,0.94118,39.896
13.344,-0.16566,0.23069,-0.064453,0.97059,0.93725,39.7
13.352,-0.16265,0.23656,-0.054688,0.96667,0.94118,39.505
13.36,-0.15663,0.24633,-0.064453,0.97647,0.93725,39.505
13.368,-0.1506,0.261,-0.054688,0.97059,0.94118,39.7
13.376,-0.14458,0.28152,-0.064453,0.97647,0.93725,39.896
13.384,-0.13554,0.30792,-0.029297,0.95098,0.92157,40.091
13.392,-0.12952,0.3392,-0.0097656,0.93137,0.91569,40.482
13.4,-0.12349,0.37341,0.054688,0.8451,0.87059,40.678
13.408,-0.11747,0.40958,0.099609,0.81176,0.83529,41.069
13.416,-0.11145,0.44673,-0.044922,0.71569,0.87059,41.265
13.424,-0.10542,0.48289,-0.14453,0.60588,0.86667,41.46
13.432,-0.099398,0.5132,-0.22461,0.6549,0.96078,41.656
13.44,-0.093373,0.53959,-0.30469,0.83529,1.0667,41.851
13.448,-0.084337,0.56696,-0.24023,0.97059,1.0863,41.851
13.456,-0.078313,0.59335,-0.080078,1.0118,0.96667,42.047
13.464,-0.072289,0.61584,-0.058594,1.0471,0.95686,42.047
13.472,-0.063253,0.63636,-0.048828,1.051,0.94118,42.047
13.48,-0.057229,0.652,-0.058594,1.0608,0.95686,42.243
13.488,-0.051205,0.66373,-0.035156,1.0608,0.94118,42.243
13.496,-0.045181,0.67058,-0.044922,1.0667,0.94706,42.243
13.504,-0.039157,0.67351,-0.025391,1.051,0.93137,42.047
13.512,-0.03012,0.67058,-0.019531,1.0471,0.93725,42.047
13.52,-0.024096,0.66178,0,1.0412,0.92549,41.851
13.528,-0.018072,0.64907,-0.0039062,1.0412,0.92549,41.656
13.536,-0.0090361,0.63441,0,1.0373,0.91569,41.656
13.544,-0.0030121,0.61877,0.0058594,1.0314,0.92157,41.46
13.552,0.0060241,0.59922,0,1.0216,0.91569,41.265
13.56,0.012048,0.57674,0.015625,1.0275,0.91569,41.069
13.568,0.018072,0.5523,0.0058594,1.0275,0.91569,40.874
13.576,0.024096,0.52786,0.019531,1.0314,0.91176,40.678
13.584,0.03012,0.50244,0.0097656,1.0275,0.91569,40.482
13.592,0.036145,0.47703,0.019531,1.0314,0.91176,40.091
13.6,0.042169,0.45161,0.0097656,1.0314,0.90196,39.7
13.608,0.051205,0.42717,0.025391,1.0412,0.89608,39.309
13.616,0.057229,0.40274,0.025391,1.0373,0.90196,38.918
13.624,0.063253,0.38123,0.035156,1.0471,0.89608,38.527
13.632,0.072289,0.36364,0.03125,1.0471,0.90196,38.331
13.64,0.078313,0.34995,0.044922,1.051,0.8902,37.94
13.648,0.084337,0.33529,0.041016,1.0569,0.89608,37.549
13.656,0.093373,0.32356,0.050781,1.0471,0.8902,37.353
13.664,0.10241,0.31281,0.044922,1.0373,0.8902,37.158
13.672,0.10843,0.30303,0.054688,1.0275,0.88627,36.962
13.68,0.11747,0.29619,0.044922,1.0157,0.8902,37.158
13.688,0.12651,0.2913,0.044922,1.002,0.88627,37.744
13.696,0.13554,0.28739,0.03125,0.99216,0.89608,39.113
13.704,0.14157,0.28446,0.03125,0.98235,0.8902,41.46
13.712,0.1506,0.2825,0.0097656,0.97647,0.90588,44.98
13.72,0.15663,0.2825,0.0097656,0.96667,0.91176,49.674
13.728,0.16265,0.2825,-0.0039062,0.96078,0.91569,54.954
13.736,0.16566,0.2825,-0.0097656,0.95686,0.92157,60.43
13.744,0.16867,0.2825,-0.025391,0.96078,0.91569,65.711
13.752,0.17169,0.2825,-0.029297,0.95686,0.93725,70.404
13.76,0.17169,0.2825,-0.044922,0.96667,0.93725,74.12
13.768,0.17169,0.28152,-0.048828,0.95686,0.94118,77.054
13.776,0.17169,0.28152,-0.039062,0.96078,0.93137,79.009
13.784,0.16566,0.28152,-0.048828,0.95686,0.94118,80.183
13.792,0.16265,0.28055,-0.044922,0.96667,0.93725,80.378
13.8,0.15964,0.27957,-0.048828,0.95686,0.94118,80.183
13.808,0.15361,0.27761,-0.039062,0.96078,0.93725,79.4
13.816,0.14458,0.27664,-0.048828,0.95098,0.94118,78.227
13.824,0.13554,0.27468,-0.044922,0.95686,0.94118,76.858
13.832,0.12048,0.2737,-0.054688,0.95686,0.94118,75.098
13.84,0.10843,0.27273,-0.048828,0.95686,0.93137,73.338
13.848,0.093373,0.27077,-0.058594,0.96078,0.94118,71.186
13.856,0.078313,0.26882,-0.044922,0.96667,0.93137,69.035
13.864,0.060241,0.26686,-0.044922,0.97059,0.93725,66.688
13.872,0.042169,0.26393,-0.019531,0.96667,0.91569,64.146
13.88,0.027108,0.26002,-0.0097656,0.97647,0.91569,61.604
13.888,0.012048,0.25611,0.015625,0.98235,0.89608,59.061
13.896,-0.0030121,0.25122,0.019531,0.97647,0.8902,56.715
13.904,-0.01506,0.24633,0.019531,0.96078,0.8902,54.172
13.912,-0.027108,0.24047,0,0.95098,0.8902,52.021
13.92,-0.042169,0.2346,-0.0039062,0.95098,0.89608,49.87
13.928,-0.054217,0.22972,-0.0039062,0.95098,0.90196,48.11
13.936,-0.066265,0.22483,0.019531,0.95686,0.8902,46.349
13.944,-0.075301,0.2219,0,0.96667,0.90196,45.176
13.952,-0.084337,0.21896,-0.039062,0.96667,0.93725,44.003
13.96,-0.093373,0.21603,-0.080078,0.97647,0.96078,43.22
13.968,-0.10241,0.21603,-0.089844,0.96667,0.96078,42.634
13.976,-0.11145,0.21896,-0.083984,0.97647,0.96078,42.243
13.984,-0.11747,0.22581,-0.09375,0.97059,0.96078,42.047
13.992,-0.12349,0.23851,-0.089844,0.97647,0.96667,41.851
14,-0.12952,0.25513,-0.099609,0.97647,0.96078,41.851
14.008,-0.13554,0.27859,-0.083984,0.97647,0.96078,41.851
14.016,-0.13855,0.30694,-0.099609,0.97647,0.96667,42.047
14.024,-0.14458,0.3392,-0.074219,0.96078,0.95098,42.243
14.032,-0.14759,0.37048,-0.025391,0.91569,0.93137,42.634
14.04,-0.15361,0.40176,0.054688,0.82549,0.87647,43.025
14.048,-0.15663,0.43891,0.076172,0.8,0.8451,43.22
14.056,-0.15964,0.47703,-0.080078,0.67059,0.87059,43.416
14.064,-0.16566,0.51613,-0.18359,0.6,0.90196,43.612
14.072,-0.16867,0.55327,-0.27344,0.69608,0.99216,43.807
14.08,-0.17169,0.58749,-0.36328,0.91569,1.1059,43.807
14.088,-0.17771,0.61975,-0.21484,1.0216,1.0412,44.003
14.096,-0.18072,0.64712,-0.11523,1.0314,0.99608,44.003
14.104,-0.18675,0.6696,-0.074219,1.0412,0.96667,44.003
14.112,-0.18976,0.68719,-0.074219,1.0471,0.97059,44.003
14.12,-0.19277,0.6999,-0.048828,1.0471,0.96078,44.003
14.128,-0.19578,0.70772,-0.054688,1.051,0.96078,44.003
14.136,-0.1988,0.70968,-0.044922,1.0471,0.95098,44.003
14.144,-0.20181,0.70772,-0.048828,1.0471,0.95098,44.003
14.152,-0.20482,0.70283,-0.039062,1.0471,0.94118,43.807
14.16,-0.20783,0.69501,-0.035156,1.0412,0.94118,43.807
14.168,-0.20783,0.68231,-0.039062,1.0373,0.93725,43.612
14.176,-0.21084,0.66764,-0.025391,1.0471,0.94118,43.416
14.184,-0.21084,0.64907,-0.029297,1.0373,0.93137,43.22
14.192,-0.21084,0.62854,-0.013672,1.0412,0.93137,43.025
14.2,-0.21084,0.60704,-0.025391,1.0373,0.94118,42.829
14.208,-0.21084,0.58358,-0.0039062,1.0412,0.92157,42.634
14.216,-0.20783,0.55914,-0.013672,1.0412,0.92549,42.243
14.224,-0.20783,0.5347,0,1.0412,0.91569,42.047
14.232,-0.20783,0.5132,-0.0039062,1.0412,0.91569,41.656
14.24,-0.20783,0.49267,0.0058594,1.051,0.91569,41.265
14.248,-0.20783,0.47116,0.0097656,1.051,0.91176,40.874
14.256,-0.20783,0.44966,0.025391,1.0569,0.90196,40.482
14.264,-0.20783,0.42913,0.019531,1.0667,0.90588,40.091
14.272,-0.20783,0.41056,0.035156,1.0667,0.8902,39.7
14.28,-0.20783,0.39492,0.03125,1.0765,0.89608,39.309
14.288,-0.20783,0.38025,0.050781,1.0725,0.88627,38.918
14.296,-0.20783,0.36852,0.044922,1.0725,0.8902,38.722
14.304,-0.20783,0.35973,0.054688,1.0569,0.88039,38.527
14.312,-0.20783,0.35386,0.044922,1.0471,0.88039,38.527
14.32,-0.20783,0.34897,0.060547,1.0275,0.87059,38.918
14.328,-0.20783,0.34702,0.044922,1.0157,0.87647,40.091
14.336,-0.20783,0.34604,0.044922,1.002,0.88039,42.438
14.344,-0.20783,0.34506,0.019531,0.99216,0.8902,46.154
14.352,-0.20783,0.34604,0.019531,0.97647,0.8902,51.043
14.36,-0.20783,0.34702,0.0058594,0.97059,0.89608,56.715
14.368,-0.20783,0.34897,0,0.96667,0.90196,62.386
14.376,-0.21084,0.35093,-0.0097656,0.96667,0.89608,67.666
14.384,-0.21084,0.35191,-0.013672,0.95686,0.91176,72.36
14.392,-0.21386,0.35386,-0.0097656,0.96667,0.91569,76.076
14.4,-0.21386,0.35484,-0.029297,0.96667,0.92157,78.618
14.408,-0.21687,0.35582,-0.025391,0.96667,0.91569,80.183
14.416,-0.21988,0.35777,-0.029297,0.95686,0.91569,80.965
14.424,-0.22289,0.35875,-0.025391,0.96078,0.91569,81.16
14.432,-0.2259,0.35875,-0.035156,0.95686,0.92157,80.769
14.44,-0.22892,0.35875,-0.025391,0.95686,0.91569,79.987
14.448,-0.23193,0.35777,-0.035156,0.96078,0.92157,79.009
14.456,-0.23494,0.35679,-0.025391,0.96667,0.91569,77.64
14.464,-0.23795,0.35582,-0.035156,0.96078,0.92157,76.271
14.472,-0.24096,0.35484,-0.025391,0.96667,0.91569,74.511
14.48,-0.24398,0.35386,-0.029297,0.97059,0.91569,72.555
14.488,-0.24699,0.35191,-0.025391,0.96667,0.91569,70.6
14.496,-0.25,0.34995,-0.029297,0.97059,0.91569,68.253
14.504,-0.25301,0.34702,-0.0039062,0.96667,0.89608,65.906
14.512,-0.25602,0.34506,0,0.97647,0.8902,63.364
14.52,-0.25904,0.34115,0.025391,0.97647,0.88627,60.821
14.528,-0.26205,0.33724,0.035156,0.98235,0.88039,58.279
14.536,-0.26205,0.33431,0.044922,0.96667,0.86667,55.932
14.544,-0.26506,0.3304,0.03125,0.95098,0.86667,53.585
14.552,-0.26807,0.32649,0.019531,0.94706,0.87059,51.434
14.56,-0.26807,0.3216,0.0058594,0.94706,0.88627,49.479
14.568,-0.27108,0.31672,0.019531,0.95686,0.87059,47.718
14.576,-0.2741,0.31085,0.025391,0.96667,0.86667,46.154
14.584,-0.2741,0.30596,-0.0039062,0.97647,0.90196,44.98
14.592,-0.27711,0.30108,-0.054688,0.97647,0.93137,44.198
14.6,-0.28012,0.29912,-0.074219,0.97059,0.94706,43.416
14.608,-0.28012,0.3001,-0.080078,0.97647,0.94118,43.025
14.616,-0.28313,0.30499,-0.083984,0.97647,0.95686,42.634
14.624,-0.28313,0.31476,-0.080078,0.97647,0.95098,42.438
14.632,-0.28313,0.32845,-0.09375,0.97059,0.96078,42.243
14.64,-0.28614,0.34506,-0.083984,0.97647,0.95098,42.243
14.648,-0.28614,0.36852,-0.09375,0.97059,0.96078,42.438
14.656,-0.28916,0.39785,-0.083984,0.97059,0.96078,42.634
14.664,-0.28916,0.43206,-0.054688,0.93725,0.94706,42.829
14.672,-0.29217,0.47019,0.015625,0.87059,0.90588,43.025
14.68,-0.29217,0.50929,0.070312,0.78627,0.85098,43.416
14.688,-0.29217,0.54936,-0.044922,0.74118,0.87059,43.612
14.696,-0.29217,0.58651,-0.17969,0.59608,0.8902,43.807
14.704,-0.29518,0.62268,-0.24414,0.58039,0.93725,44.003
14.712,-0.29518,0.65591,-0.35352,0.78627,1.0725,44.198
14.72,-0.29518,0.68524,-0.36328,0.98627,1.1059,44.394
14.728,-0.29518,0.71065,-0.13867,1.0216,1.002,44.394
14.736,-0.29518,0.72923,-0.083984,1.0373,0.97059,44.589
14.744,-0.29518,0.74291,-0.074219,1.0471,0.96667,44.589
14.752,-0.29518,0.75464,-0.054688,1.0471,0.96078,44.589
14.76,-0.29518,0.76344,-0.048828,1.0471,0.95686,44.589
14.768,-0.29518,0.76833,-0.054688,1.0471,0.96078,44.589
14.776,-0.29518,0.76931,-0.048828,1.0471,0.94706,44.394
14.784,-0.29518,0.7654,-0.035156,1.0471,0.94118,44.394
14.792,-0.29518,0.75758,-0.025391,1.0471,0.94118,44.198
14.8,-0.29518,0.74585,-0.035156,1.0471,0.93725,44.003
14.808,-0.29518,0.72923,-0.019531,1.0471,0.93725,43.807
14.816,-0.29518,0.70968,-0.025391,1.0412,0.93137,43.612
14.824,-0.29518,0.68719,-0.019531,1.0471,0.93137,43.416
14.832,-0.29518,0.66569,-0.025391,1.0471,0.92549,43.22
14.84,-0.29518,0.64418,-0.0039062,1.0471,0.92157,42.829
14.848,-0.29518,0.61975,-0.0097656,1.0412,0.92549,42.634
14.856,-0.29217,0.59433,0,1.0471,0.91569,42.243
14.864,-0.29217,0.56794,-0.0097656,1.0471,0.92157,41.851
14.872,-0.29217,0.54154,0.0097656,1.0471,0.91176,41.46
14.88,-0.29217,0.51613,0.0097656,1.051,0.91176,41.265
14.888,-0.28916,0.49169,0.025391,1.0569,0.90196,40.874
14.896,-0.28916,0.46921,0.025391,1.0608,0.89608,40.287
14.904,-0.28614,0.4477,0.041016,1.0725,0.8902,39.896
14.912,-0.28614,0.42913,0.035156,1.0765,0.8902,39.505
14.92,-0.28614,0.41251,0.054688,1.0725,0.88627,39.113
14.928,-0.28614,0.3998,0.050781,1.0765,0.8902,38.722
14.936,-0.28313,0.39003,0.064453,1.0667,0.87647,38.527
14.944,-0.28313,0.38123,0.054688,1.0569,0.87647,38.331
14.952,-0.28012,0.37341,0.060547,1.0314,0.87059,38.527
14.96,-0.28012,0.37243,0.044922,1.0216,0.87647,39.113
14.968,-0.27711,0.37537,0.050781,1.002,0.88039,40.482
14.976,-0.27711,0.37537,0.035156,0.99608,0.87647,43.22
14.984,-0.2741,0.37439,0.025391,0.97647,0.8902,47.327
14.992,-0.2741,0.37439,0.03125,0.97059,0.88039,52.216
15,-0.27108,0.37439,0.019531,0.96078,0.8902,57.692
15.008,-0.27108,0.37341,0,0.96667,0.8902,63.168
15.016,-0.27108,0.37341,-0.0097656,0.95098,0.90588,68.253
15.024,-0.26807,0.37243,-0.0039062,0.95686,0.91176,72.36
15.032,-0.27108,0.37146,-0.025391,0.95098,0.91569,75.685
15.04,-0.27108,0.37146,-0.019531,0.96667,0.91569,77.836
15.048,-0.27108,0.37048,-0.029297,0.95686,0.91569,79.009
15.056,-0.27108,0.3695,-0.025391,0.96078,0.91569,79.596
15.064,-0.2741,0.36755,-0.029297,0.96667,0.91569,79.596
15.072,-0.2741,0.36559,-0.029297,0.97059,0.91569,79.205
15.08,-0.27711,0.36364,-0.039062,0.96078,0.92549,78.422
15.088,-0.27711,0.36168,-0.025391,0.95686,0.92157,77.249
15.096,-0.28012,0.35973,-0.029297,0.96667,0.92549,75.88
15.104,-0.28012,0.35679,-0.025391,0.96078,0.91569,74.316
15.112,-0.28313,0.35386,-0.035156,0.97059,0.92157,72.555
15.12,-0.28614,0.34995,-0.025391,0.95686,0.91569,70.6
15.128,-0.28916,0.348,-0.029297,0.97059,0.91569,68.449
15.136,-0.28916,0.34506,-0.0097656,0.97059,0.90588,66.102
15.144,-0.29217,0.34213,0,0.97647,0.90196,63.755
15.152,-0.29518,0.3392,0.019531,0.97647,0.88627,61.213
15.16,-0.29819,0.33627,0.03125,0.98235,0.88039,58.67
15.168,-0.29819,0.33236,0.044922,0.97647,0.86667,56.323
15.176,-0.3012,0.32747,0.03125,0.96078,0.87059,53.977
15.184,-0.3012,0.32258,0.03125,0.95098,0.86667,51.825
15.192,-0.30422,0.31769,0.0097656,0.94706,0.87059,49.674
15.2,-0.30422,0.31183,0.019531,0.94118,0.87647,47.914
15.208,-0.30422,0.30596,0.03125,0.96667,0.86667,46.349
15.216,-0.30422,0.3001,0.015625,0.96078,0.88627,45.176
15.224,-0.30723,0.29423,-0.035156,0.97647,0.92157,44.198
15.232,-0.30723,0.2913,-0.054688,0.96667,0.94118,43.22
15.24,-0.30723,0.28935,-0.070312,0.96667,0.94118,42.634
15.248,-0.30723,0.29032,-0.074219,0.96078,0.94118,42.243
15.256,-0.30723,0.29521,-0.070312,0.97059,0.93725,42.047
15.264,-0.30723,0.30499,-0.080078,0.97059,0.95098,41.851
15.272,-0.30723,0.31965,-0.074219,0.97647,0.94706,41.851
15.28,-0.30723,0.3392,-0.083984,0.97059,0.95686,41.851
15.288,-0.30723,0.36364,-0.074219,0.97059,0.95098,42.047
15.296,-0.30723,0.39296,-0.058594,0.95098,0.94706,42.243
15.304,-0.30723,0.42424,-0.0039062,0.90588,0.91176,42.438
15.312,-0.30422,0.45748,0.070312,0.80588,0.86078,42.634
15.32,-0.30422,0.49071,0.080078,0.78627,0.84118,42.829
15.328,-0.30422,0.52004,-0.11523,0.62941,0.87059,43.025
15.336,-0.30723,0.54545,-0.19922,0.57451,0.90196,43.22
15.344,-0.30723,0.57283,-0.30859,0.6902,1.0118,43.416
15.352,-0.30723,0.6002,-0.33984,0.92549,1.0961,43.612
15.36,-0.30723,0.62561,-0.17969,1.0216,1.0216,43.612
15.368,-0.31024,0.64907,-0.089844,1.0314,0.97647,43.807
15.376,-0.31024,0.66764,-0.064453,1.0471,0.96078,43.807
15.384,-0.31024,0.68328,-0.048828,1.0471,0.95686,43.807
15.392,-0.31024,0.69306,-0.048828,1.0569,0.95686,44.003
15.4,-0.31024,0.6999,-0.039062,1.0471,0.95098,44.003
15.408,-0.31024,0.70186,-0.029297,1.0569,0.94706,44.003
15.416,-0.31024,0.6999,-0.035156,1.0471,0.95098,43.807
15.424,-0.31024,0.69501,-0.025391,1.051,0.94118,43.807
15.432,-0.31024,0.68817,-0.029297,1.0569,0.94118,43.612
15.44,-0.31024,0.67742,-0.019531,1.051,0.93137,43.416
15.448,-0.31024,0.66471,-0.025391,1.0471,0.93725,43.22
15.456,-0.31024,0.64809,-0.013672,1.0569,0.92549,43.025
15.464,-0.31024,0.62952,-0.019531,1.0471,0.93137,43.025
15.472,-0.31024,0.60899,0,1.0471,0.91569,42.634
15.48,-0.31024,0.58651,0,1.0471,0.91569,42.438
15.488,-0.31024,0.565,0.015625,1.0412,0.91176,42.047
15.496,-0.31024,0.54252,0,1.0471,0.91569,41.656
15.504,-0.30723,0.52102,0.015625,1.051,0.90196,41.46
15.512,-0.30723,0.49853,0.015625,1.051,0.90588,41.069
15.52,-0.30723,0.47801,0.025391,1.0608,0.89608,40.678
15.528,-0.30723,0.46041,0.019531,1.0725,0.90196,40.287
15.536,-0.30723,0.44477,0.035156,1.0667,0.89608,39.896
15.544,-0.30422,0.42913,0.041016,1.0824,0.89608,39.505
15.552,-0.30422,0.41447,0.054688,1.0725,0.88627,39.113
15.56,-0.30422,0.40078,0.060547,1.0863,0.88627,38.722
15.568,-0.3012,0.38905,0.054688,1.0725,0.87647,38.527
15.576,-0.3012,0.37928,0.064453,1.0608,0.87059,38.136
15.584,-0.29819,0.37243,0.070312,1.0471,0.86667,38.136
15.592,-0.29819,0.36559,0.060547,1.0275,0.86667,38.331
15.6,-0.29518,0.3607,0.060547,1.0118,0.87059,39.113
15.608,-0.29217,0.35777,0.044922,1.002,0.86667,41.069
15.616,-0.29217,0.35484,0.035156,0.98235,0.88039,44.198
15.624,-0.28916,0.35191,0.041016,0.97647,0.88039,48.305
15.632,-0.28916,0.34995,0.03125,0.96667,0.88627,53.39
15.64,-0.28916,0.34897,0.015625,0.96667,0.88039,58.67
15.648,-0.28614,0.348,0,0.95686,0.8902,63.95
15.656,-0.28614,0.34702,0.0097656,0.96078,0.8902,68.449
15.664,-0.28614,0.34702,-0.013672,0.95686,0.90588,72.164
15.672,-0.28614,0.34604,-0.0039062,0.96667,0.90196,74.902
15.68,-0.28614,0.34506,-0.019531,0.96078,0.91176,76.662
15.688,-0.28614,0.34409,-0.0097656,0.96667,0.90588,77.836
15.696,-0.28614,0.34311,-0.025391,0.96078,0.91569,78.031
15.704,-0.28614,0.34213,-0.019531,0.96667,0.91569,77.836
15.712,-0.28614,0.34018,-0.029297,0.96078,0.92157,77.249
15.72,-0.28916,0.3392,-0.025391,0.95686,0.91569,76.467
15.728,-0.28916,0.33822,-0.035156,0.96078,0.92549,75.098
15.736,-0.29217,0.33724,-0.025391,0.96078,0.92157,73.729
15.744,-0.29217,0.33529,-0.035156,0.96667,0.92549,72.164
15.752,-0.29518,0.33431,-0.025391,0.97059,0.91569,70.209
15.76,-0.29518,0.33138,-0.035156,0.97647,0.92157,68.057
15.768,-0.29819,0.32845,-0.025391,0.97059,0.91569,65.906
15.776,-0.29819,0.32551,-0.025391,0.97647,0.91569,63.559
15.784,-0.3012,0.32258,0.0058594,0.97647,0.90196,61.017
15.792,-0.30422,0.31769,0.0097656,0.98235,0.89608,58.67
15.8,-0.30723,0.31378,0.03125,0.97647,0.88627,56.128
15.808,-0.30723,0.3089,0.041016,0.97647,0.87647,53.781
15.816,-0.31024,0.30499,0.019531,0.95098,0.88039,51.63
15.824,-0.31024,0.30108,0.025391,0.95098,0.86667,49.479
15.832,-0.31024,0.29717,0,0.94118,0.88627,47.718
15.84,-0.31024,0.29423,0.019531,0.95686,0.87647,46.154
15.848,-0.31325,0.29032,0.015625,0.96667,0.88039,44.785
15.856,-0.31325,0.28641,-0.0097656,0.97647,0.90196,43.612
15.864,-0.31325,0.28348,-0.058594,0.97059,0.94118,42.829
15.872,-0.31325,0.28055,-0.074219,0.97647,0.94118,42.243
15.88,-0.31325,0.28055,-0.089844,0.96667,0.95686,41.656
15.888,-0.31325,0.28348,-0.074219,0.96667,0.94706,41.46
15.896,-0.31325,0.29032,-0.089844,0.97059,0.96078,41.265
15.904,-0.31325,0.30205,-0.083984,0.97059,0.95098,41.265
15.912,-0.31325,0.31867,-0.09375,0.97647,0.96078,41.46
15.92,-0.31325,0.3392,-0.089844,0.96667,0.95686,41.46
15.928,-0.31325,0.3607,-0.099609,0.97647,0.96667,41.656
15.936,-0.31024,0.38416,-0.048828,0.93725,0.94118,41.851
15.944,-0.31024,0.41153,0,0.86667,0.91569,42.047
15.952,-0.31024,0.44379,0.076172,0.78627,0.8451,42.243
15.96,-0.31024,0.47605,-0.048828,0.74118,0.87059,42.438
15.968,-0.31024,0.51026,-0.16406,0.58431,0.88627,42.829
15.976,-0.30723,0.54252,-0.23438,0.56471,0.92549,42.829
15.984,-0.30723,0.57283,-0.33008,0.76078,1.0569,43.025
15.992,-0.30723,0.60117,-0.35352,0.97647,1.102,43.025
16,-0.30723,0.62561,-0.14453,1.0157,1.0059,43.22
16.008,-0.30723,0.64614,-0.089844,1.0471,0.97059,43.22
16.016,-0.30422,0.66178,-0.074219,1.0471,0.96667,43.22
16.024,-0.30422,0.67351,-0.064453,1.0569,0.96078,43.416
16.032,-0.30422,0.68035,-0.054688,1.0471,0.96667,43.416
16.04,-0.30422,0.68231,-0.044922,1.0608,0.95686,43.416
16.048,-0.30422,0.68231,-0.048828,1.051,0.95098,43.416
16.056,-0.30422,0.67937,-0.039062,1.051,0.94706,43.22
16.064,-0.3012,0.67351,-0.044922,1.0471,0.94118,43.22
16.072,-0.3012,0.66373,-0.029297,1.051,0.94118,43.025
16.08,-0.3012,0.65103,-0.039062,1.0471,0.94118,42.829
16.088,-0.3012,0.63636,-0.025391,1.051,0.93137,42.634
16.096,-0.3012,0.61779,-0.025391,1.0471,0.93725,42.438
16.104,-0.3012,0.59824,-0.0097656,1.0471,0.92549,42.243
16.112,-0.30422,0.57771,-0.019531,1.0471,0.93137,42.047
16.12,-0.30422,0.55621,0,1.0471,0.91569,41.656
16.128,-0.30422,0.53666,-0.0039062,1.0471,0.92157,41.46
16.136,-0.30422,0.51808,0.0097656,1.0471,0.91176,41.069
16.144,-0.30422,0.49853,0.0058594,1.0569,0.91569,40.678
16.152,-0.30422,0.47898,0.015625,1.051,0.91176,40.287
16.16,-0.3012,0.45943,0.019531,1.0667,0.90588,39.896
16.168,-0.3012,0.44086,0.03125,1.0608,0.89608,39.505
16.176,-0.3012,0.42424,0.019531,1.0725,0.90196,39.113
16.184,-0.29819,0.40958,0.041016,1.0765,0.8902,38.722
16.192,-0.29819,0.39589,0.044922,1.0824,0.8902,38.527
16.2,-0.29518,0.38416,0.044922,1.0765,0.8902,38.136
16.208,-0.29518,0.37341,0.054688,1.0725,0.88627,37.94
16.216,-0.29217,0.36559,0.044922,1.0569,0.8902,37.744
16.224,-0.28916,0.35875,0.060547,1.0471,0.87647,37.744
16.232,-0.28614,0.35386,0.050781,1.0216,0.87059,38.136
16.24,-0.28614,0.35093,0.060547,1.0118,0.87647,39.113
16.248,-0.28313,0.348,0.041016,0.99216,0.88627,41.265
16.256,-0.28012,0.34604,0.035156,0.98627,0.88039,44.589
16.264,-0.27711,0.34409,0.019531,0.97059,0.8902,49.087
16.272,-0.27711,0.34409,0.015625,0.97059,0.8902,54.368
16.28,-0.2741,0.34311,0,0.96078,0.90196,59.648
16.288,-0.27108,0.34311,-0.0039062,0.95686,0.90196,64.537
16.296,-0.27108,0.34213,-0.019531,0.96078,0.91569,68.84
16.304,-0.26807,0.34213,-0.013672,0.95686,0.91176,72.36
16.312,-0.26807,0.34213,-0.035156,0.96667,0.92157,74.902
16.32,-0.26506,0.34115,-0.025391,0.96078,0.92157,76.467
16.328,-0.26506,0.34115,-0.039062,0.96667,0.92549,77.445
16.336,-0.26506,0.34115,-0.025391,0.96078,0.91569,77.64
16.344,-0.26506,0.34018,-0.035156,0.96667,0.92549,77.249
16.352,-0.26506,0.3392,-0.025391,0.95686,0.92157,76.662
16.36,-0.26506,0.33822,-0.029297,0.96078,0.92549,75.489
16.368,-0.26506,0.33724,-0.025391,0.95686,0.91569,74.316
16.376,-0.26506,0.33529,-0.029297,0.96078,0.91569,72.751
16.384,-0.26807,0.33333,-0.025391,0.95686,0.92157,70.991
16.392,-0.26807,0.3304,-0.029297,0.97059,0.91569,69.035
16.4,-0.26807,0.32747,-0.025391,0.96667,0.92157,67.08
16.408,-0.27108,0.32454,-0.019531,0.97059,0.91176,64.733
16.416,-0.27108,0.3216,-0.0039062,0.96667,0.91569,62.386
16.424,-0.2741,0.31769,0.015625,0.97647,0.8902,59.844
16.432,-0.2741,0.31378,0.019531,0.97647,0.88627,57.301
16.44,-0.27711,0.31085,0.041016,0.97647,0.87647,54.954
16.448,-0.27711,0.30694,0.03125,0.95686,0.87059,52.803
16.456,-0.27711,0.30303,0.041016,0.95098,0.86078,50.652
16.464,-0.28012,0.29912,0.019531,0.94118,0.87059,48.696
16.472,-0.28012,0.29521,0.019531,0.94118,0.87059,46.741
16.48,-0.28012,0.2913,0.019531,0.95098,0.87647,45.372
16.488,-0.28012,0.28641,0.03125,0.96667,0.86667,44.003
16.496,-0.27711,0.28348,-0.019531,0.97647,0.91176,43.025
16.504,-0.27711,0.28055,-0.054688,0.97059,0.93725,42.243
16.512,-0.27711,0.27859,-0.074219,0.97647,0.94706,41.656
16.52,-0.27711,0.27957,-0.074219,0.97059,0.94118,41.265
16.528,-0.27711,0.2825,-0.074219,0.97647,0.94706,41.069
16.536,-0.27711,0.28935,-0.074219,0.97059,0.94118,40.874
16.544,-0.27711,0.30108,-0.089844,0.97647,0.95686,40.874
16.552,-0.27711,0.31672,-0.080078,0.97647,0.95098,41.069
16.56,-0.27711,0.33822,-0.09375,0.98235,0.96078,41.069
16.568,-0.27711,0.36364,-0.074219,0.97647,0.94706,41.265
16.576,-0.27711,0.39296,-0.039062,0.93137,0.93137,41.46
16.584,-0.27711,0.42424,0.035156,0.84118,0.88039,41.656
16.592,-0.27711,0.4565,0.080078,0.7902,0.8451,42.047
16.6,-0.27711,0.49071,-0.058594,0.67059,0.86667,42.243
16.608,-0.27711,0.52297,-0.18945,0.56078,0.88627,42.438
16.616,-0.27711,0.55425,-0.27344,0.5549,0.96078,42.634
16.624,-0.27711,0.57967,-0.35352,0.83529,1.0824,42.634
16.632,-0.27711,0.6002,-0.24414,0.99608,1.102,42.829
16.64,-0.27711,0.6217,-0.11523,1.0314,0.98235,42.829
16.648,-0.27711,0.64027,-0.080078,1.051,0.96078,42.829
16.656,-0.27711,0.65591,-0.070312,1.0608,0.95686,42.829
16.664,-0.27711,0.66764,-0.054688,1.0608,0.96078,42.829
16.672,-0.27711,0.67546,-0.044922,1.0608,0.94118,42.829
16.68,-0.27711,0.67937,-0.048828,1.0608,0.94118,42.829
16.688,-0.27711,0.67937,-0.035156,1.0667,0.93137,42.634
16.696,-0.27711,0.67644,-0.044922,1.051,0.94118,42.634
16.704,-0.27711,0.66862,-0.025391,1.0569,0.92549,42.438
16.712,-0.27711,0.65885,-0.025391,1.051,0.92549,42.243
16.72,-0.27711,0.64516,-0.013672,1.051,0.92157,42.047
16.728,-0.27711,0.63148,-0.025391,1.0569,0.92549,41.656
16.736,-0.27711,0.61584,-0.013672,1.0569,0.91569,41.46
16.744,-0.27711,0.59726,-0.019531,1.051,0.91569,41.265
16.752,-0.27711,0.57674,0.0097656,1.0471,0.90588,40.874
16.76,-0.27711,0.55523,0.019531,1.0471,0.90196,40.678
16.768,-0.27711,0.53275,0.015625,1.0471,0.90588,40.287
16.776,-0.27711,0.51124,0.0058594,1.051,0.90196,39.896
16.784,-0.27711,0.48974,0.0097656,1.0569,0.91176,39.505
16.792,-0.27711,0.46921,0.0097656,1.0667,0.90588,39.113
16.8,-0.27711,0.44966,0.025391,1.0608,0.8902,38.722
16.808,-0.2741,0.43206,0.03125,1.0725,0.8902,38.331
16.816,-0.2741,0.41544,0.025391,1.0765,0.88627,37.94
16.824,-0.27108,0.40274,0.054688,1.0824,0.87647,37.549
16.832,-0.27108,0.39198,0.050781,1.0765,0.88039,37.158
16.84,-0.26807,0.38123,0.070312,1.0725,0.87059,36.962
16.848,-0.26807,0.37146,0.054688,1.0608,0.87647,36.767
16.856,-0.26506,0.36364,0.080078,1.051,0.85686,36.571
16.864,-0.26205,0.35679,0.070312,1.0314,0.86667,36.571
16.872,-0.25904,0.35191,0.080078,1.0216,0.85686,36.962
16.88,-0.25602,0.348,0.060547,0.99608,0.87059,38.136
16.888,-0.25602,0.34506,0.050781,0.99216,0.87059,40.287
16.896,-0.25301,0.34311,0.035156,0.97647,0.88627,43.612
16.904,-0.25,0.34213,0.041016,0.97647,0.87647,47.914
16.912,-0.24699,0.34213,0.015625,0.96667,0.8902,52.999
16.92,-0.24699,0.34115,0.0097656,0.96667,0.8902,58.083
16.928,-0.24398,0.34115,-0.0039062,0.96078,0.90588,62.973
16.936,-0.24096,0.34115,0,0.95686,0.90196,67.08
16.944,-0.24096,0.34115,-0.019531,0.96078,0.91569,70.6
16.952,-0.24096,0.34115,-0.0039062,0.95098,0.90196,73.142
16.96,-0.24096,0.34018,-0.013672,0.96078,0.91176,74.902
16.968,-0.24096,0.3392,-0.0097656,0.96667,0.90588,75.685
16.976,-0.24096,0.33822,-0.025391,0.97059,0.91569,76.076
16.984,-0.24096,0.33724,-0.013672,0.95686,0.91176,75.685
16.992,-0.24096,0.33627,-0.025391,0.96078,0.91176,75.098
17,-0.24096,0.33529,-0.019531,0.96667,0.91569,73.924
17.008,-0.24096,0.32845,-0.029297,0.96078,0.91569,72.751
17.016,-0.24096,0.31867,-0.025391,0.95686,0.92157,71.186
17.024,-0.24096,0.31281,-0.029297,0.96078,0.91569,69.231
17.032,-0.24096,0.30792,-0.035156,0.95098,0.92157,67.275
17.04,-0.24096,0.30303,-0.0097656,0.96667,0.91176,65.124
17.048,-0.24096,0.29717,-0.025391,0.97059,0.91569,62.777
17.056,-0.24096,0.2913,0.0097656,0.97647,0.8902,60.43
17.064,-0.23795,0.28641,0.015625,0.98235,0.8902,57.888
17.072,-0.23795,0.28152,0.025391,0.98627,0.88627,55.346
17.08,-0.23795,0.27664,0.041016,0.97059,0.87059,52.999
17.088,-0.23494,0.27175,0.041016,0.96078,0.86667,50.652
17.096,-0.23494,0.26686,0.03125,0.95098,0.86667,48.501
17.104,-0.23193,0.26197,0.035156,0.94118,0.87059,46.545
17.112,-0.23193,0.25611,0.015625,0.95098,0.88039,44.785
17.12,-0.22892,0.25024,0.025391,0.96078,0.87647,43.416
17.128,-0.22289,0.24633,0.015625,0.96667,0.8902,42.243
17.136,-0.21988,0.2434,-0.025391,0.97059,0.91569,41.265
17.144,-0.21687,0.24047,-0.054688,0.97059,0.94118,40.482
17.152,-0.21386,0.23754,-0.064453,0.97059,0.94706,39.896
17.16,-0.21084,0.23754,-0.070312,0.96667,0.94706,39.7
17.168,-0.20783,0.24047,-0.048828,0.96078,0.93725,39.505
17.176,-0.20482,0.24829,-0.074219,0.97647,0.95098,39.505
17.184,-0.1988,0.261,-0.064453,0.97059,0.95686,39.505
17.192,-0.19578,0.27957,-0.064453,0.97647,0.94706,39.7
17.2,-0.18976,0.30303,-0.070312,0.97647,0.94118,39.896
17.208,-0.18373,0.33236,-0.029297,0.94706,0.93137,40.091
17.216,-0.18072,0.36657,0.035156,0.89608,0.89608,40.482
17.224,-0.1747,0.39687,0.089844,0.81569,0.85098,40.874
17.232,-0.16867,0.42717,-0.013672,0.82157,0.87059,41.069
17.24,-0.16265,0.46139,-0.10938,0.6549,0.88627,41.46
17.248,-0.15663,0.49658,-0.16406,0.5902,0.90196,41.46
17.256,-0.15361,0.53177,-0.26367,0.71569,1.0157,41.656
17.264,-0.14759,0.56598,-0.31445,0.91569,1.0922,41.656
17.272,-0.14157,0.59726,-0.16016,1.002,1.0157,41.851
17.28,-0.13554,0.62463,-0.070312,1.0275,0.96667,41.851
17.288,-0.12952,0.64809,-0.048828,1.0471,0.95686,41.851
17.296,-0.12349,0.66764,-0.054688,1.0569,0.96078,41.851
17.304,-0.11747,0.68231,-0.025391,1.0569,0.94118,42.047
17.312,-0.11446,0.6911,-0.039062,1.0471,0.94706,41.851
17.32,-0.10843,0.69599,-0.025391,1.0471,0.94118,41.851
17.328,-0.10241,0.69599,-0.025391,1.051,0.93725,41.851
17.336,-0.096386,0.6911,-0.013672,1.0471,0.92549,41.656
17.344,-0.090361,0.68328,-0.025391,1.051,0.93137,41.46
17.352,-0.084337,0.67058,0,1.0412,0.91569,41.46
17.36,-0.075301,0.65494,-0.013672,1.0471,0.92157,41.265
17.368,-0.069277,0.63636,0,1.0373,0.91569,41.069
17.376,-0.063253,0.61486,0,1.0471,0.91569,40.874
17.384,-0.057229,0.5914,0.015625,1.0314,0.90588,40.678
17.392,-0.048193,0.56598,0.0058594,1.0471,0.91569,40.482
17.4,-0.045181,0.53959,0.015625,1.0471,0.91176,40.287
17.408,-0.039157,0.5132,-0.0039062,1.051,0.91569,40.091
17.416,-0.033133,0.48778,0.0097656,1.0471,0.90588,39.7
17.424,-0.027108,0.4653,0.019531,1.051,0.89608,39.309
17.432,-0.021084,0.44477,0.035156,1.0471,0.90196,38.918
17.44,-0.01506,0.42326,0.044922,1.051,0.8902,38.527
17.448,-0.0090361,0.40176,0.054688,1.051,0.88039,38.136
17.456,-0.0030121,0.38221,0.070312,1.0608,0.87647,37.744
17.464,0.0030121,0.36461,0.064453,1.0569,0.86667,37.353
17.472,0.0090361,0.34897,0.080078,1.0608,0.86667,36.962
17.48,0.01506,0.33529,0.076172,1.0471,0.86667,36.767
17.488,0.021084,0.32454,0.089844,1.0412,0.86078,36.571
17.496,0.03012,0.31476,0.076172,1.0216,0.86667,36.571
17.504,0.036145,0.30792,0.080078,1.0118,0.86078,36.767
17.512,0.045181,0.30205,0.070312,0.99216,0.87059,37.353
17.52,0.054217,0.29717,0.064453,0.98627,0.86667,38.918
17.528,0.063253,0.29521,0.044922,0.97059,0.87647,41.656
17.536,0.075301,0.29423,0.044922,0.96667,0.88039,45.567
17.544,0.084337,0.29228,0.019531,0.96078,0.8902,50.456
17.552,0.093373,0.2913,0.015625,0.96667,0.8902,55.737
17.56,0.10241,0.2913,0,0.96078,0.91176,61.017
17.568,0.11145,0.2913,0,0.96078,0.91176,65.906
17.576,0.11747,0.29032,-0.025391,0.96667,0.92549,70.209
17.584,0.12651,0.28935,-0.019531,0.95686,0.92549,73.533
17.592,0.13253,0.28935,-0.039062,0.96667,0.93725,76.076
17.6,0.14157,0.28837,-0.035156,0.95686,0.94118,77.64
17.608,0.1506,0.28739,-0.048828,0.96078,0.94118,78.422
17.616,0.15663,0.28641,-0.039062,0.95098,0.93137,78.422
