Time [s], RESP, PLETH, II, V, AVR, CVP, ART
0,0.087977,0.30303,0.44951,0.61914,0.72157,10.717,101.11
0.008,0.086022,0.29814,0.44951,0.625,0.72157,10.756,99.153
0.016,0.084066,0.29326,0.44951,0.625,0.72549,10.834,97.393
0.024,0.082111,0.28837,0.44951,0.625,0.72549,10.874,95.632
0.032,0.079179,0.28446,0.44458,0.62891,0.72549,10.952,93.872
0.04,0.076246,0.28152,0.44951,0.63477,0.72157,11.03,91.917
0.048,0.073314,0.27859,0.44951,0.63477,0.72157,11.069,90.157
0.056,0.071359,0.27468,0.44951,0.63477,0.72157,11.147,87.81
0.064,0.068426,0.26979,0.44458,0.63477,0.72549,11.265,85.463
0.072,0.066471,0.26393,0.43966,0.62891,0.72157,11.343,82.921
0.08,0.064516,0.25806,0.43966,0.62891,0.72549,11.499,80.574
0.088,0.063539,0.25611,0.44951,0.62891,0.72157,11.656,78.422
0.096,0.062561,0.25904,0.46059,0.64062,0.7098,11.812,76.662
0.104,0.061584,0.27175,0.4803,0.6543,0.69608,11.969,74.902
0.112,0.060606,0.29521,0.49507,0.66406,0.6902,12.086,73.729
0.12,0.059629,0.32942,0.50985,0.67578,0.67647,12.125,72.555
0.128,0.059629,0.37341,0.54557,0.68945,0.6549,12.203,71.773
0.136,0.059629,0.42522,0.56527,0.68555,0.64118,12.203,70.991
0.144,0.060606,0.47116,0.5702,0.66406,0.62941,12.086,70.404
0.152,0.061584,0.51417,0.56527,0.6543,0.62941,12.008,70.209
0.16,0.063539,0.55914,0.54557,0.64062,0.64118,11.969,70.209
0.168,0.065494,0.6002,0.51478,0.62891,0.66471,11.89,70.209
0.176,0.067449,0.63539,0.4803,0.61914,0.6902,11.812,70.404
0.184,0.070381,0.66373,0.44458,0.61523,0.72157,11.89,70.795
0.192,0.072336,0.68622,0.41995,0.60938,0.74118,11.89,71.382
0.2,0.074291,0.70381,0.4101,0.60547,0.7451,11.969,71.773
0.208,0.077224,0.71652,0.40517,0.60547,0.7451,12.008,71.773
0.216,0.079179,0.72532,0.40517,0.59961,0.75098,12.086,71.382
0.224,0.082111,0.73118,0.40517,0.59961,0.75098,12.086,70.795
0.232,0.084066,0.73314,0.4101,0.59961,0.75098,12.125,70.404
0.24,0.086999,0.73314,0.4101,0.59961,0.75098,12.125,70.209
0.248,0.088954,0.73021,0.4101,0.60547,0.75098,12.125,70.209
0.256,0.091887,0.7263,0.42488,0.61523,0.74118,12.125,70.209
0.264,0.093842,0.72043,0.46552,0.61914,0.69608,12.203,70.013
0.272,0.095797,0.71359,0.57512,0.59961,0.5902,12.321,69.622
0.28,0.098729,0.70479,0.7697,0.57422,0.40392,12.438,69.035
0.288,0.10068,0.69501,0.97537,0.5,0.2098,12.634,68.644
0.296,0.10264,0.68524,1.0099,0.39062,0.15882,12.829,68.057
0.304,0.10459,0.67351,0.75,0.33984,0.37059,13.025,67.471
0.312,0.10753,0.6608,0.50493,0.39453,0.61569,13.142,66.884
0.32,0.10948,0.64614,0.38547,0.49414,0.7451,13.259,66.297
0.328,0.11144,0.6305,0.36946,0.57031,0.77647,13.338,65.906
0.336,0.11437,0.61388,0.38054,0.61523,0.77647,13.455,65.319
0.344,0.1173,0.59726,0.39039,0.63477,0.77647,13.494,64.733
0.352,0.12023,0.58065,0.39532,0.64062,0.77059,13.494,64.342
0.36,0.12317,0.56207,0.39532,0.64453,0.77059,13.494,63.755
0.368,0.1261,0.54252,0.40025,0.6543,0.76667,13.455,63.364
0.376,0.12805,0.52395,0.4101,0.6543,0.76078,13.377,62.973
0.384,0.13099,0.50538,0.41502,0.6543,0.7549,13.259,62.386
0.392,0.13392,0.48778,0.41995,0.66016,0.75098,13.181,61.995
0.4,0.13587,0.47312,0.4298,0.66016,0.7451,13.142,61.604
0.408,0.13881,0.46041,0.43473,0.66016,0.74118,13.064,61.213
0.416,0.14174,0.44868,0.44458,0.66406,0.73529,12.947,60.821
0.424,0.14565,0.43988,0.45443,0.66992,0.73137,12.907,60.43
0.432,0.14858,0.43304,0.46059,0.66992,0.72157,12.907,60.039
0.44,0.15152,0.42815,0.47044,0.67578,0.71569,12.947,59.648
0.448,0.15445,0.42522,0.4803,0.67969,0.70588,13.025,59.061
0.456,0.15836,0.42229,0.5,0.68555,0.6902,13.025,58.67
0.464,0.16129,0.41935,0.5197,0.68945,0.67647,12.947,58.279
0.472,0.1652,0.4174,0.54557,0.69531,0.6549,12.751,57.888
0.48,0.16813,0.41544,0.57512,0.70508,0.63529,12.516,57.888
0.488,0.17204,0.41349,0.60468,0.70898,0.60588,12.321,58.475
0.496,0.17693,0.41056,0.63054,0.70898,0.58431,12.125,60.43
0.504,0.18084,0.40762,0.65025,0.70898,0.56471,11.969,64.146
0.512,0.18573,0.40469,0.6601,0.70898,0.5549,11.812,69.622
0.52,0.19062,0.40176,0.66502,0.70508,0.5549,11.695,76.076
0.528,0.1955,0.39785,0.64532,0.69922,0.56471,11.695,83.116
0.536,0.20039,0.39394,0.61946,0.68945,0.58431,11.656,90.352
0.544,0.2043,0.39003,0.58005,0.68555,0.61961,11.578,97.393
0.552,0.20821,0.38612,0.54557,0.67969,0.65098,11.46,103.85
0.56,0.21114,0.38221,0.51478,0.66992,0.67647,11.343,109.13
0.568,0.21505,0.37634,0.4803,0.66016,0.7,11.069,113.04
0.576,0.21701,0.37146,0.45443,0.64453,0.72157,10.874,115.38
0.584,0.21896,0.36559,0.43966,0.63477,0.73529,10.717,116.75
0.592,0.21994,0.35973,0.4298,0.62891,0.74118,10.561,116.95
0.6,0.21994,0.35386,0.42488,0.62891,0.74118,10.561,116.36
0.608,0.21896,0.348,0.42488,0.62891,0.7451,10.561,115.19
0.616,0.21799,0.34213,0.42488,0.62891,0.7451,10.639,113.62
0.624,0.21603,0.33627,0.42488,0.62891,0.7451,10.717,111.86
0.632,0.21408,0.3304,0.42488,0.625,0.74118,10.756,109.91
0.64,0.21114,0.32551,0.4298,0.62891,0.74118,10.834,107.95
0.648,0.20919,0.32258,0.43473,0.63477,0.73529,10.834,106
0.656,0.20528,0.31769,0.43966,0.63477,0.73529,10.834,104.24
0.664,0.20137,0.31281,0.44458,0.63477,0.73137,10.834,102.28
0.672,0.19648,0.30792,0.44951,0.63477,0.73137,10.834,100.52
0.68,0.19159,0.30303,0.44951,0.63477,0.73137,10.834,98.761
0.688,0.18768,0.29814,0.44951,0.63477,0.73137,10.874,97.001
0.696,0.1828,0.29423,0.44951,0.64062,0.72549,10.952,95.241
0.704,0.17889,0.28935,0.45443,0.64062,0.72549,11.03,93.481
0.712,0.17498,0.28446,0.45443,0.64453,0.72157,11.147,91.525
0.72,0.17204,0.27957,0.45443,0.64453,0.72157,11.343,89.374
0.728,0.16911,0.2737,0.45443,0.64453,0.72157,11.499,87.027
0.736,0.16716,0.26784,0.45443,0.64062,0.72157,11.773,84.681
0.744,0.1652,0.26393,0.45443,0.64062,0.72157,11.969,82.138
0.752,0.1652,0.261,0.45443,0.64062,0.72157,12.086,79.791
0.76,0.1652,0.26197,0.46552,0.64453,0.71569,12.203,77.64
0.768,0.16716,0.26882,0.4803,0.66016,0.70588,12.282,75.88
0.776,0.16911,0.28446,0.49507,0.66992,0.69608,12.282,74.511
0.784,0.17204,0.31183,0.50493,0.66992,0.68627,12.282,73.142
0.792,0.17498,0.34897,0.53448,0.68555,0.66471,12.282,71.969
0.8,0.17889,0.39589,0.56527,0.69922,0.6451,12.321,70.991
0.808,0.18377,0.44868,0.57512,0.68945,0.63529,12.399,70.404
0.816,0.19159,0.50147,0.5702,0.67578,0.62941,12.516,70.209
0.824,0.19941,0.55132,0.56034,0.66406,0.63529,12.634,70.209
0.832,0.20919,0.59629,0.53941,0.6543,0.65098,12.712,70.209
0.84,0.21994,0.6305,0.51478,0.64062,0.67647,12.712,70.209
0.848,0.23069,0.65591,0.4803,0.62891,0.70588,12.634,70.404
0.856,0.24145,0.67937,0.44951,0.625,0.72157,12.516,70.795
0.864,0.25318,0.69795,0.43473,0.61914,0.73137,12.438,71.382
0.872,0.26491,0.71261,0.42488,0.61914,0.73529,12.438,71.773
0.88,0.27957,0.72434,0.41995,0.61523,0.74118,12.438,71.773
0.888,0.29423,0.73216,0.41995,0.61523,0.74118,12.516,71.382
0.896,0.31281,0.73607,0.41995,0.61523,0.73529,12.595,70.795
0.904,0.3304,0.73803,0.42488,0.61523,0.73529,12.634,70.404
0.912,0.35093,0.73803,0.42488,0.61523,0.73529,12.751,70.209
0.92,0.37146,0.73509,0.4298,0.61914,0.73529,12.829,70.209
0.928,0.39296,0.73021,0.46059,0.63477,0.7098,12.947,70.013
0.936,0.41544,0.72434,0.52956,0.61914,0.6451,13.064,69.818
0.944,0.43597,0.7175,0.68473,0.59961,0.50588,13.142,69.426
0.952,0.4565,0.70968,0.9101,0.56055,0.3098,13.259,69.035
0.96,0.47605,0.6999,1.0505,0.46094,0.16863,13.377,68.449
0.968,0.4956,0.69013,0.92488,0.35547,0.24902,13.494,68.057
0.976,0.51808,0.6784,0.64532,0.33984,0.4902,13.651,67.471
0.984,0.54057,0.66569,0.44458,0.43945,0.68627,13.885,66.884
0.992,0.56598,0.65103,0.38547,0.53906,0.7549,14.081,66.493
1,0.59042,0.63441,0.38547,0.60547,0.76667,14.276,65.906
1.008,0.6129,0.61681,0.39532,0.63477,0.76667,14.315,65.515
1.016,0.63539,0.59824,0.40025,0.64453,0.76667,14.276,65.124
1.024,0.65689,0.57771,0.4101,0.6543,0.76078,14.198,64.537
1.032,0.67742,0.55718,0.41502,0.66016,0.7549,14.12,64.146
1.04,0.70088,0.53959,0.41995,0.66016,0.75098,14.12,63.755
1.048,0.72336,0.52297,0.4298,0.66406,0.7451,14.12,63.364
1.056,0.74878,0.50635,0.43473,0.66406,0.74118,14.198,62.973
1.064,0.77322,0.48974,0.44458,0.66992,0.73529,14.276,62.386
1.072,0.79863,0.47507,0.45443,0.66992,0.73137,14.315,61.995
1.08,0.82502,0.46334,0.46059,0.66992,0.72157,14.394,61.604
1.088,0.85044,0.45259,0.47537,0.67578,0.71569,14.511,61.213
1.096,0.87683,0.44379,0.48522,0.67969,0.70588,14.589,60.821
1.104,0.89932,0.43695,0.49507,0.67969,0.7,14.589,60.43
1.112,0.92278,0.43206,0.5,0.68555,0.6902,14.511,60.039
1.12,0.94428,0.42815,0.51478,0.68945,0.68627,14.315,59.648
1.128,0.96579,0.42522,0.52956,0.69531,0.67059,14.12,59.257
1.136,0.98338,0.42229,0.55049,0.69922,0.65098,14.003,58.866
1.144,1,0.42033,0.58005,0.70508,0.63529,13.885,58.67
1.152,1,0.41838,0.60468,0.70898,0.61569,13.963,58.866
1.16,1,0.41642,0.63547,0.71484,0.5902,13.963,60.43
1.168,1,0.41447,0.66502,0.72461,0.57059,14.003,63.755
1.176,1,0.41153,0.6798,0.72461,0.56078,14.081,69.622
1.184,1,0.4086,0.68473,0.7207,0.5549,14.081,77.054
1.192,1,0.40469,0.67488,0.71484,0.5549,14.003,85.267
1.2,1,0.40078,0.65025,0.70898,0.57059,13.963,93.677
1.208,1,0.39687,0.61946,0.70508,0.59608,13.885,101.89
1.216,1,0.39198,0.58498,0.68945,0.62549,13.885,108.93
1.224,1,0.3871,0.54557,0.67969,0.65098,13.963,114.6
1.232,1,0.38221,0.50985,0.66992,0.68039,14.081,118.51
1.24,1,0.3783,0.4803,0.66406,0.7,14.12,120.67
1.248,1,0.37439,0.46059,0.6543,0.71569,14.12,121.45
1.256,1,0.3695,0.44951,0.64453,0.72157,14.12,121.06
1.264,1,0.36364,0.43966,0.64062,0.73137,14.198,119.69
1.272,1,0.35875,0.43473,0.64062,0.73137,14.198,118.12
1.28,1,0.35288,0.43473,0.63477,0.73137,14.315,115.97
1.288,1,0.348,0.43473,0.63477,0.73137,14.433,113.82
1.296,1,0.34213,0.43473,0.63477,0.73137,14.511,111.86
1.304,1,0.33724,0.43966,0.63477,0.72549,14.589,109.52
1.312,1,0.33236,0.43966,0.63477,0.72549,14.628,107.56
1.32,1,0.32747,0.44458,0.63477,0.72157,14.746,105.41
1.328,1,0.32258,0.44951,0.63477,0.72157,14.824,103.26
1.336,1,0.31769,0.45443,0.64062,0.72157,14.941,101.11
1.344,1,0.31378,0.45443,0.64062,0.72157,14.941,99.544
1.352,1,0.31085,0.44951,0.64062,0.72157,15.02,97.979
1.36,1,0.30792,0.44951,0.64062,0.72157,14.941,96.415
1.368,1,0.30401,0.44951,0.64062,0.72157,14.941,94.85
1.376,1,0.3001,0.44951,0.64062,0.72157,14.941,93.09
1.384,1,0.29619,0.44458,0.64062,0.72157,15.02,91.134
1.392,1,0.29032,0.43966,0.64453,0.72157,15.059,88.983
1.4,1,0.28446,0.43966,0.64062,0.72549,15.137,86.636
1.408,1,0.27859,0.43966,0.64062,0.72549,15.215,84.094
1.416,1,0.2737,0.43473,0.64062,0.72549,15.254,81.747
1.424,1,0.2737,0.43966,0.64062,0.72157,15.254,79.596
1.432,1,0.28055,0.44951,0.64453,0.71569,15.332,77.64
1.44,1,0.29423,0.46552,0.66016,0.70588,15.372,75.88
1.448,1,0.31672,0.47537,0.66406,0.70588,15.45,74.707
1.456,1,0.35191,0.48522,0.66992,0.7,15.45,73.533
1.464,1,0.39785,0.50985,0.68945,0.68039,15.528,72.947
1.472,1,0.45161,0.53941,0.69922,0.66078,15.45,72.164
1.48,1,0.50733,0.55049,0.67969,0.65098,15.372,71.578
1.488,1,0.56109,0.54557,0.66016,0.6451,15.254,70.991
1.496,1,0.60899,0.53941,0.6543,0.6451,15.059,70.991
1.504,1,0.65005,0.5197,0.64062,0.66078,14.902,71.382
1.512,1,0.68328,0.49015,0.62891,0.68039,14.707,71.969
1.52,1,0.7087,0.45443,0.61914,0.7098,14.589,72.164
1.528,1,0.72727,0.42488,0.61523,0.73137,14.433,72.164
1.536,1,0.74096,0.4101,0.61523,0.74118,14.315,72.164
1.544,1,0.74878,0.40025,0.60938,0.75098,14.276,72.164
1.552,1,0.75367,0.39532,0.60547,0.75098,14.12,71.969
1.56,1,0.75562,0.39532,0.60547,0.75098,14.081,71.578
1.568,1,0.7566,0.39532,0.60938,0.75098,13.963,70.795
1.576,1,0.75464,0.39532,0.60547,0.75098,13.807,70.404
1.584,1,0.75171,0.39532,0.60547,0.75098,13.651,70.209
1.592,1,0.74585,0.40025,0.61914,0.7451,13.494,70.013
1.6,1,0.739,0.43966,0.61914,0.71569,13.377,69.818
1.608,1,0.73118,0.52956,0.60547,0.62941,13.377,69.231
1.616,1,0.72239,0.69951,0.58984,0.46471,13.455,68.644
1.624,1,0.71163,0.92488,0.5293,0.26471,13.572,68.057
1.632,1,0.70088,1.0049,0.42578,0.16863,13.69,67.471
1.64,1,0.68915,0.8202,0.34961,0.3098,13.885,66.884
1.648,1,0.67742,0.55049,0.375,0.56471,14.081,66.297
1.656,1,0.66373,0.39532,0.47461,0.72549,14.12,65.711
1.664,1,0.64907,0.34975,0.56055,0.77647,14.081,65.319
1.672,1,0.63148,0.35468,0.60938,0.78039,13.963,64.733
1.68,1,0.61388,0.35961,0.62891,0.78039,13.807,64.342
1.688,1,0.59433,0.36453,0.64062,0.78627,13.768,63.755
1.696,1,0.5738,0.36453,0.64453,0.78039,13.768,63.364
1.704,1,0.55327,0.37562,0.65039,0.77647,13.768,62.973
1.712,0.98827,0.53372,0.38547,0.6543,0.76667,13.768,62.386
1.72,0.97654,0.51417,0.39039,0.6543,0.76078,13.768,61.995
1.728,0.95992,0.49756,0.40025,0.6543,0.76078,13.69,61.408
1.736,0.9433,0.48289,0.4101,0.66016,0.7549,13.572,61.017
1.744,0.92864,0.47214,0.41502,0.66016,0.75098,13.338,60.626
1.752,0.91398,0.46041,0.42488,0.66406,0.74118,13.064,60.235
1.76,0.90127,0.45064,0.43473,0.66406,0.73529,12.947,59.844
1.768,0.88759,0.44282,0.44458,0.66406,0.73137,12.947,59.648
1.776,0.87488,0.43597,0.45443,0.66406,0.72157,12.947,59.257
1.784,0.86119,0.43109,0.46552,0.66992,0.7098,13.025,58.866
1.792,0.84848,0.4262,0.4803,0.67969,0.69608,13.064,58.279
1.8,0.8348,0.42326,0.5,0.68555,0.68627,13.064,58.083
1.808,0.82307,0.42033,0.52463,0.68945,0.66471,12.947,57.692
1.816,0.81134,0.4174,0.55049,0.69531,0.64118,12.829,57.497
1.824,0.80156,0.41447,0.58005,0.69922,0.61569,12.634,57.888
1.832,0.79081,0.41056,0.60961,0.69922,0.59608,12.438,59.648
1.84,0.78006,0.40762,0.63054,0.69922,0.57451,12.282,62.973
1.848,0.76833,0.40469,0.65025,0.69922,0.56078,12.086,68.84
1.856,0.7566,0.40078,0.65517,0.68945,0.5549,11.969,76.076
1.864,0.74585,0.39589,0.64039,0.68945,0.56078,11.89,84.094
1.872,0.73314,0.39101,0.61946,0.68555,0.58039,11.773,92.112
1.88,0.72141,0.38514,0.58498,0.67969,0.6098,11.695,99.739
1.888,0.70968,0.37928,0.54557,0.66992,0.64118,11.656,106.78
1.896,0.69697,0.37243,0.50985,0.66016,0.67059,11.656,112.26
1.904,0.68524,0.36559,0.47537,0.6543,0.69608,11.578,116.17
1.912,0.67351,0.35875,0.44458,0.64062,0.71569,11.499,118.32
1.92,0.66178,0.35191,0.42488,0.63477,0.73137,11.343,119.1
1.928,0.65005,0.34506,0.41502,0.625,0.74118,11.147,118.9
1.936,0.63636,0.34018,0.4101,0.61914,0.7451,11.03,117.93
1.944,0.62268,0.33529,0.40517,0.61914,0.7451,10.874,116.17
1.952,0.60802,0.3304,0.40517,0.61914,0.74118,10.874,114.21
1.96,0.59238,0.32454,0.4101,0.61523,0.74118,10.874,112.26
1.968,0.57771,0.31965,0.4101,0.61523,0.74118,10.874,110.1
1.976,0.56305,0.31378,0.4101,0.61523,0.74118,10.952,107.95
1.984,0.54839,0.30792,0.41502,0.61914,0.73529,11.069,105.8
1.992,0.53372,0.30303,0.41995,0.61914,0.73529,11.186,103.65
2,0.51613,0.29717,0.41995,0.61914,0.73529,11.265,101.5
2.008,0.49756,0.2913,0.42488,0.625,0.73137,11.265,99.739
2.016,0.47703,0.28641,0.4298,0.625,0.73137,11.186,98.37
2.024,0.4565,0.28152,0.4298,0.625,0.73137,11.147,97.001
2.032,0.435,0.27664,0.4298,0.625,0.73137,11.147,95.437
2.04,0.41349,0.27273,0.43473,0.625,0.73137,11.265,93.677
2.048,0.39101,0.27077,0.43473,0.625,0.73137,11.382,91.917
2.056,0.36852,0.26686,0.4298,0.625,0.73137,11.499,89.961
2.064,0.34897,0.26295,0.4298,0.625,0.73137,11.773,87.614
2.072,0.32942,0.25709,0.4298,0.625,0.73137,11.969,85.267
2.08,0.31085,0.25122,0.4298,0.61914,0.73137,12.086,82.725
2.088,0.29326,0.24633,0.4298,0.61914,0.73137,12.203,80.378
2.096,0.27664,0.24633,0.43473,0.61914,0.72549,12.282,78.227
2.104,0.26002,0.2522,0.44951,0.63477,0.7098,12.282,76.467
2.112,0.24438,0.26979,0.46552,0.64453,0.7,12.321,74.902
2.12,0.22874,0.29814,0.4803,0.65039,0.6902,12.321,73.533
2.128,0.21505,0.3392,0.5,0.66016,0.67647,12.282,72.555
2.136,0.20235,0.38221,0.53448,0.67969,0.65098,12.282,71.578
2.144,0.19062,0.42717,0.56034,0.67969,0.64118,12.282,70.795
2.152,0.17889,0.47898,0.55542,0.66016,0.62941,12.282,70.404
2.16,0.16911,0.53275,0.55049,0.64453,0.62941,12.321,70.209
2.168,0.15934,0.5826,0.52956,0.63477,0.64118,12.399,70.209
2.176,0.15054,0.62463,0.50493,0.625,0.66471,12.399,70.209
2.184,0.14272,0.65885,0.47044,0.60938,0.6902,12.321,70.209
2.192,0.1349,0.68622,0.4298,0.60547,0.71569,12.203,70.209
2.2,0.12708,0.70577,0.41502,0.59961,0.73529,12.086,70.209
2.208,0.12023,0.72043,0.40517,0.59961,0.74118,12.008,70.209
2.216,0.11339,0.73118,0.39532,0.59961,0.75098,11.969,70.209
2.224,0.1085,0.73803,0.39532,0.59961,0.75098,11.969,70.209
2.232,0.10362,0.74096,0.39532,0.5957,0.75098,11.969,70.209
2.24,0.098729,0.74096,0.39532,0.5957,0.75098,12.008,70.209
2.248,0.094819,0.739,0.39532,0.59961,0.75098,12.125,70.209
2.256,0.090909,0.73509,0.40025,0.59961,0.75098,12.282,70.209
2.264,0.086999,0.73021,0.41502,0.60938,0.73529,12.399,70.013
2.272,0.083089,0.72434,0.46552,0.60547,0.68627,12.516,69.818
2.28,0.080156,0.71652,0.58498,0.58984,0.57059,12.595,69.231
2.288,0.076246,0.70772,0.79557,0.56445,0.38039,12.634,68.84
2.296,0.073314,0.69892,0.98522,0.48047,0.18824,12.712,68.253
2.304,0.070381,0.68817,1.0049,0.37109,0.15882,12.829,67.862
2.312,0.067449,0.67644,0.69458,0.33594,0.4098,12.947,67.275
2.32,0.063539,0.66373,0.46059,0.40039,0.6451,13.064,66.688
2.328,0.060606,0.64907,0.35961,0.5,0.7549,13.181,66.297
2.336,0.057674,0.63539,0.34975,0.57031,0.78039,13.259,65.711
2.344,0.053763,0.62072,0.35961,0.60938,0.78039,13.338,65.319
2.352,0.049853,0.60313,0.36453,0.625,0.78039,13.455,64.733
2.36,0.045943,0.58456,0.37562,0.62891,0.78039,13.494,64.342
2.368,0.042033,0.56403,0.38054,0.63477,0.77647,13.455,63.755
2.376,0.037146,0.54448,0.38547,0.63477,0.77059,13.377,63.168
2.384,0.034213,0.52493,0.39532,0.64062,0.76667,13.338,62.777
2.392,0.030303,0.50635,0.40025,0.64453,0.76078,13.181,62.19
2.4,0.02737,0.48876,0.4101,0.64453,0.7549,13.064,61.799
2.408,0.024438,0.4741,0.41995,0.65039,0.75098,12.907,61.408
2.416,0.022483,0.46041,0.4298,0.6543,0.74118,12.751,60.821
2.424,0.020528,0.44966,0.43473,0.6543,0.74118,12.634,60.43
2.432,0.01955,0.43988,0.43966,0.66016,0.73137,12.634,60.039
2.44,0.018573,0.43304,0.45443,0.66016,0.72157,12.712,59.844
2.448,0.017595,0.42815,0.46552,0.66406,0.7098,12.751,59.257
2.456,0.017595,0.42424,0.4803,0.66406,0.7,12.829,58.866
2.464,0.017595,0.42033,0.5,0.66992,0.68627,12.751,58.475
2.472,0.017595,0.4174,0.5197,0.67969,0.67059,12.634,58.083
2.48,0.018573,0.41447,0.54557,0.68555,0.65098,12.438,57.692
2.488,0.01955,0.41251,0.57512,0.68945,0.62549,12.282,57.692
2.496,0.020528,0.40958,0.60468,0.69531,0.6,12.086,58.475
2.504,0.022483,0.40762,0.63054,0.69922,0.57451,11.89,60.626
2.512,0.024438,0.40469,0.65025,0.69922,0.56078,11.773,64.537
2.52,0.02737,0.40176,0.6601,0.69922,0.55098,11.578,70.209
2.528,0.030303,0.39785,0.66502,0.68945,0.5451,11.46,77.054
2.536,0.033236,0.39492,0.64532,0.68555,0.56078,11.265,84.485
2.544,0.037146,0.39198,0.61946,0.67969,0.58039,11.186,91.917
2.552,0.040078,0.38807,0.58498,0.66992,0.6098,11.147,98.957
2.56,0.043011,0.38319,0.53941,0.66406,0.64118,11.03,105.41
2.568,0.045943,0.3783,0.50493,0.6543,0.67059,10.874,110.3
2.576,0.048876,0.37341,0.47537,0.64453,0.69608,10.717,114.02
2.584,0.050831,0.36755,0.44951,0.63477,0.7098,10.521,116.17
2.592,0.052786,0.36266,0.43473,0.625,0.72157,10.404,117.14
2.6,0.055718,0.35679,0.4298,0.61914,0.73137,10.248,117.14
2.608,0.056696,0.35093,0.42488,0.61523,0.73529,10.209,116.36
2.616,0.058651,0.34506,0.42488,0.61523,0.73529,10.13,115.19
2.624,0.059629,0.3392,0.42488,0.61523,0.73529,10.13,113.82
2.632,0.060606,0.33333,0.4298,0.61523,0.73529,10.13,112.06
2.64,0.059629,0.32845,0.42488,0.61523,0.73529,10.209,110.1
2.648,0.059629,0.32454,0.42488,0.61523,0.73529,10.209,108.15
2.656,0.056696,0.31965,0.4298,0.61914,0.73137,10.248,105.8
2.664,0.053763,0.31476,0.43473,0.61914,0.73137,10.248,103.65
2.672,0.049853,0.3089,0.43966,0.625,0.72549,10.326,101.5
2.68,0.046921,0.30401,0.43966,0.625,0.72549,10.326,99.544
2.688,0.043011,0.29912,0.43966,0.62891,0.72549,10.404,97.979
2.696,0.039101,0.29423,0.43966,0.62891,0.72157,10.443,96.415
2.704,0.035191,0.28935,0.43966,0.63477,0.72157,10.521,94.655
2.712,0.031281,0.28543,0.43966,0.62891,0.72549,10.639,92.699
2.72,0.02737,0.2825,0.43966,0.62891,0.72549,10.756,90.743
2.728,0.02346,0.27957,0.43473,0.62891,0.73137,10.952,88.396
2.736,0.020528,0.27761,0.43473,0.62891,0.73137,11.069,86.05
2.744,0.017595,0.2737,0.43966,0.62891,0.73137,11.186,83.507
2.752,0.014663,0.26979,0.43966,0.62891,0.73137,11.343,81.16
2.76,0.012708,0.26588,0.43966,0.62891,0.72549,11.499,78.618
2.768,0.010753,0.26491,0.44951,0.63477,0.71569,11.656,76.662
2.776,0.0097752,0.27175,0.47044,0.64453,0.7,11.695,74.902
2.784,0.0087977,0.28739,0.48522,0.6543,0.6902,11.773,73.338
2.792,0.0078201,0.31476,0.49507,0.66406,0.68627,11.773,72.164
2.8,0.0078201,0.35288,0.5197,0.67969,0.66471,11.812,70.991
2.808,0.0078201,0.3998,0.55542,0.68945,0.6451,11.812,70.404
2.816,0.0078201,0.45064,0.56527,0.67969,0.63529,11.812,70.209
2.824,0.0078201,0.50342,0.56034,0.66406,0.62941,11.773,70.209
2.832,0.0087977,0.5523,0.55049,0.6543,0.63529,11.773,70.209
2.84,0.0097752,0.5914,0.52463,0.64062,0.65098,11.773,70.209
2.848,0.01173,0.6217,0.5,0.625,0.68039,11.773,70.209
2.856,0.013685,0.65005,0.46059,0.61914,0.70588,11.773,70.209
2.864,0.014663,0.67351,0.4298,0.61523,0.72549,11.773,70.209
2.872,0.016618,0.69208,0.41995,0.60938,0.74118,11.695,70.209
2.88,0.017595,0.70674,0.4101,0.60938,0.7451,11.695,70.209
2.888,0.01955,0.7175,0.4101,0.60938,0.75098,11.656,70.209
2.896,0.020528,0.72434,0.40517,0.60938,0.75098,11.578,70.209
2.904,0.022483,0.72923,0.40025,0.60547,0.75098,11.578,70.209
2.912,0.02346,0.73118,0.40025,0.60547,0.75098,11.578,70.209
2.92,0.025415,0.73021,0.40025,0.60547,0.75098,11.695,70.209
2.928,0.026393,0.72727,0.4101,0.61523,0.75098,11.812,70.209
2.936,0.02737,0.72239,0.43966,0.61914,0.72549,12.008,70.013
2.944,0.028348,0.71554,0.51478,0.60547,0.65098,12.125,69.622
2.952,0.030303,0.7087,0.66995,0.58984,0.49412,12.203,69.231
2.96,0.031281,0.6999,0.89039,0.54492,0.2902,12.321,68.644
2.968,0.032258,0.69013,1.0049,0.43945,0.1549,12.438,68.253
2.976,0.033236,0.68035,0.85961,0.34961,0.26471,12.595,67.666
2.984,0.035191,0.66764,0.58498,0.3457,0.51961,12.712,67.08
2.992,0.037146,0.65494,0.4101,0.45508,0.7098,12.829,66.493
3,0.039101,0.64027,0.35468,0.54492,0.77647,12.907,65.906
3.008,0.042033,0.62366,0.36453,0.60547,0.78039,12.947,65.515
3.016,0.044966,0.60606,0.38054,0.62891,0.78039,13.025,64.928
3.024,0.047898,0.58651,0.38547,0.64062,0.77647,13.064,64.537
3.032,0.050831,0.56696,0.39039,0.64453,0.77647,13.064,64.146
3.04,0.053763,0.54936,0.39532,0.6543,0.77059,13.064,63.559
3.048,0.056696,0.53275,0.40025,0.6543,0.76667,13.025,62.973
3.056,0.059629,0.51417,0.40517,0.66016,0.76078,12.947,62.386
3.064,0.062561,0.49756,0.41502,0.66016,0.7549,12.907,61.995
3.072,0.065494,0.48094,0.42488,0.66016,0.75098,12.712,61.408
3.08,0.068426,0.46725,0.4298,0.66016,0.74118,12.595,61.017
3.088,0.072336,0.45552,0.43966,0.66406,0.73529,12.438,60.626
3.096,0.075269,0.44575,0.44951,0.66406,0.72549,12.399,60.235
3.104,0.079179,0.43793,0.45443,0.66406,0.71569,12.438,59.844
3.112,0.083089,0.43206,0.46552,0.66406,0.7098,12.438,59.452
3.12,0.086022,0.42815,0.4803,0.66992,0.7,12.516,59.061
3.128,0.088954,0.42424,0.49507,0.67969,0.68627,12.516,58.475
3.136,0.092864,0.42229,0.51478,0.68555,0.67647,12.516,58.279
3.144,0.095797,0.42131,0.53448,0.69531,0.6549,12.399,57.692
3.152,0.099707,0.41935,0.56034,0.69922,0.63529,12.282,57.497
3.16,0.10362,0.4174,0.5899,0.70508,0.6098,12.086,57.888
3.168,0.1085,0.41544,0.61946,0.70508,0.58431,11.89,59.061
3.176,0.11241,0.41349,0.64532,0.70898,0.57059,11.695,61.995
3.184,0.1173,0.41056,0.6601,0.70508,0.5549,11.499,66.688
3.192,0.12121,0.40762,0.66995,0.70508,0.5451,11.382,72.751
3.2,0.1261,0.40469,0.65517,0.69922,0.5549,11.186,79.791
3.208,0.13001,0.40078,0.63547,0.69531,0.57059,11.03,86.832
3.216,0.1349,0.39687,0.59975,0.68945,0.6,10.834,93.872
3.224,0.13881,0.39198,0.56034,0.67969,0.63529,10.639,100.52
3.232,0.14272,0.3871,0.52463,0.66992,0.66078,10.443,106.58
3.24,0.14663,0.38319,0.49507,0.66406,0.68627,10.248,111.28
3.248,0.15054,0.37928,0.46552,0.6543,0.70588,10.13,114.6
3.256,0.15347,0.37439,0.44458,0.64453,0.72157,9.9348,116.36
3.264,0.1564,0.36852,0.43473,0.64062,0.72549,9.8957,117.14
3.272,0.15934,0.36364,0.43473,0.63477,0.73137,9.8175,116.75
3.28,0.15934,0.35777,0.4298,0.625,0.73529,9.7783,115.97
3.288,0.16031,0.35191,0.4298,0.625,0.73529,9.8175,114.41
3.296,0.16031,0.34604,0.4298,0.625,0.73529,9.8957,112.65
3.304,0.15934,0.34018,0.4298,0.61914,0.73137,9.8957,110.69
3.312,0.1564,0.33431,0.4298,0.61914,0.73137,9.9348,108.74
3.32,0.15445,0.32845,0.43473,0.625,0.73137,9.9348,106.78
3.328,0.15054,0.32356,0.43473,0.625,0.72549,10.013,104.82
3.336,0.14761,0.31867,0.43966,0.625,0.72157,10.013,102.87
3.344,0.1437,0.31574,0.43966,0.625,0.72157,10.091,100.91
3.352,0.14076,0.31085,0.43966,0.625,0.72157,10.13,99.153
3.36,0.13685,0.30596,0.44458,0.625,0.72157,10.209,97.588
3.368,0.13392,0.30205,0.43966,0.62891,0.72549,10.326,95.828
3.376,0.12903,0.29717,0.43966,0.63477,0.72157,10.404,94.068
3.384,0.12414,0.29228,0.44458,0.63477,0.72157,10.521,92.112
3.392,0.11828,0.28837,0.44951,0.63477,0.72157,10.717,90.157
3.4,0.11339,0.2825,0.44951,0.62891,0.72157,10.834,87.81
3.408,0.1085,0.27664,0.44951,0.625,0.72157,11.03,85.463
3.416,0.10459,0.27077,0.44951,0.625,0.72157,11.147,82.921
3.424,0.10068,0.26588,0.44951,0.625,0.72157,11.265,80.378
3.432,0.097752,0.26393,0.46059,0.63477,0.71569,11.46,78.031
3.44,0.093842,0.26686,0.47537,0.64453,0.70588,11.578,76.076
3.448,0.090909,0.27664,0.49015,0.6543,0.69608,11.656,74.511
3.456,0.086999,0.29521,0.5,0.66016,0.6902,11.695,73.142
3.464,0.084066,0.32551,0.52463,0.66992,0.67059,11.695,71.969
3.472,0.081134,0.36559,0.56034,0.68945,0.6451,11.695,70.991
3.48,0.078201,0.41349,0.57512,0.68555,0.63529,11.695,70.404
3.488,0.076246,0.46432,0.56527,0.66406,0.63529,11.695,70.209
3.496,0.074291,0.51613,0.56034,0.6543,0.64118,11.695,70.209
3.504,0.073314,0.56403,0.53941,0.64062,0.6451,11.695,70.209
3.512,0.072336,0.60606,0.50985,0.625,0.66471,11.695,70.209
3.52,0.071359,0.64125,0.47537,0.61523,0.69608,11.656,70.209
3.528,0.070381,0.66862,0.44458,0.60938,0.72549,11.656,70.404
3.536,0.068426,0.68817,0.41995,0.60938,0.74118,11.656,70.795
3.544,0.066471,0.70186,0.41502,0.60547,0.75098,11.656,71.382
3.552,0.064516,0.71261,0.41502,0.60547,0.75098,11.656,71.969
3.56,0.062561,0.72141,0.41502,0.59961,0.75098,11.578,71.969
3.568,0.060606,0.72727,0.41502,0.59961,0.75098,11.578,71.773
3.576,0.058651,0.73021,0.4101,0.59961,0.75098,11.656,71.382
3.584,0.056696,0.73118,0.4101,0.59961,0.75098,11.695,70.795
3.592,0.053763,0.73021,0.41502,0.60938,0.75098,11.812,70.404
3.6,0.049853,0.72727,0.4298,0.61914,0.73529,11.969,70.209
3.608,0.044966,0.72239,0.49015,0.625,0.68039,12.086,70.013
3.616,0.038123,0.71554,0.61453,0.59961,0.5549,12.203,69.818
3.624,0.032258,0.70772,0.8202,0.56445,0.36471,12.321,69.231
3.632,0.02346,0.6999,0.99507,0.48047,0.18431,12.438,68.84
3.64,0.014663,0.69013,1.0049,0.37109,0.16471,12.595,68.253
3.648,0.0068426,0.68035,0.68966,0.33984,0.42549,12.751,67.666
3.656,0,0.66862,0.47044,0.41602,0.65098,12.829,67.08
3.664,0,0.65494,0.38547,0.51562,0.75098,12.947,66.493
3.672,0,0.64027,0.37562,0.58398,0.76667,13.025,65.906
3.68,0,0.62366,0.39039,0.61914,0.77059,13.064,65.319
3.688,0,0.60606,0.39532,0.64062,0.77059,13.064,64.928
3.696,0,0.58651,0.39532,0.65039,0.76667,13.142,64.537
3.704,0,0.56696,0.40025,0.6543,0.76667,13.181,63.95
3.712,0,0.54643,0.4101,0.6543,0.76078,13.181,63.559
3.72,0,0.52688,0.41995,0.6543,0.7549,13.142,62.973
3.728,0,0.50733,0.4298,0.6543,0.75098,13.064,62.582
3.736,0,0.49267,0.43966,0.66016,0.74118,13.025,62.19
3.744,0,0.47996,0.44951,0.66016,0.73529,12.947,61.604
3.752,0,0.46725,0.45443,0.66406,0.73137,12.907,61.408
3.76,0,0.4565,0.46059,0.66992,0.72549,12.829,60.821
3.768,0,0.4477,0.46552,0.66992,0.72157,12.829,60.626
3.776,0,0.44086,0.47537,0.67578,0.71569,12.829,60.235
3.784,0,0.435,0.48522,0.67969,0.7,12.907,59.844
3.792,0,0.43109,0.5,0.68555,0.6902,12.947,59.452
3.8,0,0.42815,0.51478,0.68945,0.67647,12.947,59.061
3.808,0,0.4262,0.53448,0.69531,0.66471,12.907,58.67
3.816,0,0.42424,0.56034,0.69922,0.6451,12.751,58.279
3.824,0,0.42326,0.5899,0.70508,0.61961,12.634,58.475
3.832,0,0.42131,0.62438,0.70898,0.59608,12.595,59.257
3.84,0.0058651,0.42033,0.65517,0.70898,0.57059,12.438,61.604
3.848,0.01173,0.41838,0.66995,0.71484,0.5549,12.399,65.906
3.856,0.025415,0.41642,0.6798,0.70898,0.5451,12.282,71.969
3.864,0.039101,0.41349,0.67488,0.70508,0.5451,12.125,79.205
3.872,0.053763,0.41056,0.65517,0.69922,0.56078,12.086,87.223
3.88,0.069404,0.40665,0.62438,0.69531,0.58431,12.008,95.046
3.888,0.084066,0.40176,0.5899,0.68555,0.61569,11.969,102.28
3.896,0.099707,0.39687,0.55542,0.67969,0.6451,11.89,108.34
3.904,0.11437,0.39198,0.5197,0.66992,0.67059,11.89,113.23
3.912,0.12903,0.38612,0.49015,0.66016,0.6902,11.812,116.56
3.92,0.14467,0.38025,0.47044,0.64453,0.7098,11.773,118.51
3.928,0.16129,0.37439,0.46059,0.63477,0.72157,11.695,119.49
3.936,0.17889,0.3695,0.44951,0.625,0.72549,11.695,119.3
3.944,0.1955,0.36559,0.44458,0.625,0.73137,11.695,118.51
3.952,0.21408,0.3607,0.44458,0.625,0.73137,11.773,117.14
3.96,0.23265,0.35484,0.44458,0.625,0.73137,11.773,115.38
3.968,0.2522,0.34897,0.44951,0.625,0.73137,11.812,113.23
3.976,0.27077,0.34311,0.44951,0.62891,0.72549,11.812,110.89
3.984,0.28837,0.33724,0.45443,0.62891,0.72157,11.812,108.54
3.992,0.30499,0.33236,0.45443,0.62891,0.72157,11.89,106.19
4,0.32063,0.32649,0.46059,0.63477,0.72157,11.969,103.65
4.008,0.33627,0.3216,0.46552,0.63477,0.72157,11.969,101.3
4.016,0.35288,0.31672,0.46552,0.63477,0.71569,12.008,99.544
4.024,0.3695,0.31183,0.46552,0.64062,0.71569,12.008,97.784
4.032,0.3871,0.30792,0.46552,0.64062,0.71569,12.008,96.024
4.04,0.40567,0.30596,0.46552,0.64062,0.71569,12.008,94.459
4.048,0.42131,0.30205,0.46552,0.64453,0.71569,12.086,92.699
4.056,0.43695,0.29912,0.46552,0.64453,0.71569,12.086,90.743
4.064,0.45259,0.29521,0.46552,0.64453,0.71569,12.125,88.788
4.072,0.46725,0.28935,0.47044,0.64453,0.71569,12.125,86.441
4.08,0.48387,0.28446,0.47044,0.64453,0.71569,12.125,84.094
4.088,0.50049,0.27859,0.47044,0.64453,0.71569,12.125,81.747
4.096,0.51906,0.27566,0.47537,0.64453,0.7098,12.125,79.596
4.104,0.53763,0.27761,0.49015,0.6543,0.69608,12.203,77.64
4.112,0.55718,0.28641,0.50493,0.66406,0.6902,12.282,75.88
4.12,0.57674,0.30596,0.51478,0.67578,0.68627,12.321,74.707
4.128,0.59726,0.33724,0.52463,0.68555,0.67647,12.399,73.533
4.136,0.61779,0.37146,0.56034,0.69922,0.6549,12.438,72.947
4.144,0.63636,0.41056,0.58498,0.69922,0.64118,12.438,72.555
4.152,0.65591,0.45748,0.5899,0.67969,0.63529,12.438,72.164
4.16,0.67449,0.50831,0.58498,0.66406,0.62941,12.399,72.164
4.168,0.69306,0.55718,0.5702,0.66016,0.63529,12.399,72.36
4.176,0.71261,0.60215,0.54557,0.64453,0.65098,12.438,72.555
4.184,0.73314,0.6393,0.51478,0.63477,0.68039,12.438,72.751
4.192,0.75464,0.6696,0.4803,0.625,0.70588,12.516,72.751
4.2,0.77713,0.69404,0.45443,0.61914,0.72157,12.595,72.947
4.208,0.79765,0.71261,0.44458,0.61914,0.72549,12.634,73.142
4.216,0.81916,0.7263,0.43966,0.61523,0.73137,12.634,73.142
4.224,0.83871,0.73607,0.43473,0.60938,0.73137,12.712,73.142
4.232,0.85924,0.74194,0.43473,0.60547,0.73137,12.712,72.947
4.24,0.88074,0.74291,0.43473,0.60547,0.73137,12.712,72.751
4.248,0.90225,0.74389,0.43473,0.60938,0.73137,12.751,72.36
4.256,0.92571,0.74194,0.43473,0.61523,0.73137,12.751,71.578
4.264,0.94917,0.73803,0.45443,0.625,0.71569,12.751,70.991
4.272,0.97263,0.73216,0.50493,0.62891,0.67059,12.829,70.404
4.28,0.99609,0.72532,0.62438,0.60938,0.56078,12.829,70.013
4.288,0.99804,0.71652,0.83498,0.58398,0.38039,12.829,69.818
4.296,1,0.70674,1.0443,0.50977,0.19412,12.907,69.231
4.304,1,0.69599,1.08,0.39453,0.1549,12.947,68.84
4.312,1,0.68524,0.77463,0.3457,0.38039,13.064,68.057
4.32,1,0.67253,0.52463,0.4043,0.61569,13.181,67.471
4.328,1,0.65982,0.40517,0.50586,0.73137,13.377,67.08
4.336,1,0.64614,0.38547,0.58008,0.7549,13.494,66.493
4.344,1,0.63245,0.39039,0.61914,0.76078,13.651,65.906
4.352,1,0.61681,0.39039,0.64062,0.76667,13.651,65.515
4.36,1,0.59922,0.39532,0.64453,0.76667,13.651,65.124
4.368,1,0.58065,0.39532,0.65039,0.76078,13.651,64.733
4.376,1,0.56109,0.40025,0.6543,0.76078,13.572,64.342
4.384,1,0.54154,0.40517,0.6543,0.7549,13.572,63.755
4.392,1,0.52297,0.4101,0.66016,0.75098,13.572,63.364
4.4,1,0.50538,0.41995,0.66016,0.7451,13.572,62.973
4.408,1,0.49071,0.4298,0.66016,0.74118,13.572,62.386
4.416,1,0.47703,0.4298,0.66016,0.74118,13.572,61.995
4.424,1,0.46628,0.43473,0.66406,0.73529,13.572,61.408
4.432,1,0.45748,0.43966,0.66992,0.73137,13.572,61.017
4.44,1,0.45161,0.45443,0.66992,0.72157,13.494,60.43
4.448,1,0.44673,0.46552,0.66992,0.7098,13.377,60.039
4.456,1,0.44282,0.47537,0.67578,0.70588,13.259,59.452
4.464,1,0.43891,0.49015,0.67969,0.6902,13.142,58.866
4.472,1,0.43597,0.50985,0.68555,0.67647,12.947,58.279
4.48,1,0.43402,0.53448,0.68945,0.6549,12.751,57.888
4.488,1,0.43109,0.56034,0.69531,0.63529,12.595,57.692
4.496,1,0.42913,0.5899,0.69922,0.6098,12.516,58.279
4.504,1,0.4262,0.61946,0.69922,0.5902,12.438,60.626
4.512,1,0.42326,0.63547,0.70508,0.57451,12.321,65.124
4.52,1,0.42033,0.64532,0.70508,0.56471,12.203,71.969
4.528,1,0.41642,0.65025,0.69922,0.56471,11.969,80.183
4.536,1,0.41349,0.63054,0.69531,0.57059,11.773,88.983
4.544,1,0.41056,0.60468,0.68555,0.59608,11.578,97.588
4.552,1,0.40665,0.56527,0.67969,0.62549,11.382,105.41
4.56,1,0.40176,0.52463,0.67578,0.6549,11.265,111.86
4.568,1,0.39589,0.49015,0.66406,0.68627,11.147,116.75
4.576,1,0.39101,0.46059,0.6543,0.70588,11.03,119.69
4.584,1,0.38514,0.43966,0.64062,0.72549,10.834,120.86
4.592,1,0.3783,0.41995,0.63477,0.73529,10.717,120.86
4.6,1,0.37243,0.4101,0.62891,0.74118,10.561,119.88
4.608,1,0.36657,0.40517,0.625,0.75098,10.404,118.32
4.616,1,0.3607,0.40517,0.61914,0.75098,10.248,116.36
4.624,1,0.35484,0.4101,0.61523,0.7451,10.13,114.21
4.632,1,0.34995,0.4101,0.61523,0.74118,10.013,111.86
4.64,1,0.34702,0.41502,0.61523,0.74118,9.9348,109.52
4.648,1,0.34213,0.41995,0.61914,0.74118,9.8175,107.17
4.656,1,0.33724,0.41995,0.61914,0.73529,9.7783,105.02
4.664,1,0.33236,0.42488,0.625,0.73137,9.7001,102.87
4.672,1,0.32747,0.4298,0.625,0.73137,9.7001,100.91
4.68,1,0.32258,0.4298,0.63477,0.73137,9.7001,99.348
4.688,1,0.31769,0.43473,0.63477,0.73137,9.7783,97.784
4.696,1,0.31281,0.43473,0.63477,0.73137,9.7783,96.219
4.704,1,0.30792,0.43473,0.63477,0.73137,9.8175,94.655
4.712,1,0.30205,0.43473,0.63477,0.73137,9.9348,92.894
4.72,1,0.29717,0.43473,0.63477,0.73137,10.13,91.134
4.728,1,0.2913,0.43473,0.62891,0.73137,10.326,88.983
4.736,1,0.28641,0.43473,0.62891,0.73137,10.443,86.832
4.744,1,0.28055,0.43473,0.62891,0.73137,10.639,84.289
4.752,1,0.27468,0.43473,0.62891,0.73137,10.756,81.747
4.76,1,0.26882,0.43966,0.64062,0.72157,10.952,79.4
4.768,0.9912,0.26393,0.45443,0.65039,0.7098,11.069,77.249
4.776,0.9824,0.26686,0.47537,0.66016,0.70588,11.186,75.489
4.784,0.96676,0.28152,0.48522,0.66406,0.69608,11.265,73.924
4.792,0.9521,0.31085,0.5,0.66992,0.68627,11.343,72.947
4.8,0.93842,0.35191,0.53448,0.68555,0.66471,11.343,71.773
4.808,0.92473,0.40371,0.55049,0.68945,0.6451,11.343,70.991
4.816,0.91007,0.45943,0.55049,0.66406,0.6451,11.343,70.404
4.824,0.89638,0.51613,0.54557,0.6543,0.6451,11.343,70.209
4.832,0.88172,0.56305,0.52463,0.64062,0.65098,11.343,70.209
4.84,0.86804,0.6002,0.5,0.625,0.67059,11.343,70.209
4.848,0.85435,0.63636,0.46059,0.61914,0.7,11.343,70.404
4.856,0.84066,0.66569,0.4298,0.60938,0.72549,11.343,70.795
4.864,0.82698,0.68915,0.4101,0.60547,0.74118,11.343,71.578
4.872,0.81427,0.70674,0.40025,0.60547,0.75098,11.265,71.969
4.88,0.79961,0.71945,0.39532,0.60547,0.75098,11.186,72.164
4.888,0.78592,0.72825,0.39532,0.60547,0.75098,11.186,72.164
4.896,0.77028,0.73314,0.39532,0.59961,0.75098,11.186,72.164
4.904,0.75464,0.73509,0.39532,0.5957,0.75098,11.265,71.969
4.912,0.73803,0.73509,0.39532,0.5957,0.75098,11.265,71.578
4.92,0.72043,0.73216,0.39532,0.59961,0.7549,11.382,70.795
4.928,0.70283,0.72727,0.4101,0.61523,0.74118,11.499,70.404
4.936,0.68426,0.72043,0.46552,0.60547,0.68627,11.656,70.209
4.944,0.66764,0.71359,0.5899,0.58984,0.56471,11.812,70.013
4.952,0.65103,0.70479,0.80049,0.56055,0.37451,11.969,69.622
4.96,0.63539,0.69599,0.9803,0.4707,0.2,12.086,69.231
4.968,0.61975,0.68622,0.98522,0.36523,0.17843,12.203,68.644
4.976,0.60411,0.67449,0.66502,0.33594,0.43922,12.321,68.253
4.984,0.58749,0.66276,0.44458,0.41016,0.66471,12.438,67.666
4.992,0.56989,0.64907,0.35468,0.51562,0.76667,12.595,67.08
5,0.55327,0.63441,0.34483,0.58008,0.78039,12.634,66.493
5.008,0.53666,0.61877,0.35961,0.61523,0.78627,12.712,65.906
5.016,0.52004,0.6002,0.36453,0.62891,0.78627,12.829,65.319
5.024,0.5044,0.58162,0.36946,0.63477,0.78039,12.907,64.928
5.032,0.48876,0.56403,0.37562,0.64062,0.77647,12.907,64.342
5.04,0.47312,0.54643,0.38054,0.64453,0.77059,12.907,63.755
5.048,0.45748,0.52786,0.38547,0.64453,0.76667,12.907,63.168
5.056,0.44086,0.50831,0.39532,0.65039,0.76078,12.751,62.777
5.064,0.42424,0.48974,0.40025,0.6543,0.7549,12.712,62.19
5.072,0.4086,0.47312,0.4101,0.6543,0.7549,12.595,61.799
5.08,0.39296,0.45748,0.41502,0.6543,0.75098,12.516,61.408
5.088,0.37732,0.44477,0.41995,0.6543,0.74118,12.438,61.017
5.096,0.36168,0.43402,0.4298,0.6543,0.73529,12.438,60.43
5.104,0.348,0.42522,0.43966,0.66016,0.72549,12.516,60.039
5.112,0.33529,0.41935,0.45443,0.66016,0.71569,12.595,59.648
5.12,0.32356,0.41447,0.47044,0.66406,0.70588,12.634,59.061
5.128,0.31183,0.41056,0.48522,0.66992,0.6902,12.634,58.67
5.136,0.30108,0.4086,0.50493,0.67969,0.67647,12.516,58.279
5.144,0.29032,0.40665,0.53448,0.67969,0.6549,12.321,57.888
5.152,0.28055,0.40567,0.56527,0.68555,0.62941,12.125,57.888
5.16,0.26979,0.40371,0.59483,0.68945,0.60588,11.969,58.866
5.168,0.26197,0.40274,0.61946,0.69531,0.58431,11.812,61.213
5.176,0.25318,0.40078,0.63547,0.69531,0.56471,11.695,65.319
5.184,0.24633,0.39785,0.65025,0.69531,0.5549,11.578,71.382
5.192,0.23949,0.39492,0.65025,0.68945,0.5549,11.46,78.618
5.2,0.23363,0.39198,0.63054,0.68555,0.57059,11.343,86.05
5.208,0.22678,0.38807,0.59975,0.67969,0.5902,11.186,93.481
5.216,0.21994,0.38416,0.56527,0.67578,0.61961,11.069,100.72
5.224,0.2131,0.37928,0.52956,0.66406,0.6451,10.952,106.98
5.232,0.20626,0.37537,0.49507,0.66016,0.67647,10.834,112.06
5.24,0.19941,0.37243,0.46552,0.64453,0.7,10.639,115.58
5.248,0.19257,0.36755,0.44458,0.63477,0.71569,10.443,117.54
5.256,0.18573,0.36266,0.42488,0.625,0.73137,10.248,118.32
5.264,0.17986,0.35679,0.41502,0.61914,0.74118,10.13,118.12
5.272,0.174,0.35093,0.4101,0.61523,0.74118,10.091,117.14
5.28,0.16813,0.34506,0.4101,0.61523,0.74118,10.013,115.58
5.288,0.16227,0.3392,0.4101,0.61523,0.74118,10.013,113.82
5.296,0.15543,0.33333,0.41502,0.61523,0.73529,9.9348,111.86
5.304,0.14858,0.32747,0.41502,0.61523,0.73529,9.8957,109.71
5.312,0.14076,0.3216,0.41502,0.61914,0.73529,9.8957,107.56
5.32,0.13294,0.31574,0.41995,0.61914,0.74118,9.8175,105.41
5.328,0.12512,0.31183,0.41995,0.625,0.73529,9.8957,103.26
5.336,0.11828,0.30792,0.42488,0.625,0.73137,9.8957,101.11
5.344,0.11144,0.30303,0.4298,0.625,0.72549,9.9348,99.348
5.352,0.10459,0.29814,0.4298,0.625,0.72157,9.9348,97.784
5.36,0.097752,0.29326,0.43473,0.62891,0.72157,10.013,96.024
5.368,0.090909,0.28837,0.43473,0.62891,0.72549,10.091,94.263
5.376,0.083089,0.28348,0.4298,0.625,0.72549,10.209,92.503
5.384,0.075269,0.27859,0.4298,0.625,0.72549,10.326,90.548
5.392,0.067449,0.2737,0.43473,0.625,0.72549,10.443,88.396
5.4,0.060606,0.26686,0.4298,0.625,0.72549,10.561,85.854
5.408,0.052786,0.261,0.4298,0.625,0.72549,10.756,83.312
5.416,0.044966,0.25415,0.4298,0.61914,0.73137,10.874,80.965
5.424,0.040078,0.25024,0.43473,0.625,0.72157,11.03,78.618
5.432,0.034213,0.25024,0.44951,0.63477,0.7098,11.186,76.662
5.44,0.030303,0.25709,0.47044,0.64062,0.69608,11.343,75.098
5.448,0.026393,0.27175,0.4803,0.64453,0.69608,11.46,73.729
5.456,0.022483,0.29814,0.49507,0.6543,0.68039,11.499,72.555
5.464,0.018573,0.33529,0.53448,0.67578,0.66078,11.499,71.578
5.472,0.01564,0.38221,0.56034,0.67969,0.64118,11.46,70.795
5.48,0.01173,0.435,0.56034,0.66016,0.64118,11.46,70.404
5.488,0.0097752,0.48876,0.55049,0.64062,0.64118,11.46,70.209
5.496,0.0068426,0.53959,0.53448,0.62891,0.6451,11.46,70.209
5.504,0.0058651,0.58553,0.50985,0.61914,0.66471,11.499,70.209
5.512,0.0048876,0.62366,0.47537,0.60938,0.69608,11.499,70.404
5.52,0.0039101,0.65396,0.43966,0.60547,0.72157,11.499,70.795
5.528,0.0029325,0.67546,0.41502,0.59961,0.73529,11.499,71.382
5.536,0.0029325,0.69013,0.40517,0.59961,0.7451,11.499,71.773
5.544,0.0029325,0.70381,0.40025,0.59961,0.75098,11.499,71.773
5.552,0.0029325,0.71359,0.40025,0.5957,0.75098,11.499,71.382
5.56,0.0039101,0.72043,0.40025,0.5957,0.75098,11.499,70.795
5.568,0.0039101,0.72532,0.39532,0.58984,0.75098,11.499,70.404
5.576,0.0048876,0.72727,0.39532,0.58984,0.7549,11.499,70.209
5.584,0.0058651,0.7263,0.40025,0.59961,0.7549,11.578,70.209
5.592,0.0068426,0.72336,0.41502,0.60938,0.74118,11.695,70.209
5.6,0.0078201,0.71848,0.45443,0.61523,0.70588,11.89,70.013
5.608,0.0087977,0.71163,0.56034,0.58984,0.6,12.008,69.622
5.616,0.0087977,0.70381,0.75985,0.57031,0.4098,12.125,69.035
5.624,0.0097752,0.69501,0.96552,0.49414,0.21373,12.282,68.644
5.632,0.0097752,0.68524,1.0049,0.39062,0.16863,12.399,68.057
5.64,0.0097752,0.67546,0.73522,0.33984,0.38039,12.516,67.471
5.648,0.010753,0.66373,0.49015,0.39453,0.62549,12.634,66.884
5.656,0.01173,0.65103,0.37562,0.49414,0.75098,12.712,66.297
5.664,0.013685,0.63636,0.35468,0.57422,0.78039,12.751,65.906
5.672,0.01564,0.62072,0.36453,0.61914,0.78627,12.829,65.319
5.68,0.016618,0.60215,0.36946,0.63477,0.78627,12.829,64.733
5.688,0.018573,0.58358,0.37562,0.64453,0.78627,12.907,64.342
5.696,0.01955,0.56403,0.37562,0.64453,0.78039,12.947,63.755
5.704,0.021505,0.5435,0.38054,0.65039,0.78039,12.907,63.364
5.712,0.022483,0.52297,0.38547,0.6543,0.77647,12.829,62.973
5.72,0.024438,0.5044,0.39039,0.6543,0.77059,12.751,62.386
5.728,0.025415,0.48778,0.40025,0.6543,0.76667,12.595,61.995
5.736,0.02737,0.47507,0.40517,0.66016,0.76078,12.438,61.408
5.744,0.028348,0.46237,0.41502,0.66016,0.7549,12.321,61.017
5.752,0.030303,0.45064,0.42488,0.66406,0.7451,12.282,60.626
5.76,0.032258,0.44086,0.43473,0.66406,0.74118,12.203,60.235
5.768,0.035191,0.43304,0.43966,0.66406,0.73137,12.282,59.844
5.776,0.037146,0.42717,0.45443,0.66992,0.72157,12.321,59.452
5.784,0.040078,0.42229,0.46552,0.67969,0.7098,12.399,58.866
5.792,0.042033,0.41838,0.4803,0.68555,0.7,12.438,58.475
5.8,0.044966,0.41544,0.5,0.68945,0.68627,12.399,58.083
5.808,0.047898,0.41251,0.52956,0.69531,0.66078,12.282,57.888
5.816,0.050831,0.41056,0.56034,0.69922,0.63529,12.086,57.888
5.824,0.054741,0.40762,0.5899,0.70508,0.61569,11.812,58.475
5.832,0.058651,0.40567,0.61946,0.70898,0.5902,11.656,60.43
5.84,0.062561,0.40371,0.63547,0.70898,0.57059,11.46,64.342
5.848,0.066471,0.40176,0.65025,0.70508,0.56078,11.265,69.818
5.856,0.070381,0.39785,0.65517,0.69922,0.5549,11.069,76.662
5.864,0.075269,0.39492,0.64039,0.68945,0.56078,10.952,83.898
5.872,0.078201,0.39101,0.61453,0.68555,0.58431,10.834,91.33
5.88,0.082111,0.38612,0.58005,0.67969,0.61569,10.717,98.37
5.888,0.086022,0.38123,0.53941,0.66992,0.6451,10.561,104.82
5.896,0.088954,0.37634,0.50493,0.66016,0.67647,10.404,109.91
5.904,0.091887,0.37048,0.47537,0.64453,0.7,10.209,113.82
5.912,0.095797,0.36559,0.44951,0.63477,0.71569,10.013,116.17
5.92,0.097752,0.35973,0.43473,0.625,0.73137,9.8175,117.34
5.928,0.10068,0.35484,0.42488,0.61914,0.73529,9.7001,117.54
5.936,0.10166,0.34995,0.41995,0.61523,0.74118,9.6219,116.95
5.944,0.10264,0.34506,0.41502,0.61523,0.74118,9.6219,115.97
5.952,0.10264,0.3392,0.41995,0.61523,0.74118,9.6219,114.41
5.96,0.10264,0.33333,0.41995,0.61523,0.74118,9.6219,112.65
5.968,0.10166,0.32845,0.41995,0.61523,0.74118,9.6219,110.69
5.976,0.10068,0.32258,0.41995,0.61523,0.74118,9.7001,108.54
5.984,0.099707,0.31672,0.41995,0.61914,0.74118,9.7783,106.39
5.992,0.097752,0.31085,0.42488,0.61914,0.73529,9.8175,104.43
6,0.094819,0.30596,0.4298,0.61914,0.73529,9.8957,102.28
6.008,0.091887,0.30108,0.42488,0.61914,0.73529,10.013,100.33
6.016,0.087977,0.29619,0.4298,0.61914,0.73529,10.091,98.566
6.024,0.083089,0.2913,0.4298,0.61914,0.73529,10.209,96.806
6.032,0.078201,0.28739,0.4298,0.625,0.73529,10.248,95.046
6.04,0.073314,0.28543,0.4298,0.625,0.73529,10.326,93.286
6.048,0.068426,0.28152,0.43473,0.62891,0.73529,10.443,91.33
6.056,0.063539,0.27761,0.43473,0.62891,0.73529,10.561,89.179
6.064,0.059629,0.27175,0.43473,0.62891,0.73137,10.717,86.832
6.072,0.055718,0.26686,0.43473,0.625,0.73137,10.874,84.289
6.08,0.053763,0.261,0.43473,0.625,0.73137,11.069,81.747
6.088,0.050831,0.25611,0.43966,0.62891,0.72549,11.186,79.4
6.096,0.048876,0.25513,0.45443,0.64062,0.71569,11.382,77.249
6.104,0.046921,0.261,0.47044,0.65039,0.70588,11.499,75.489
6.112,0.045943,0.27566,0.4803,0.66016,0.69608,11.578,74.12
6.12,0.044966,0.30205,0.5,0.66406,0.68039,11.578,72.947
6.128,0.043988,0.33333,0.53448,0.68555,0.66078,11.578,71.773
6.136,0.043988,0.3695,0.56034,0.68945,0.6451,11.499,70.991
6.144,0.043988,0.41642,0.56527,0.67578,0.64118,11.499,70.404
6.152,0.043988,0.46823,0.55542,0.66016,0.64118,11.499,70.209
6.16,0.043988,0.51906,0.53941,0.65039,0.6451,11.499,70.209
6.168,0.044966,0.56598,0.51478,0.63477,0.66471,11.499,70.209
6.176,0.045943,0.60704,0.48522,0.625,0.6902,11.499,70.209
6.184,0.047898,0.64027,0.44951,0.61523,0.71569,11.499,70.209
6.192,0.048876,0.66764,0.42488,0.60938,0.73529,11.499,70.209
6.2,0.050831,0.68817,0.4101,0.60547,0.74118,11.499,70.209
6.208,0.052786,0.70479,0.40517,0.60938,0.75098,11.499,70.209
6.216,0.054741,0.71652,0.40025,0.60938,0.75098,11.499,70.209
6.224,0.056696,0.72434,0.40025,0.60547,0.75098,11.499,70.209
6.232,0.058651,0.72923,0.39532,0.60547,0.7549,11.499,70.209
6.24,0.061584,0.73021,0.39532,0.59961,0.7549,11.578,70.209
6.248,0.063539,0.72923,0.40025,0.60547,0.75098,11.656,70.209
6.256,0.066471,0.72727,0.4101,0.61523,0.74118,11.773,70.209
6.264,0.068426,0.72336,0.45443,0.61914,0.7,11.89,70.013
6.272,0.071359,0.7175,0.55542,0.59961,0.6,11.969,69.818
6.28,0.073314,0.71065,0.74015,0.58398,0.42549,12.086,69.426
6.288,0.076246,0.70283,0.94951,0.50977,0.22353,12.203,69.035
6.296,0.078201,0.69306,0.99507,0.40039,0.16863,12.399,68.449
6.304,0.081134,0.68231,0.75,0.33594,0.35882,12.438,67.862
6.312,0.084066,0.67058,0.49015,0.39062,0.61569,12.595,67.275
6.32,0.086999,0.65787,0.36453,0.48438,0.7549,12.634,66.884
6.328,0.089932,0.64516,0.34483,0.57031,0.78627,12.751,66.297
6.336,0.092864,0.63148,0.35468,0.61523,0.78627,12.829,65.711
6.344,0.096774,0.61486,0.36453,0.63477,0.78627,12.907,65.319
6.352,0.099707,0.59726,0.36946,0.64062,0.78627,12.907,64.733
6.36,0.10264,0.57771,0.37562,0.64453,0.78039,12.947,64.342
6.368,0.10557,0.55816,0.38547,0.64453,0.77647,12.947,63.755
6.376,0.1085,0.53763,0.39532,0.6543,0.76667,12.907,63.168
6.384,0.11046,0.51808,0.40025,0.6543,0.76078,12.751,62.777
6.392,0.11339,0.49951,0.4101,0.6543,0.7549,12.634,62.19
6.4,0.11632,0.48289,0.41995,0.66016,0.75098,12.516,61.799
6.408,0.11828,0.46725,0.42488,0.66016,0.7451,12.399,61.408
6.416,0.12023,0.45455,0.43473,0.66016,0.74118,12.321,60.821
6.424,0.12317,0.44379,0.43966,0.66406,0.73529,12.321,60.43
6.432,0.12512,0.43597,0.44458,0.66992,0.73137,12.321,60.039
6.44,0.12708,0.43011,0.45443,0.66992,0.72157,12.399,59.648
6.448,0.12903,0.42522,0.47044,0.67578,0.7098,12.438,59.061
6.456,0.13196,0.42131,0.49015,0.67969,0.69608,12.438,58.67
6.464,0.13392,0.41838,0.50985,0.68555,0.68039,12.399,58.279
6.472,0.13587,0.41544,0.53448,0.68945,0.66078,12.282,57.888
6.48,0.13783,0.41349,0.56527,0.69922,0.63529,12.086,57.888
6.488,0.14076,0.41153,0.59975,0.70508,0.6098,11.969,58.475
6.496,0.1437,0.40958,0.62438,0.70898,0.5902,11.773,60.43
6.504,0.14663,0.40665,0.64039,0.70898,0.57059,11.499,64.146
6.512,0.14956,0.40469,0.65517,0.70508,0.56078,11.343,69.426
6.52,0.15347,0.40176,0.65517,0.69922,0.56078,11.147,76.076
6.528,0.15738,0.39883,0.64039,0.69531,0.56471,10.952,83.116
6.536,0.16129,0.39687,0.61453,0.68945,0.58431,10.834,90.352
6.544,0.16422,0.39296,0.58005,0.68555,0.61961,10.717,97.393
6.552,0.16813,0.38905,0.54557,0.67969,0.65098,10.561,103.85
6.56,0.17107,0.38416,0.50985,0.66406,0.68039,10.404,109.13
6.568,0.174,0.37928,0.4803,0.6543,0.7,10.209,113.04
6.576,0.17595,0.37341,0.45443,0.64453,0.72157,10.091,115.58
6.584,0.17791,0.36852,0.43473,0.63477,0.73529,9.8957,116.95
6.592,0.17889,0.36266,0.42488,0.62891,0.74118,9.7783,117.34
6.6,0.17986,0.35679,0.41995,0.625,0.74118,9.7001,116.95
6.608,0.17986,0.35093,0.41995,0.61914,0.7451,9.6219,115.78
6.616,0.18084,0.34506,0.41995,0.61914,0.7451,9.6219,114.21
6.624,0.18084,0.3392,0.41995,0.61914,0.74118,9.7001,112.45
6.632,0.18084,0.33431,0.42488,0.61914,0.74118,9.7001,110.5
6.64,0.17889,0.3304,0.4298,0.61914,0.74118,9.7783,108.54
6.648,0.17693,0.32551,0.4298,0.61914,0.73529,9.8175,106.39
6.656,0.174,0.32063,0.43473,0.625,0.73529,9.8957,104.43
6.664,0.17009,0.31476,0.43966,0.625,0.73137,9.9348,102.48
6.672,0.16618,0.3089,0.43966,0.62891,0.73137,10.091,100.72
6.68,0.16129,0.30401,0.43966,0.62891,0.73137,10.13,98.957
6.688,0.1564,0.29814,0.44458,0.63477,0.73137,10.248,97.197
6.696,0.15152,0.29326,0.44951,0.63477,0.73137,10.326,95.437
6.704,0.14761,0.28935,0.44951,0.63477,0.73137,10.443,93.677
6.712,0.1437,0.28446,0.44951,0.63477,0.72549,10.561,91.917
6.72,0.14076,0.27957,0.44951,0.63477,0.72549,10.717,89.765
6.728,0.13783,0.27566,0.44951,0.64062,0.72549,10.874,87.419
6.736,0.13587,0.27175,0.44951,0.63477,0.72549,11.03,84.876
6.744,0.1349,0.26686,0.44951,0.63477,0.72549,11.147,82.334
6.752,0.1349,0.26197,0.45443,0.64062,0.72157,11.265,79.987
6.76,0.1349,0.26002,0.46552,0.65039,0.7098,11.46,77.836
6.768,0.13685,0.26295,0.48522,0.66016,0.69608,11.578,76.076
6.776,0.13783,0.27566,0.49507,0.66992,0.6902,11.695,74.511
6.784,0.14076,0.29814,0.50493,0.67969,0.68039,11.773,73.338
6.792,0.1437,0.33236,0.53941,0.69531,0.66078,11.773,72.164
6.8,0.14956,0.37634,0.56527,0.69922,0.64118,11.773,70.991
6.808,0.15543,0.4262,0.5702,0.68555,0.62941,11.773,70.404
6.816,0.16325,0.47996,0.56527,0.66992,0.62941,11.773,70.209
6.824,0.17107,0.53372,0.56034,0.66016,0.63529,11.773,70.209
6.832,0.18182,0.57674,0.53448,0.64453,0.65098,11.812,70.404
6.84,0.19355,0.61095,0.50493,0.63477,0.68039,11.812,70.795
6.848,0.20626,0.64223,0.47044,0.61914,0.70588,11.89,71.578
6.856,0.21994,0.6696,0.44458,0.61914,0.72549,11.969,71.969
6.864,0.23363,0.6911,0.4298,0.61914,0.73137,11.969,72.164
6.872,0.24731,0.7087,0.4298,0.61523,0.73529,11.969,72.36
6.88,0.26197,0.72141,0.42488,0.61523,0.73529,11.969,72.555
6.888,0.27664,0.73021,0.41995,0.61523,0.73529,12.008,72.555
6.896,0.29423,0.73607,0.41995,0.60938,0.73529,12.008,72.36
6.904,0.31183,0.73998,0.41995,0.60938,0.73529,12.086,72.164
6.912,0.33138,0.73998,0.41995,0.61523,0.73529,12.086,71.578
6.92,0.35093,0.73803,0.43473,0.625,0.72157,12.203,70.795
6.928,0.37048,0.73412,0.47537,0.62891,0.6902,12.321,70.404
6.936,0.38905,0.72825,0.58005,0.60547,0.5902,12.438,70.209
6.944,0.40762,0.72239,0.77463,0.58398,0.41961,12.595,70.013
6.952,0.4262,0.71457,0.98522,0.51953,0.22941,12.712,69.622
6.96,0.4477,0.70577,1.0345,0.4043,0.17843,12.829,69.035
6.968,0.46823,0.69599,0.79557,0.33984,0.3549,12.947,68.644
6.976,0.49169,0.68524,0.53448,0.38477,0.5902,13.142,68.057
6.984,0.51613,0.67253,0.40517,0.49414,0.72549,13.181,67.471
6.992,0.54154,0.65885,0.37562,0.58008,0.76078,13.338,66.884
7,0.56696,0.64321,0.38547,0.625,0.76667,13.377,66.297
7.008,0.59335,0.62561,0.39039,0.64062,0.76667,13.455,65.906
7.016,0.61975,0.60704,0.39532,0.65039,0.76078,13.494,65.319
7.024,0.64418,0.58749,0.40025,0.6543,0.7549,13.572,64.928
7.032,0.66862,0.56891,0.41502,0.6543,0.75098,13.651,64.537
7.04,0.6911,0.5523,0.41995,0.66016,0.7451,13.651,64.146
7.048,0.71359,0.53372,0.4298,0.66406,0.74118,13.572,63.559
7.056,0.73803,0.51515,0.43966,0.66992,0.73529,13.572,63.168
7.064,0.76149,0.49853,0.44951,0.66992,0.73137,13.494,62.777
7.072,0.78592,0.48289,0.46059,0.66992,0.72157,13.494,62.19
7.08,0.81036,0.47019,0.46552,0.67578,0.71569,13.572,61.799
7.088,0.83382,0.45846,0.47044,0.67578,0.7098,13.651,61.408
7.096,0.8563,0.44966,0.4803,0.67969,0.70588,13.651,61.017
7.104,0.87781,0.44282,0.49015,0.68555,0.69608,13.651,60.43
7.112,0.89932,0.43695,0.5,0.68555,0.6902,13.651,60.039
7.12,0.92278,0.43304,0.51478,0.68945,0.67647,13.572,59.648
7.128,0.94526,0.43109,0.53941,0.69531,0.66078,13.494,59.257
7.136,0.9697,0.42913,0.5702,0.69922,0.64118,13.377,58.866
7.144,0.99316,0.42717,0.59975,0.70508,0.61569,13.338,58.866
7.152,0.99707,0.42522,0.63054,0.70898,0.59608,13.338,59.648
7.16,1,0.42326,0.65517,0.71484,0.57451,13.338,61.995
7.168,1,0.42131,0.67488,0.71484,0.5549,13.338,66.493
7.176,1,0.41935,0.68966,0.70898,0.5451,13.259,73.338
7.184,1,0.41642,0.69458,0.70898,0.5451,13.259,81.356
7.192,1,0.41349,0.6798,0.69922,0.55098,13.181,89.765
7.2,1,0.40958,0.65025,0.69531,0.57059,13.259,97.979
7.208,1,0.40567,0.61453,0.68555,0.6,13.338,105.8
7.216,1,0.40176,0.5702,0.67578,0.62941,13.377,112.26
7.224,1,0.39785,0.53448,0.66406,0.66078,13.377,117.14
7.232,1,0.39394,0.5,0.6543,0.68039,13.377,120.27
7.24,1,0.38905,0.47537,0.64453,0.7,13.377,121.64
7.248,1,0.38416,0.46059,0.64062,0.7098,13.377,121.64
7.256,1,0.3783,0.44951,0.63477,0.72157,13.338,120.86
7.264,1,0.37243,0.43966,0.625,0.72157,13.338,119.3
7.272,1,0.36657,0.43966,0.625,0.72549,13.338,117.34
7.28,1,0.3607,0.43966,0.625,0.72549,13.338,115.38
7.288,1,0.35484,0.43966,0.625,0.72549,13.377,113.23
7.296,1,0.34897,0.43966,0.625,0.72157,13.455,110.89
7.304,1,0.34311,0.44458,0.625,0.72157,13.455,108.74
7.312,1,0.33724,0.44951,0.625,0.72157,13.494,106.78
7.32,1,0.33236,0.44951,0.625,0.71569,13.494,104.82
7.328,1,0.32845,0.45443,0.625,0.71569,13.494,102.87
7.336,1,0.32454,0.45443,0.62891,0.71569,13.494,100.91
7.344,1,0.32063,0.46059,0.62891,0.71569,13.494,99.348
7.352,1,0.31574,0.46059,0.63477,0.71569,13.494,97.784
7.36,1,0.31183,0.46059,0.63477,0.71569,13.494,96.219
7.368,1,0.30694,0.45443,0.62891,0.72157,13.494,94.655
7.376,1,0.30303,0.45443,0.625,0.71569,13.494,92.699
7.384,1,0.29814,0.45443,0.625,0.71569,13.494,90.548
7.392,1,0.29228,0.45443,0.625,0.71569,13.572,88.396
7.4,1,0.28543,0.45443,0.625,0.71569,13.572,85.854
7.408,1,0.27957,0.44951,0.61914,0.72157,13.651,83.507
7.416,1,0.27468,0.44951,0.61914,0.72157,13.651,81.16
7.424,1,0.27468,0.46059,0.62891,0.71569,13.69,79.009
7.432,1,0.28055,0.47537,0.64062,0.70588,13.69,77.249
7.44,1,0.29521,0.48522,0.6543,0.69608,13.69,75.685
7.448,1,0.32063,0.49507,0.66016,0.6902,13.69,74.511
7.456,1,0.35875,0.51478,0.66992,0.67647,13.69,73.729
7.464,1,0.40762,0.54557,0.67969,0.6549,13.768,73.142
7.472,1,0.46139,0.56034,0.66992,0.6451,13.768,72.751
7.48,1,0.51711,0.55049,0.6543,0.6451,13.768,72.36
7.488,1,0.56989,0.54557,0.64453,0.65098,13.69,72.36
7.496,1,0.61681,0.52463,0.63477,0.66078,13.572,72.555
7.504,1,0.65591,0.5,0.625,0.68039,13.494,72.555
7.512,1,0.68719,0.46059,0.61523,0.70588,13.377,72.751
7.52,1,0.71065,0.4298,0.60547,0.73137,13.338,72.947
7.528,1,0.7263,0.41502,0.59961,0.74118,13.259,72.947
7.536,1,0.73705,0.4101,0.59961,0.7451,13.259,72.947
7.544,1,0.74487,0.4101,0.5957,0.75098,13.181,72.947
7.552,1,0.75073,0.4101,0.5957,0.75098,13.142,72.751
7.56,1,0.75367,0.40517,0.5957,0.75098,13.025,72.36
7.568,1,0.75464,0.40025,0.58984,0.75098,12.947,71.773
7.576,1,0.75367,0.40517,0.58984,0.75098,12.907,70.991
7.584,1,0.74976,0.4101,0.59961,0.74118,12.829,70.404
7.592,1,0.74487,0.43966,0.60547,0.71569,12.829,70.209
7.6,1,0.73803,0.51478,0.5957,0.64118,12.907,70.013
7.608,1,0.73021,0.67488,0.58008,0.5,12.947,69.622
7.616,1,0.72141,0.89532,0.5293,0.3,13.025,69.035
7.624,1,0.71261,1.0197,0.42578,0.16863,13.064,68.449
7.632,1,0.70186,0.86946,0.33594,0.27843,13.142,67.666
7.64,1,0.6911,0.5899,0.33008,0.52549,13.259,67.08
7.648,1,0.6784,0.4101,0.44531,0.7098,13.338,66.493
7.656,1,0.66471,0.34975,0.53906,0.77059,13.377,65.906
7.664,1,0.64907,0.35468,0.59961,0.78039,13.377,65.515
7.672,1,0.63148,0.36453,0.61914,0.78039,13.377,65.124
7.68,1,0.61388,0.36453,0.63477,0.78627,13.377,64.733
7.688,1,0.59433,0.36946,0.64062,0.78039,13.377,64.342
7.696,0.98436,0.5738,0.37562,0.64453,0.77647,13.377,63.755
7.704,0.96872,0.55425,0.38547,0.64453,0.76667,13.338,63.364
7.712,0.94917,0.5347,0.39532,0.64453,0.76078,13.181,62.973
7.72,0.92864,0.51613,0.40025,0.65039,0.7549,13.142,62.386
7.728,0.91105,0.50049,0.4101,0.65039,0.75098,13.025,61.995
7.736,0.89247,0.48778,0.41502,0.6543,0.7451,12.907,61.408
7.744,0.87586,0.47605,0.42488,0.6543,0.74118,12.751,61.017
7.752,0.85924,0.46432,0.43473,0.66016,0.74118,12.634,60.626
7.76,0.84164,0.45552,0.43966,0.66016,0.73137,12.595,60.235
7.768,0.82502,0.4477,0.45443,0.66016,0.71569,12.516,59.844
7.776,0.80743,0.44184,0.46552,0.66406,0.70588,12.516,59.452
7.784,0.79081,0.43695,0.4803,0.66406,0.69608,12.516,59.061
7.792,0.77419,0.43304,0.5,0.66992,0.68627,12.438,58.475
7.8,0.75758,0.42913,0.5197,0.67969,0.67059,12.321,58.279
7.808,0.74291,0.4262,0.54557,0.68945,0.65098,12.125,58.083
7.816,0.72727,0.42326,0.58005,0.69531,0.62549,12.086,58.475
7.824,0.71359,0.42131,0.60961,0.69922,0.6,11.969,60.039
7.832,0.6999,0.41838,0.63547,0.69922,0.57451,11.89,63.364
7.84,0.68719,0.41544,0.65025,0.69531,0.56078,11.773,68.84
7.848,0.67449,0.41153,0.65517,0.68945,0.56078,11.578,76.076
7.856,0.66178,0.40762,0.65025,0.68555,0.56471,11.382,83.898
7.864,0.64907,0.40274,0.62438,0.67969,0.58039,11.265,91.917
7.872,0.63636,0.39687,0.59483,0.66992,0.60588,11.147,99.544
7.88,0.62366,0.39101,0.56034,0.66406,0.63529,11.069,106.39
7.888,0.61193,0.38416,0.5197,0.66016,0.66471,11.03,112.06
7.896,0.6002,0.3783,0.49015,0.65039,0.6902,10.952,115.97
7.904,0.58847,0.37146,0.45443,0.64062,0.7098,10.834,118.12
7.912,0.57771,0.36461,0.43473,0.62891,0.73137,10.639,119.1
7.92,0.565,0.35777,0.42488,0.625,0.74118,10.521,119.1
7.928,0.55327,0.35191,0.41995,0.61914,0.7451,10.404,118.32
7.936,0.53959,0.34702,0.41502,0.61523,0.7451,10.326,116.95
7.944,0.52493,0.34213,0.41502,0.61523,0.75098,10.248,115.38
7.952,0.50929,0.33627,0.41502,0.61523,0.7451,10.209,113.43
7.96,0.49267,0.3304,0.41502,0.61523,0.74118,10.209,111.47
7.968,0.4741,0.32454,0.41995,0.61523,0.74118,10.13,109.32
7.976,0.4565,0.31867,0.41995,0.61523,0.73529,10.13,107.17
7.984,0.43891,0.31378,0.42488,0.61914,0.73529,10.091,105.22
7.992,0.42229,0.30792,0.4298,0.61914,0.73137,10.091,103.06
8,0.40567,0.30205,0.4298,0.625,0.73137,10.091,101.11
8.008,0.38905,0.29717,0.43473,0.625,0.73529,10.13,99.348
8.016,0.37146,0.29228,0.43473,0.62891,0.73137,10.248,97.784
8.024,0.35288,0.28837,0.43473,0.62891,0.73137,10.326,96.024
8.032,0.33333,0.28543,0.43473,0.62891,0.73137,10.443,94.459
8.04,0.31476,0.28152,0.43473,0.63477,0.73137,10.521,92.503
8.048,0.29717,0.27761,0.4298,0.63477,0.73137,10.639,90.548
8.056,0.27957,0.27273,0.4298,0.63477,0.73137,10.756,88.396
8.064,0.26295,0.26686,0.4298,0.62891,0.73137,10.874,85.854
8.072,0.24731,0.26002,0.4298,0.625,0.73137,10.952,83.312
8.08,0.23167,0.25513,0.4298,0.625,0.73137,11.069,80.965
8.088,0.21603,0.2522,0.43966,0.63477,0.72549,11.265,78.618
8.096,0.20039,0.25513,0.45443,0.64453,0.71569,11.382,76.662
8.104,0.18573,0.26784,0.47044,0.6543,0.70588,11.499,75.098
8.112,0.17204,0.2913,0.4803,0.66016,0.69608,11.578,73.924
8.12,0.15836,0.32649,0.50985,0.66992,0.68039,11.578,72.751
8.128,0.14663,0.36559,0.54557,0.68945,0.65098,11.578,71.773
8.136,0.13587,0.40762,0.56034,0.68555,0.64118,11.499,70.991
8.144,0.1261,0.45846,0.56034,0.66016,0.64118,11.578,70.404
8.152,0.1173,0.51124,0.55049,0.64453,0.64118,11.578,70.209
8.16,0.11046,0.56207,0.52463,0.63477,0.65098,11.499,70.209
8.168,0.10459,0.60606,0.49507,0.625,0.68039,11.499,70.404
8.176,0.097752,0.64223,0.46059,0.61523,0.7098,11.499,70.795
8.184,0.091887,0.67058,0.4298,0.60547,0.73137,11.499,71.578
8.192,0.086999,0.69306,0.4101,0.60547,0.7451,11.499,71.969
8.2,0.081134,0.70968,0.40517,0.59961,0.75098,11.499,72.164
8.208,0.077224,0.72239,0.40025,0.59961,0.75098,11.499,72.164
8.216,0.073314,0.73118,0.40025,0.5957,0.75098,11.499,72.164
8.224,0.070381,0.73607,0.40025,0.5957,0.75098,11.46,71.969
8.232,0.067449,0.73705,0.39532,0.5957,0.75098,11.46,71.578
8.24,0.064516,0.73705,0.39532,0.5957,0.7549,11.499,70.795
8.248,0.062561,0.73509,0.40025,0.59961,0.75098,11.656,70.404
8.256,0.059629,0.73118,0.42488,0.61523,0.73529,11.773,70.209
8.264,0.057674,0.7263,0.4803,0.59961,0.68039,11.89,70.013
8.272,0.054741,0.71945,0.60468,0.58398,0.5549,12.008,69.818
8.28,0.051808,0.71163,0.81527,0.55469,0.35882,12.125,69.426
8.288,0.048876,0.70283,0.99015,0.46484,0.18431,12.282,68.84
8.296,0.046921,0.69208,0.92488,0.35938,0.16863,12.399,68.253
8.304,0.043988,0.68133,0.66502,0.33594,0.4451,12.516,67.666
8.312,0.042033,0.66862,0.44951,0.41602,0.66471,12.634,67.275
8.32,0.039101,0.65494,0.35961,0.50977,0.76667,12.712,66.688
8.328,0.037146,0.64125,0.34975,0.58008,0.78039,12.829,66.102
8.336,0.035191,0.62757,0.36453,0.61523,0.78039,12.907,65.515
8.344,0.033236,0.61095,0.36946,0.62891,0.78039,12.947,64.928
8.352,0.031281,0.59238,0.37562,0.64062,0.78039,13.025,64.537
8.36,0.030303,0.57283,0.38547,0.64453,0.77647,13.025,64.146
8.368,0.028348,0.5523,0.39039,0.64453,0.77059,13.025,63.559
8.376,0.026393,0.53177,0.39532,0.65039,0.76667,12.907,62.973
8.384,0.025415,0.5132,0.40025,0.65039,0.76078,12.829,62.582
8.392,0.02346,0.49462,0.4101,0.65039,0.7549,12.712,61.995
8.4,0.022483,0.47898,0.41995,0.65039,0.75098,12.595,61.408
8.408,0.021505,0.46432,0.42488,0.65039,0.74118,12.438,61.213
8.416,0.01955,0.45259,0.43473,0.6543,0.73529,12.399,60.626
8.424,0.018573,0.44379,0.43966,0.6543,0.73137,12.321,60.235
8.432,0.018573,0.43695,0.44951,0.66016,0.72549,12.321,59.844
8.44,0.017595,0.43109,0.46059,0.66406,0.71569,12.399,59.452
8.448,0.017595,0.42717,0.47537,0.66406,0.7,12.438,59.061
8.456,0.017595,0.42326,0.49507,0.66992,0.68627,12.399,58.67
8.464,0.018573,0.42033,0.5197,0.67969,0.67059,12.321,58.279
8.472,0.018573,0.4174,0.54557,0.68555,0.6451,12.125,57.888
8.48,0.020528,0.41544,0.58005,0.68945,0.62549,12.008,58.083
8.488,0.021505,0.41349,0.60468,0.69531,0.6,11.89,58.866
8.496,0.024438,0.41153,0.63054,0.69922,0.58039,11.773,61.408
8.504,0.026393,0.4086,0.64532,0.69922,0.56078,11.656,65.515
8.512,0.029326,0.40665,0.65517,0.69531,0.5549,11.46,71.382
8.52,0.033236,0.40274,0.65025,0.68945,0.56078,11.265,78.227
8.528,0.036168,0.3998,0.63547,0.68945,0.57059,11.147,85.854
8.536,0.039101,0.39687,0.60468,0.68555,0.5902,10.952,93.09
8.544,0.042033,0.39296,0.57512,0.67969,0.61961,10.834,100.13
8.552,0.045943,0.38905,0.53448,0.66406,0.65098,10.717,106.19
8.56,0.048876,0.38319,0.5,0.6543,0.68039,10.561,111.08
8.568,0.051808,0.3783,0.47044,0.64453,0.70588,10.404,114.41
8.576,0.054741,0.37243,0.44951,0.63477,0.72157,10.248,116.36
8.584,0.057674,0.36657,0.43966,0.62891,0.73137,10.091,117.34
8.592,0.058651,0.3607,0.4298,0.61914,0.73529,9.9348,117.34
8.6,0.060606,0.35484,0.42488,0.61523,0.74118,9.8957,116.56
8.608,0.060606,0.34897,0.41995,0.61523,0.7451,9.8175,115.38
8.616,0.060606,0.34311,0.41995,0.61523,0.74118,9.7783,113.62
8.624,0.059629,0.33822,0.41995,0.61523,0.74118,9.7783,111.86
8.632,0.059629,0.33431,0.42488,0.61523,0.74118,9.7001,109.91
8.64,0.058651,0.32942,0.4298,0.61523,0.74118,9.7001,107.76
8.648,0.057674,0.32356,0.4298,0.61523,0.73529,9.7783,105.61
8.656,0.055718,0.31867,0.4298,0.61914,0.73529,9.8957,103.46
8.664,0.053763,0.31281,0.43473,0.61914,0.73137,9.9348,101.3
8.672,0.050831,0.30694,0.43966,0.61914,0.73137,10.013,99.544
8.68,0.048876,0.30205,0.43966,0.625,0.72549,10.091,97.979
8.688,0.045943,0.29717,0.43966,0.625,0.72549,10.13,96.415
8.696,0.043011,0.29228,0.43966,0.625,0.72549,10.248,94.655
8.704,0.041056,0.28739,0.43966,0.625,0.72549,10.404,92.699
8.712,0.038123,0.2825,0.43966,0.625,0.72549,10.521,90.743
8.72,0.035191,0.27761,0.43966,0.625,0.72549,10.717,88.396
8.728,0.032258,0.2737,0.43966,0.625,0.73137,10.834,86.05
8.736,0.028348,0.26979,0.43966,0.625,0.73137,10.952,83.703
8.744,0.025415,0.26393,0.43966,0.625,0.72549,11.147,81.16
8.752,0.022483,0.26002,0.44951,0.62891,0.72157,11.343,79.009
8.76,0.01955,0.25904,0.46059,0.64062,0.7098,11.46,77.054
8.768,0.016618,0.26393,0.4803,0.65039,0.69608,11.499,75.489
8.776,0.014663,0.27957,0.49015,0.6543,0.6902,11.578,74.12
8.784,0.013685,0.30499,0.50985,0.66406,0.67647,11.578,73.142
8.792,0.012708,0.34213,0.54557,0.67969,0.6549,11.656,72.36
8.8,0.012708,0.38807,0.56527,0.68555,0.64118,11.656,71.578
8.808,0.012708,0.43988,0.5702,0.66406,0.64118,11.656,70.795
8.816,0.012708,0.49365,0.56034,0.6543,0.63529,11.656,70.404
8.824,0.013685,0.53861,0.54557,0.64453,0.6451,11.656,70.209
8.832,0.014663,0.57576,0.5197,0.62891,0.66471,11.656,70.404
8.84,0.01564,0.6129,0.4803,0.61914,0.6902,11.578,70.795
8.848,0.016618,0.64418,0.44458,0.61523,0.72157,11.578,71.382
8.856,0.017595,0.67058,0.42488,0.60547,0.73529,11.499,71.773
8.864,0.01955,0.68915,0.41502,0.60547,0.74118,11.499,72.164
8.872,0.021505,0.70186,0.4101,0.59961,0.75098,11.499,72.164
8.88,0.02346,0.71261,0.40517,0.59961,0.75098,11.499,71.969
8.888,0.026393,0.72043,0.40517,0.5957,0.7549,11.46,71.382
8.896,0.028348,0.72532,0.40025,0.5957,0.75098,11.499,70.795
8.904,0.031281,0.72727,0.40025,0.5957,0.75098,11.578,70.404
8.912,0.033236,0.72727,0.40517,0.59961,0.75098,11.695,70.209
8.92,0.035191,0.72434,0.42488,0.60938,0.73529,11.812,70.209
8.928,0.037146,0.71945,0.47044,0.61523,0.69608,11.969,70.013
8.936,0.039101,0.71457,0.58498,0.58984,0.58039,12.086,69.818
8.944,0.041056,0.70772,0.78448,0.56445,0.3902,12.203,69.231
8.952,0.043011,0.69892,0.9803,0.48047,0.20392,12.321,68.84
8.96,0.045943,0.69013,1,0.37109,0.16863,12.438,68.253
8.968,0.047898,0.68035,0.70443,0.33008,0.4098,12.595,67.666
8.976,0.050831,0.66862,0.47044,0.39453,0.6451,12.712,67.08
8.984,0.052786,0.65689,0.36946,0.49414,0.76078,12.712,66.493
8.992,0.055718,0.64223,0.35961,0.56445,0.78039,12.751,66.102
9,0.058651,0.62659,0.37562,0.60547,0.78039,12.829,65.515
9.008,0.060606,0.60899,0.38054,0.625,0.78039,12.907,64.928
9.016,0.063539,0.5914,0.38547,0.63477,0.78039,12.947,64.537
9.024,0.066471,0.5738,0.39039,0.64062,0.77647,13.025,64.146
9.032,0.069404,0.55718,0.39532,0.64453,0.77647,12.947,63.559
9.04,0.071359,0.53959,0.40025,0.65039,0.76667,12.907,63.168
9.048,0.074291,0.52102,0.4101,0.65039,0.76078,12.829,62.777
9.056,0.077224,0.50342,0.41502,0.65039,0.7549,12.712,62.19
9.064,0.080156,0.48778,0.41995,0.6543,0.75098,12.595,61.799
9.072,0.083089,0.4741,0.4298,0.6543,0.74118,12.438,61.408
9.08,0.086022,0.46139,0.43473,0.6543,0.74118,12.399,60.821
9.088,0.088954,0.45161,0.44951,0.6543,0.73137,12.321,60.43
9.096,0.092864,0.44282,0.45443,0.66016,0.72549,12.321,60.039
9.104,0.095797,0.43695,0.46552,0.66406,0.71569,12.399,59.648
9.112,0.098729,0.43109,0.4803,0.66406,0.70588,12.438,59.257
9.12,0.10166,0.42815,0.5,0.66992,0.6902,12.516,58.866
9.128,0.10459,0.42522,0.52463,0.67969,0.67059,12.438,58.475
9.136,0.10753,0.42326,0.54557,0.68945,0.65098,12.321,58.083
9.144,0.11144,0.42131,0.58005,0.69531,0.62549,12.125,58.279
9.152,0.11437,0.41838,0.60961,0.69922,0.6,11.969,58.866
9.16,0.11828,0.41642,0.63054,0.69922,0.58039,11.773,61.213
9.168,0.12121,0.41349,0.65025,0.69922,0.56471,11.578,65.124
9.176,0.12414,0.41056,0.65517,0.69922,0.5549,11.382,70.6
9.184,0.12708,0.40762,0.6601,0.69531,0.55098,11.186,77.249
9.192,0.13001,0.40371,0.64532,0.68945,0.56078,11.069,84.485
9.2,0.13196,0.3998,0.61946,0.68555,0.58039,10.874,91.721
9.208,0.1349,0.39492,0.58498,0.66992,0.61569,10.756,98.566
9.216,0.13685,0.39003,0.54557,0.66406,0.6451,10.639,104.82
9.224,0.13881,0.38612,0.51478,0.6543,0.67647,10.521,109.91
9.232,0.13978,0.38221,0.4803,0.64453,0.7,10.248,113.43
9.24,0.14076,0.37732,0.46059,0.63477,0.71569,10.091,115.78
9.248,0.14076,0.37243,0.44951,0.62891,0.72157,9.9348,116.75
9.256,0.14076,0.36657,0.43473,0.61914,0.73137,9.7783,116.95
9.264,0.14076,0.3607,0.4298,0.61914,0.73137,9.7001,116.36
9.272,0.14076,0.35484,0.4298,0.61914,0.73529,9.7001,115.19
9.28,0.14076,0.34897,0.4298,0.61914,0.73529,9.7001,113.82
9.288,0.13978,0.34311,0.4298,0.61914,0.73529,9.7783,112.06
9.296,0.13783,0.33724,0.4298,0.61914,0.73529,9.7783,110.1
9.304,0.13587,0.33138,0.4298,0.625,0.73529,9.8175,108.15
9.312,0.13294,0.32551,0.43473,0.625,0.73137,9.8175,106
9.32,0.13001,0.3216,0.43966,0.625,0.73137,9.8957,104.24
9.328,0.12708,0.31769,0.44458,0.61914,0.72549,9.9348,102.28
9.336,0.12414,0.31378,0.44458,0.61914,0.72549,10.091,100.52
9.344,0.12121,0.3089,0.44951,0.61914,0.72549,10.209,98.761
9.352,0.11828,0.30401,0.44951,0.625,0.72157,10.326,97.001
9.36,0.11437,0.29912,0.44951,0.625,0.72157,10.404,95.241
9.368,0.11046,0.29521,0.45443,0.625,0.72157,10.521,93.481
9.376,0.10557,0.2913,0.45443,0.625,0.72157,10.639,91.525
9.384,0.10166,0.28641,0.44951,0.625,0.72157,10.834,89.374
9.392,0.096774,0.28152,0.44951,0.625,0.72157,10.952,87.027
9.4,0.092864,0.27566,0.44951,0.625,0.72549,11.069,84.289
9.408,0.089932,0.26979,0.44951,0.625,0.72549,11.186,81.943
9.416,0.086022,0.26588,0.45443,0.62891,0.72157,11.343,79.596
9.424,0.084066,0.26491,0.47044,0.64062,0.71569,11.46,77.445
9.432,0.081134,0.26882,0.48522,0.64453,0.7,11.578,75.685
9.44,0.080156,0.28055,0.49507,0.6543,0.6902,11.578,74.316
9.448,0.078201,0.30205,0.50985,0.66406,0.67647,11.656,72.947
9.456,0.077224,0.33431,0.54557,0.67969,0.6549,11.656,71.969
9.464,0.076246,0.37634,0.56527,0.68555,0.64118,11.656,70.991
9.472,0.076246,0.42522,0.5702,0.66406,0.62941,11.656,70.404
9.48,0.077224,0.47605,0.56034,0.64453,0.62941,11.656,70.209
9.488,0.077224,0.5259,0.54557,0.63477,0.6451,11.656,70.209
9.496,0.078201,0.57185,0.51478,0.625,0.66471,11.578,70.209
9.504,0.079179,0.61095,0.4803,0.61523,0.7,11.578,70.209
9.512,0.080156,0.64321,0.44458,0.60938,0.72549,11.578,70.209
9.52,0.082111,0.66667,0.41995,0.60547,0.74118,11.656,70.404
9.528,0.083089,0.68231,0.4101,0.59961,0.75098,11.656,70.795
9.536,0.085044,0.69697,0.4101,0.59961,0.75098,11.578,71.186
9.544,0.086999,0.7087,0.40025,0.5957,0.75098,11.578,71.186
9.552,0.088954,0.7175,0.40025,0.5957,0.7549,11.499,70.795
9.56,0.090909,0.72336,0.40025,0.58984,0.7549,11.578,70.404
9.568,0.092864,0.7263,0.40517,0.58984,0.7549,11.656,70.209
9.576,0.094819,0.72727,0.4101,0.59961,0.75098,11.773,70.209
9.584,0.097752,0.7263,0.42488,0.61523,0.74118,11.812,70.209
9.592,0.099707,0.72239,0.46552,0.61914,0.7,11.969,70.013
9.6,0.10264,0.7175,0.57512,0.5957,0.59608,12.086,69.818
9.608,0.10655,0.71163,0.75985,0.57422,0.41569,12.203,69.426
9.616,0.10948,0.70381,0.96552,0.49414,0.21373,12.321,69.035
9.624,0.11241,0.69599,1.0049,0.38477,0.16471,12.438,68.449
9.632,0.11632,0.68622,0.73522,0.33594,0.37451,12.595,67.862
9.64,0.11926,0.67644,0.49015,0.39062,0.62549,12.712,67.471
9.648,0.12219,0.66471,0.38054,0.49023,0.75098,12.751,66.884
9.656,0.1261,0.65103,0.36453,0.57031,0.77647,12.829,66.297
9.664,0.12903,0.63636,0.36946,0.61523,0.78039,12.907,65.711
9.672,0.13196,0.61975,0.38054,0.63477,0.78039,12.947,65.319
9.68,0.1349,0.60117,0.38547,0.64062,0.78039,13.025,64.733
9.688,0.13783,0.5826,0.39039,0.64453,0.77647,13.064,64.342
9.696,0.14076,0.56207,0.40025,0.64453,0.77059,13.064,63.755
9.704,0.14467,0.54252,0.4101,0.65039,0.76078,13.025,63.364
9.712,0.14761,0.52297,0.41502,0.6543,0.7549,12.947,62.973
9.72,0.15152,0.50635,0.41995,0.6543,0.7549,12.829,62.386
9.728,0.1564,0.49267,0.4298,0.6543,0.75098,12.712,61.995
9.736,0.16031,0.47801,0.43966,0.6543,0.74118,12.634,61.408
9.744,0.1652,0.4653,0.44951,0.66016,0.73529,12.595,61.213
9.752,0.17009,0.45455,0.45443,0.66406,0.73137,12.595,60.821
9.76,0.17498,0.44575,0.46552,0.66992,0.72157,12.634,60.43
9.768,0.18084,0.43793,0.4803,0.67578,0.7098,12.712,60.039
9.776,0.18768,0.43206,0.49507,0.67969,0.7,12.751,59.648
9.784,0.1955,0.42815,0.50985,0.67969,0.68627,12.751,59.061
9.792,0.20528,0.42424,0.53448,0.68555,0.67059,12.712,58.67
9.8,0.21505,0.42229,0.56034,0.69531,0.6451,12.595,58.279
9.808,0.22483,0.41935,0.5899,0.69922,0.62549,12.438,58.279
9.816,0.2346,0.4174,0.61946,0.70508,0.6,12.282,59.061
9.824,0.24438,0.41544,0.64532,0.70898,0.57451,12.125,61.213
9.832,0.25513,0.41447,0.66502,0.70898,0.56078,12.008,65.124
9.84,0.26882,0.41153,0.6798,0.70898,0.55098,11.89,70.991
9.848,0.2825,0.40958,0.6798,0.70508,0.55098,11.812,78.227
9.856,0.3001,0.40567,0.66502,0.69531,0.56078,11.695,85.854
9.864,0.31672,0.40274,0.63547,0.68945,0.58039,11.656,93.481
9.872,0.33724,0.39785,0.60468,0.67969,0.6098,11.578,100.72
9.88,0.35679,0.39394,0.56527,0.66992,0.64118,11.499,107.17
9.888,0.3783,0.38905,0.52956,0.66016,0.66471,11.499,112.65
9.896,0.3998,0.38416,0.5,0.64453,0.68627,11.46,116.36
9.904,0.41935,0.3783,0.47537,0.64062,0.70588,11.382,118.32
9.912,0.43988,0.37341,0.46059,0.62891,0.71569,11.343,119.1
9.92,0.45748,0.36852,0.44951,0.625,0.72549,11.265,118.9
9.928,0.47605,0.36461,0.44458,0.61914,0.73137,11.186,117.93
9.936,0.49462,0.35973,0.44458,0.61523,0.73137,11.147,116.36
9.944,0.5132,0.35386,0.43966,0.61523,0.73137,11.03,114.6
9.952,0.53275,0.348,0.44458,0.61523,0.73137,10.874,112.84
9.96,0.55132,0.34311,0.44951,0.61914,0.72549,10.717,110.89
9.968,0.56794,0.33724,0.45443,0.61914,0.72157,10.443,108.74
9.976,0.58553,0.33236,0.45443,0.61914,0.72157,10.13,106.78
9.984,0.60117,0.32649,0.45443,0.625,0.71569,10.013,104.63
9.992,0.61584,0.3216,0.45443,0.625,0.71569,10.248,102.67
10,0.63245,0.31574,0.45443,0.625,0.71569,10.639,100.72
10.008,0.64809,0.31085,0.46059,0.62891,0.71569,11.069,98.957
10.016,0.66471,0.30694,0.46059,0.62891,0.71569,11.382,97.197
10.024,0.68133,0.30303,0.46059,0.62891,0.71569,11.578,95.437
10.032,0.69892,0.30108,0.46552,0.63477,0.7098,11.812,93.677
10.04,0.71554,0.29717,0.46552,0.63477,0.7098,12.321,91.721
10.048,0.73314,0.29326,0.46059,0.63477,0.7098,13.025,89.57
10.056,0.74976,0.28837,0.46059,0.63477,0.7098,13.963,87.223
10.064,0.76637,0.2825,0.46059,0.63477,0.7098,14.746,84.876
10.072,0.78201,0.27664,0.46059,0.63477,0.71569,15.215,82.334
10.08,0.79765,0.27175,0.46059,0.63477,0.7098,15.059,79.987
10.088,0.81329,0.27077,0.47537,0.64062,0.70588,14.628,78.031
10.096,0.83089,0.27566,0.49507,0.6543,0.6902,14.081,76.271
10.104,0.84946,0.28935,0.50493,0.66406,0.68627,13.69,74.902
10.112,0.86901,0.31378,0.51478,0.66992,0.67647,13.494,73.729
10.12,0.88954,0.34409,0.55049,0.68555,0.65098,13.455,72.947
10.128,0.90811,0.37928,0.57512,0.68945,0.63529,13.572,72.555
10.136,0.92669,0.42522,0.58005,0.67578,0.62941,13.768,72.164
10.144,0.94526,0.47605,0.5702,0.6543,0.62941,13.963,72.164
10.152,0.96285,0.52786,0.56034,0.64453,0.63529,14.081,72.164
10.16,0.98143,0.57576,0.53941,0.63477,0.65098,14.198,72.36
10.168,1,0.61681,0.50985,0.625,0.67647,14.315,72.36
10.176,1,0.65103,0.47537,0.61523,0.7,14.315,72.555
10.184,1,0.67742,0.44951,0.60547,0.71569,14.315,72.751
10.192,1,0.69892,0.43966,0.60547,0.72549,14.315,72.751
10.2,1,0.71457,0.43473,0.60547,0.73137,14.394,72.947
10.208,1,0.7263,0.43473,0.60547,0.73137,14.589,72.751
10.216,1,0.73412,0.4298,0.60547,0.73137,14.707,72.751
10.224,1,0.73803,0.4298,0.59961,0.73137,14.824,72.555
10.232,1,0.739,0.4298,0.59961,0.73137,14.902,72.164
10.24,1,0.73803,0.4298,0.60547,0.73529,14.902,71.578
10.248,1,0.73607,0.43966,0.61523,0.72157,14.902,70.795
10.256,1,0.73216,0.48522,0.61914,0.68627,14.824,70.404
10.264,1,0.72727,0.59975,0.60547,0.58431,14.824,70.209
10.272,1,0.72043,0.80542,0.58398,0.4098,14.824,69.818
10.28,1,0.71261,1.0246,0.51953,0.21961,14.902,69.426
10.288,1,0.70283,1.0702,0.40039,0.16863,14.941,69.035
10.296,1,0.69306,0.80542,0.33594,0.36471,15.02,68.449
10.304,1,0.68133,0.53941,0.39062,0.6,15.059,67.862
10.312,1,0.66862,0.4101,0.49414,0.73137,15.137,67.275
10.32,1,0.65591,0.38547,0.58008,0.76078,15.254,66.884
10.328,1,0.64223,0.38547,0.61914,0.76667,15.372,66.297
10.336,1,0.62757,0.39039,0.64062,0.76667,15.45,65.906
10.344,1,0.60997,0.39532,0.64453,0.76078,15.45,65.515
10.352,1,0.5914,0.40025,0.65039,0.76078,15.372,65.124
10.36,1,0.57185,0.4101,0.65039,0.7549,15.332,64.537
10.368,1,0.5523,0.41502,0.65039,0.75098,15.332,64.146
10.376,1,0.53275,0.41995,0.6543,0.75098,15.215,63.755
10.384,1,0.51515,0.4298,0.6543,0.7451,15.215,63.168
10.392,1,0.49853,0.4298,0.66016,0.74118,15.215,62.777
10.4,1,0.48387,0.43473,0.66016,0.73529,15.254,62.386
10.408,1,0.47116,0.44458,0.66016,0.73137,15.372,61.995
10.416,1,0.46041,0.44951,0.66016,0.72549,15.372,61.408
10.424,1,0.45259,0.46059,0.66406,0.71569,15.254,61.017
10.432,1,0.4477,0.47044,0.66406,0.7098,15.02,60.43
10.44,1,0.44282,0.48522,0.66992,0.69608,14.824,60.039
10.448,1,0.43793,0.5,0.67578,0.6902,14.628,59.452
10.456,1,0.435,0.51478,0.67969,0.67647,14.511,58.866
10.464,1,0.43206,0.53941,0.68555,0.6549,14.315,58.475
10.472,1,0.42913,0.5702,0.68945,0.62941,14.12,58.279
10.48,1,0.42717,0.60468,0.69531,0.60588,13.963,58.866
10.488,1,0.42424,0.63054,0.69922,0.58039,13.768,61.017
10.496,1,0.42131,0.65025,0.69922,0.56471,13.651,65.319
10.504,1,0.41838,0.6601,0.69922,0.5549,13.455,71.773
10.512,1,0.41544,0.6601,0.68945,0.5549,13.338,79.987
10.52,1,0.41251,0.64039,0.68555,0.56471,13.181,88.592
10.528,1,0.40958,0.61453,0.67969,0.58431,13.025,97.197
10.536,1,0.40567,0.58005,0.66992,0.61569,12.829,105.02
10.544,1,0.40176,0.53941,0.66406,0.6451,12.634,111.67
10.552,1,0.39687,0.50985,0.66016,0.67059,12.595,116.56
10.56,1,0.39101,0.47537,0.64453,0.69608,12.516,119.69
10.568,1,0.38612,0.44951,0.64062,0.7098,12.438,121.25
10.576,1,0.38025,0.4298,0.63477,0.72549,12.321,121.25
10.584,1,0.37439,0.41995,0.625,0.73529,12.125,120.47
10.592,1,0.36852,0.41502,0.61914,0.74118,11.969,118.9
10.6,1,0.36266,0.41502,0.61914,0.74118,11.812,116.95
10.608,1,0.35679,0.4101,0.61914,0.74118,11.773,114.8
10.616,1,0.35191,0.41502,0.61523,0.74118,11.773,112.65
10.624,1,0.348,0.41502,0.61523,0.73529,11.656,110.5
10.632,1,0.34409,0.41995,0.61523,0.73529,11.499,108.34
10.64,1,0.34018,0.41995,0.61523,0.73529,11.382,106
10.648,1,0.33529,0.42488,0.61523,0.73529,11.265,103.65
10.656,1,0.3304,0.4298,0.61914,0.73137,11.186,101.5
10.664,1,0.32551,0.43473,0.61914,0.73137,11.186,99.739
10.672,1,0.32063,0.43473,0.61914,0.73137,11.186,98.175
10.68,1,0.31574,0.43473,0.61914,0.73137,11.186,96.61
10.688,1,0.31183,0.43473,0.61914,0.73137,11.186,95.046
10.696,1,0.30694,0.43473,0.625,0.72549,11.186,93.481
10.704,0.98338,0.30205,0.43473,0.625,0.73137,11.186,91.525
10.712,0.96774,0.29717,0.43473,0.61914,0.73137,11.186,89.57
10.72,0.94721,0.29228,0.43473,0.61914,0.73137,11.186,87.223
10.728,0.92766,0.28837,0.43473,0.61914,0.73137,11.186,84.876
10.736,0.90714,0.28152,0.43473,0.61914,0.73137,11.265,82.334
10.744,0.88661,0.27566,0.43473,0.61914,0.72549,11.343,79.987
10.752,0.8651,0.27175,0.44951,0.62891,0.71569,11.499,78.031
10.76,0.8436,0.2737,0.46552,0.64062,0.70588,11.812,76.076
10.768,0.82405,0.28543,0.47537,0.65039,0.7,12.125,74.707
10.776,0.8045,0.30987,0.49015,0.66016,0.6902,12.321,73.533
10.784,0.7869,0.34506,0.52463,0.67578,0.67059,12.321,72.555
10.792,0.76931,0.39198,0.55049,0.68555,0.65098,12.125,71.773
10.8,0.75073,0.44477,0.55542,0.66406,0.64118,11.969,70.991
10.808,0.73314,0.49951,0.55049,0.65039,0.64118,11.773,70.404
10.816,0.71359,0.54643,0.53448,0.64062,0.6451,11.695,70.209
10.824,0.69501,0.58651,0.50985,0.625,0.66471,11.656,70.404
10.832,0.67644,0.62366,0.47537,0.61523,0.6902,11.656,70.795
10.84,0.65689,0.65591,0.43966,0.60547,0.72157,11.656,71.578
10.848,0.63832,0.68231,0.41502,0.60547,0.73529,11.656,71.969
10.856,0.61877,0.70186,0.40025,0.59961,0.75098,11.656,72.164
10.864,0.60117,0.71652,0.39039,0.5957,0.7549,11.773,72.164
10.872,0.58456,0.72727,0.39039,0.5957,0.7549,11.969,72.164
10.88,0.56794,0.73412,0.39532,0.5957,0.7549,12.203,71.969
10.888,0.5523,0.73803,0.39532,0.58984,0.75098,12.321,71.578
10.896,0.53568,0.739,0.39532,0.58984,0.75098,12.321,70.795
10.904,0.52004,0.73705,0.39532,0.5957,0.75098,12.203,70.404
10.912,0.50342,0.73412,0.40517,0.60547,0.74118,12.125,70.209
10.92,0.4868,0.73118,0.44458,0.59961,0.7098,12.125,70.209
10.928,0.47214,0.72532,0.53941,0.58398,0.6098,12.203,70.013
10.936,0.45846,0.7175,0.7303,0.56445,0.43922,12.321,69.622
10.944,0.44477,0.7087,0.94951,0.5,0.22941,12.438,69.035
10.952,0.43206,0.69892,1.0099,0.39062,0.16863,12.634,68.644
10.96,0.4174,0.68817,0.77463,0.33008,0.34902,12.829,68.057
10.968,0.40371,0.67644,0.51478,0.38086,0.59608,13.064,67.471
10.976,0.38905,0.66276,0.38054,0.47461,0.74118,13.338,66.884
10.984,0.37439,0.64907,0.35468,0.55469,0.77647,13.494,66.493
10.992,0.35973,0.63343,0.35961,0.59961,0.78039,13.69,65.906
11,0.34409,0.61584,0.36946,0.61914,0.78039,13.768,65.515
11.008,0.32942,0.59726,0.36946,0.625,0.78039,13.69,64.928
11.016,0.31574,0.57967,0.37562,0.63477,0.77647,13.494,64.537
11.024,0.30205,0.56207,0.38547,0.64062,0.77059,13.377,63.95
11.032,0.28935,0.54252,0.39039,0.64062,0.76667,13.259,63.364
11.04,0.27859,0.52297,0.40025,0.64453,0.76667,13.181,62.973
11.048,0.26686,0.50342,0.4101,0.64453,0.76078,13.181,62.386
11.056,0.25513,0.48583,0.41502,0.64453,0.7549,13.181,61.995
11.064,0.24438,0.46921,0.41995,0.64453,0.75098,13.064,61.408
11.072,0.23363,0.45552,0.4298,0.65039,0.74118,12.947,61.017
11.08,0.2219,0.44379,0.43473,0.6543,0.73529,12.829,60.626
11.088,0.21212,0.43402,0.44951,0.6543,0.73137,12.907,60.235
11.096,0.20235,0.42717,0.46059,0.66016,0.71569,13.025,59.844
11.104,0.19355,0.42033,0.47537,0.66406,0.70588,13.064,59.452
11.112,0.18475,0.41642,0.49015,0.66992,0.6902,13.064,58.866
11.12,0.17693,0.41251,0.50985,0.67578,0.67647,12.947,58.475
11.128,0.16911,0.41056,0.53448,0.68555,0.6549,12.751,58.083
11.136,0.16227,0.4086,0.56034,0.68945,0.64118,12.595,57.888
11.144,0.15543,0.40567,0.5899,0.69922,0.61569,12.438,58.475
11.152,0.14858,0.40371,0.61946,0.69922,0.5902,12.438,60.235
11.16,0.14272,0.40078,0.63547,0.70508,0.57059,12.399,64.146
11.168,0.13783,0.39785,0.65025,0.70508,0.56078,12.282,69.622
11.176,0.13294,0.39394,0.65517,0.69922,0.5549,12.086,76.662
11.184,0.12903,0.39101,0.64039,0.69531,0.56078,11.89,84.094
11.192,0.12512,0.38612,0.61453,0.68945,0.58039,11.773,91.721
11.2,0.12317,0.38221,0.58005,0.68555,0.61569,11.656,98.957
11.208,0.12121,0.37732,0.54557,0.67969,0.6451,11.578,105.61
11.216,0.11828,0.37341,0.50985,0.66406,0.68039,11.499,110.89
11.224,0.11535,0.3695,0.47537,0.6543,0.70588,11.382,114.8
11.232,0.11241,0.36559,0.44951,0.64453,0.72157,11.186,117.14
11.24,0.10948,0.35973,0.4298,0.64062,0.73529,10.952,118.32
11.248,0.10655,0.35386,0.41995,0.63477,0.74118,10.834,118.32
11.256,0.10362,0.34897,0.41995,0.625,0.7451,10.717,117.54
11.264,0.10068,0.34311,0.41502,0.625,0.7451,10.756,116.36
11.272,0.097752,0.33724,0.41502,0.61914,0.7451,10.874,114.6
11.28,0.092864,0.33138,0.41502,0.61914,0.7451,11.069,112.65
11.288,0.088954,0.32551,0.41502,0.61914,0.74118,11.147,110.69
11.296,0.083089,0.31965,0.41995,0.61914,0.74118,11.147,108.54
11.304,0.078201,0.31378,0.42488,0.61914,0.73529,11.03,106.39
11.312,0.071359,0.30792,0.4298,0.61914,0.73529,10.874,104.43
11.32,0.063539,0.30401,0.43473,0.61914,0.73137,10.756,102.28
11.328,0.055718,0.3001,0.43966,0.61914,0.73137,10.717,100.33
11.336,0.046921,0.29521,0.43966,0.61914,0.72549,10.639,98.37
11.344,0.040078,0.29032,0.44458,0.61914,0.72549,10.639,96.61
11.352,0.033236,0.28543,0.44951,0.61914,0.72549,10.639,94.85
11.36,0.026393,0.28152,0.44458,0.625,0.72549,10.717,93.09
11.368,0.020528,0.27664,0.44458,0.61914,0.72549,10.756,90.939
11.376,0.013685,0.27175,0.44458,0.61914,0.72549,10.874,88.983
11.384,0.0068426,0.26588,0.43966,0.61914,0.72549,11.03,86.636
11.392,0.0029325,0.26002,0.43966,0.625,0.72549,11.186,84.289
11.4,0,0.25318,0.43966,0.625,0.73137,11.46,81.747
11.408,0,0.24829,0.44458,0.625,0.72157,11.773,79.4
11.416,0,0.24536,0.45443,0.63477,0.7098,12.125,77.249
11.424,0,0.24829,0.47044,0.64453,0.7,12.438,75.489
11.432,0,0.25709,0.48522,0.6543,0.6902,12.438,73.924
11.44,0,0.27664,0.49507,0.66016,0.68627,12.282,72.751
11.448,0,0.30694,0.52463,0.67578,0.66471,12.008,71.773
11.456,0,0.34897,0.55542,0.68555,0.6451,11.89,70.795
11.464,0,0.3998,0.56527,0.66992,0.63529,11.773,70.404
11.472,0,0.45455,0.56034,0.6543,0.63529,11.773,70.209
11.48,0,0.50831,0.55049,0.65039,0.64118,11.773,70.209
11.488,0,0.55914,0.52956,0.64062,0.6549,11.773,70.209
11.496,0,0.60313,0.5,0.625,0.68039,11.89,70.209
11.504,0,0.6393,0.46552,0.61914,0.7098,12.008,70.209
11.512,0,0.66862,0.43473,0.60938,0.73137,12.125,70.209
11.52,0,0.68817,0.42488,0.60547,0.74118,12.203,70.209
11.528,0,0.70283,0.41995,0.60547,0.74118,12.125,70.209
11.536,0,0.71457,0.41502,0.60547,0.74118,12.008,70.209
11.544,0,0.72434,0.41502,0.60547,0.74118,11.89,70.209
11.552,0,0.73021,0.41502,0.59961,0.7451,11.812,70.209
11.56,0,0.73412,0.41502,0.59961,0.74118,11.89,70.209
11.568,0,0.73509,0.41502,0.59961,0.74118,12.008,70.209
11.576,0,0.73412,0.41995,0.61523,0.7451,12.282,70.209
11.584,0,0.73021,0.45443,0.61914,0.71569,12.516,70.013
11.592,0,0.72434,0.53448,0.60547,0.62941,12.712,69.818
11.6,0,0.7175,0.69951,0.58984,0.47059,12.829,69.231
11.608,0,0.7087,0.91995,0.53906,0.26471,12.829,68.84
11.616,0,0.6999,1.0099,0.42969,0.15882,12.829,68.253
11.624,0,0.69013,0.8399,0.34961,0.28431,12.907,67.862
11.632,0,0.6784,0.5702,0.37109,0.5451,13.025,67.275
11.64,0,0.66667,0.40517,0.46484,0.72157,13.142,66.688
11.648,0,0.652,0.35961,0.56055,0.77059,13.338,66.297
11.656,0,0.63636,0.36946,0.60938,0.77647,13.377,65.711
11.664,0,0.61975,0.38054,0.63477,0.77647,13.377,65.319
11.672,0,0.60117,0.38547,0.64453,0.77647,13.338,64.733
11.68,0.001955,0.58162,0.39039,0.65039,0.77647,13.259,64.342
11.688,0.0029325,0.56109,0.40025,0.6543,0.77059,13.259,63.755
11.696,0.0048876,0.53959,0.40517,0.6543,0.76667,13.181,63.168
11.704,0.0058651,0.52004,0.4101,0.66016,0.76078,13.064,62.777
11.712,0.0078201,0.50049,0.41502,0.66016,0.7549,12.947,62.19
11.72,0.0087977,0.48485,0.4298,0.66406,0.75098,12.829,61.799
11.728,0.0097752,0.47116,0.43966,0.66406,0.73529,12.634,61.408
11.736,0.01173,0.45846,0.44951,0.66406,0.73137,12.516,60.821
11.744,0.012708,0.44673,0.45443,0.66992,0.72157,12.438,60.43
11.752,0.014663,0.43695,0.46552,0.66992,0.71569,12.438,60.039
11.76,0.016618,0.42815,0.4803,0.66992,0.7098,12.595,59.648
11.768,0.018573,0.42229,0.49015,0.67969,0.69608,12.829,59.061
11.776,0.020528,0.4174,0.5,0.68555,0.68627,13.142,58.67
11.784,0.022483,0.41349,0.5197,0.68945,0.67647,13.377,58.279
11.792,0.025415,0.41153,0.53941,0.69922,0.6549,13.455,57.888
11.8,0.029326,0.4086,0.5702,0.70508,0.63529,13.181,57.692
11.808,0.032258,0.40665,0.60468,0.70898,0.60588,12.829,58.083
11.816,0.036168,0.40567,0.63054,0.70898,0.58039,12.399,59.452
11.824,0.040078,0.40371,0.65025,0.71484,0.56471,12.008,62.582
11.832,0.043988,0.40176,0.66995,0.70898,0.5549,11.773,67.471
11.84,0.047898,0.3998,0.66995,0.70898,0.55098,11.499,73.729
11.848,0.052786,0.39589,0.6601,0.70508,0.5549,11.382,80.965
11.856,0.056696,0.39296,0.63054,0.69922,0.57451,11.265,88.201
11.864,0.060606,0.38807,0.59975,0.68945,0.60588,11.147,95.437
11.872,0.063539,0.38416,0.56527,0.67969,0.63529,11.03,102.28
11.88,0.067449,0.37928,0.52956,0.66406,0.66078,10.874,107.95
11.888,0.071359,0.37341,0.49507,0.6543,0.68627,10.756,112.26
11.896,0.074291,0.36852,0.47044,0.64453,0.70588,10.639,115.38
11.904,0.077224,0.36266,0.45443,0.64062,0.72157,10.521,117.14
11.912,0.080156,0.35777,0.43966,0.63477,0.73137,10.443,117.73
11.92,0.082111,0.35288,0.43473,0.625,0.73529,10.639,117.54
11.928,0.084066,0.34897,0.4298,0.61914,0.74118,11.03,116.75
11.936,0.085044,0.34409,0.4298,0.61914,0.74118,11.265,115.38
11.944,0.086022,0.33822,0.4298,0.61914,0.74118,11.343,113.62
11.952,0.085044,0.33333,0.4298,0.61914,0.73529,11.147,111.67
11.96,0.084066,0.32747,0.43473,0.61914,0.73137,10.874,109.52
11.968,0.082111,0.3216,0.43473,0.61914,0.73137,10.717,107.37
11.976,0.080156,0.31574,0.43473,0.61914,0.73137,10.521,105.02
11.984,0.077224,0.31085,0.43966,0.61914,0.72549,10.443,102.87
11.992,0.074291,0.30499,0.44458,0.61914,0.72157,10.521,100.72
12,0.071359,0.29912,0.44951,0.625,0.72157,10.561,98.957
12.008,0.068426,0.29326,0.44951,0.625,0.72157,10.561,97.197
12.016,0.064516,0.28935,0.45443,0.625,0.72549,10.639,95.437
12.024,0.060606,0.28641,0.44951,0.625,0.72549,10.717,93.677
12.032,0.056696,0.2825,0.44951,0.625,0.72549,10.756,91.917
12.04,0.052786,0.27859,0.44951,0.625,0.72549,10.874,89.961
12.048,0.048876,0.2737,0.44951,0.625,0.72549,11.03,87.614
12.056,0.045943,0.26784,0.44951,0.625,0.72549,11.186,85.267
12.064,0.043988,0.261,0.44951,0.625,0.72157,11.46,82.921
12.072,0.042033,0.25513,0.44951,0.625,0.71569,11.812,80.574
12.08,0.040078,0.25024,0.46059,0.64062,0.7098,12.321,78.227
12.088,0.038123,0.25122,0.47537,0.65039,0.7,12.712,76.271
12.096,0.037146,0.25904,0.49015,0.66016,0.6902,12.751,74.707
12.104,0.035191,0.27761,0.5,0.66406,0.68627,12.595,73.338
12.112,0.035191,0.30792,0.52956,0.67969,0.66471,12.321,72.164
12.12,0.034213,0.34213,0.56034,0.69531,0.6451,12.125,70.991
12.128,0.035191,0.38123,0.56527,0.67969,0.63529,12.008,70.404
12.136,0.035191,0.43011,0.56034,0.66406,0.63529,11.89,70.209
12.144,0.036168,0.48289,0.55049,0.6543,0.64118,11.812,70.209
12.152,0.037146,0.5347,0.53448,0.64062,0.65098,11.812,70.209
12.16,0.039101,0.58162,0.5,0.625,0.68039,11.812,70.209
12.168,0.041056,0.6217,0.46059,0.61914,0.70588,11.773,70.209
12.176,0.043011,0.65494,0.43473,0.61523,0.72549,11.773,70.209
12.184,0.044966,0.68133,0.41995,0.60547,0.74118,11.773,70.209
12.192,0.046921,0.70186,0.41502,0.60547,0.74118,11.695,70.209
12.2,0.048876,0.7175,0.41502,0.59961,0.7451,11.695,70.209
12.208,0.051808,0.72923,0.4101,0.59961,0.7451,11.695,70.209
12.216,0.053763,0.73607,0.4101,0.59961,0.7451,11.812,70.209
12.224,0.056696,0.739,0.4101,0.59961,0.7451,12.203,70.209
12.232,0.058651,0.73998,0.4101,0.59961,0.7451,12.751,70.209
12.24,0.061584,0.739,0.41995,0.60938,0.74118,13.181,70.209
12.248,0.064516,0.73705,0.44458,0.61523,0.71569,13.377,70.209
12.256,0.067449,0.73216,0.52463,0.59961,0.63529,13.181,69.818
12.264,0.069404,0.72532,0.68473,0.58008,0.48431,12.947,69.622
12.272,0.072336,0.7175,0.90517,0.5293,0.27451,12.751,69.035
12.28,0.075269,0.7087,1.0099,0.42969,0.1549,12.712,68.644
12.288,0.077224,0.69892,0.84975,0.3457,0.27451,12.751,68.057
12.296,0.080156,0.68719,0.58005,0.33984,0.52941,12.907,67.471
12.304,0.083089,0.67546,0.41502,0.44922,0.7098,13.025,66.884
12.312,0.085044,0.66178,0.36453,0.54492,0.77059,13.064,66.297
12.32,0.087977,0.64809,0.36946,0.59961,0.78039,13.064,65.711
12.328,0.089932,0.63343,0.37562,0.61914,0.77647,13.142,65.319
12.336,0.092864,0.61681,0.38547,0.63477,0.77647,13.142,64.733
12.344,0.096774,0.59922,0.39039,0.64062,0.77059,13.181,64.342
12.352,0.099707,0.57869,0.39532,0.64453,0.76667,13.181,63.755
12.36,0.10264,0.55816,0.40025,0.65039,0.76078,13.181,63.168
12.368,0.10557,0.53763,0.4101,0.6543,0.76078,13.259,62.777
12.376,0.1085,0.51808,0.41502,0.6543,0.7549,13.338,62.19
12.384,0.11144,0.49853,0.4298,0.6543,0.75098,13.377,61.799
12.392,0.11437,0.48192,0.43473,0.6543,0.74118,13.338,61.408
12.4,0.1173,0.46725,0.43966,0.6543,0.73529,13.064,61.017
12.408,0.11926,0.45455,0.44951,0.66016,0.73137,12.829,60.626
12.416,0.12219,0.44477,0.46059,0.66016,0.72549,12.712,60.039
12.424,0.12414,0.43793,0.47044,0.66406,0.71569,12.634,59.844
12.432,0.12708,0.43109,0.4803,0.66992,0.70588,12.634,59.257
12.44,0.13001,0.4262,0.49507,0.67578,0.6902,12.634,58.866
12.448,0.13294,0.42131,0.51478,0.67969,0.67647,12.712,58.475
12.456,0.13587,0.41838,0.53941,0.68555,0.6549,12.712,58.083
12.464,0.13881,0.41544,0.56527,0.68945,0.64118,12.751,57.888
12.472,0.14272,0.41349,0.59483,0.68945,0.61569,12.829,58.083
12.48,0.14565,0.41056,0.62438,0.69531,0.58431,12.634,59.648
12.488,0.14956,0.4086,0.65025,0.69922,0.56078,12.399,62.582
12.496,0.15347,0.40665,0.66502,0.69922,0.5451,12.008,67.275
12.504,0.15738,0.40371,0.67488,0.68945,0.5451,11.695,73.533
12.512,0.16129,0.3998,0.6601,0.68945,0.5451,11.46,80.378
12.52,0.16618,0.39785,0.64039,0.68555,0.56471,11.343,87.614
12.528,0.16911,0.39492,0.60961,0.67969,0.5902,11.186,94.85
12.536,0.17302,0.39101,0.5702,0.66406,0.61961,11.069,101.5
12.544,0.17595,0.3871,0.53448,0.66016,0.65098,11.03,107.37
12.552,0.17889,0.38123,0.5,0.65039,0.68039,11.03,111.86
12.56,0.18084,0.37634,0.47537,0.64453,0.7,11.069,114.8
12.568,0.18377,0.37048,0.45443,0.63477,0.71569,11.186,116.75
12.576,0.18573,0.36461,0.43966,0.62891,0.72157,11.343,117.54
12.584,0.18768,0.35875,0.43473,0.625,0.73137,11.265,117.54
12.592,0.18866,0.35288,0.4298,0.61914,0.73529,11.069,116.75
12.6,0.18866,0.34604,0.4298,0.61914,0.73529,10.834,115.38
12.608,0.18866,0.34018,0.4298,0.61914,0.73529,10.561,113.82
12.616,0.18866,0.33529,0.4298,0.61914,0.73137,10.443,111.86
12.624,0.18671,0.33138,0.43473,0.61914,0.73137,10.443,109.91
12.632,0.18573,0.32551,0.43473,0.61914,0.72549,10.443,107.76
12.64,0.18377,0.32063,0.43966,0.61914,0.72549,10.521,105.61
12.648,0.1828,0.31476,0.44458,0.61914,0.72549,10.521,103.26
12.656,0.17986,0.3089,0.44951,0.625,0.72157,10.561,101.3
12.664,0.17693,0.30303,0.45443,0.62891,0.72157,10.717,99.544
12.672,0.174,0.29814,0.45443,0.62891,0.71569,10.756,97.784
12.68,0.17009,0.29228,0.45443,0.63477,0.72157,10.834,96.219
12.688,0.16716,0.28837,0.46059,0.63477,0.72157,10.834,94.263
12.696,0.16422,0.28348,0.46059,0.63477,0.72157,10.952,92.308
12.704,0.16031,0.27859,0.46059,0.63477,0.72157,11.03,90.352
12.712,0.15738,0.27468,0.46059,0.62891,0.72157,11.186,88.005
12.72,0.15543,0.27175,0.45443,0.62891,0.72157,11.382,85.658
12.728,0.15347,0.26588,0.45443,0.63477,0.72157,11.695,82.921
12.736,0.15249,0.26002,0.45443,0.63477,0.72157,12.125,80.574
12.744,0.15152,0.25611,0.46552,0.64453,0.7098,12.516,78.227
12.752,0.15249,0.25513,0.48522,0.66016,0.70588,12.712,76.271
12.76,0.15347,0.261,0.5,0.66992,0.69608,12.634,74.511
12.768,0.1564,0.27664,0.50985,0.67578,0.68627,12.438,73.142
12.776,0.15934,0.30303,0.53448,0.68555,0.66471,12.203,71.969
12.784,0.16325,0.34115,0.5702,0.69531,0.6451,12.086,70.991
12.792,0.16716,0.38807,0.58498,0.68555,0.63529,12.008,70.404
12.8,0.17302,0.44086,0.57512,0.66992,0.62941,12.086,70.209
12.808,0.17791,0.49462,0.56527,0.66016,0.64118,12.086,70.209
12.816,0.18671,0.54057,0.54557,0.64453,0.65098,12.203,70.209
12.824,0.19453,0.57869,0.5197,0.63477,0.67059,12.321,70.209
12.832,0.20528,0.61584,0.4803,0.62891,0.7,12.595,70.404
12.84,0.21603,0.64809,0.44951,0.625,0.72549,12.712,70.795
12.848,0.22776,0.67449,0.43966,0.61914,0.73529,12.712,71.578
12.856,0.24047,0.69599,0.4298,0.61914,0.73529,12.634,71.969
12.864,0.25318,0.71359,0.4298,0.61914,0.74118,12.438,72.164
12.872,0.26588,0.7263,0.4298,0.61914,0.74118,12.282,72.164
12.88,0.28152,0.73509,0.4298,0.61914,0.74118,12.203,72.164
12.888,0.29814,0.74096,0.4298,0.61523,0.73529,12.203,71.969
12.896,0.31672,0.74291,0.4298,0.61914,0.73529,12.321,71.382
12.904,0.33529,0.74291,0.44458,0.62891,0.73137,12.595,70.795
12.912,0.35582,0.74096,0.47044,0.63477,0.70588,13.064,70.404
12.92,0.37732,0.73607,0.55542,0.61914,0.62549,13.572,70.209
12.928,0.3998,0.73021,0.71552,0.59961,0.47451,13.885,70.013
12.936,0.42229,0.72239,0.93966,0.55078,0.27843,13.963,69.622
12.944,0.44379,0.71457,1.0443,0.43945,0.16471,13.768,69.035
12.952,0.4653,0.70479,0.88547,0.3457,0.27843,13.651,68.449
12.96,0.48583,0.69501,0.60468,0.33984,0.52549,13.572,67.862
12.968,0.50733,0.68426,0.43473,0.46484,0.7,13.572,67.275
12.976,0.52981,0.67155,0.38547,0.56055,0.7549,13.651,66.688
12.984,0.5523,0.65689,0.39039,0.61914,0.76667,13.69,66.297
12.992,0.57674,0.64125,0.39532,0.64062,0.76667,13.768,65.711
13,0.60117,0.62366,0.40025,0.6543,0.76667,13.807,65.319
13.008,0.62366,0.60411,0.40517,0.66016,0.76078,13.807,64.733
13.016,0.64614,0.58553,0.4101,0.66406,0.76078,13.885,64.342
13.024,0.66667,0.56794,0.41995,0.66406,0.7549,13.885,63.755
13.032,0.68817,0.54839,0.42488,0.66406,0.75098,13.885,63.364
13.04,0.70968,0.52786,0.43473,0.66406,0.74118,13.807,62.973
13.048,0.73216,0.50929,0.44458,0.66992,0.73529,13.807,62.386
13.056,0.75562,0.49071,0.45443,0.66992,0.73137,13.768,61.995
13.064,0.78006,0.47507,0.46059,0.66992,0.73137,13.768,61.604
13.072,0.80547,0.46139,0.46552,0.67578,0.72157,13.807,61.408
13.08,0.83089,0.45064,0.47537,0.67969,0.71569,14.003,61.017
13.088,0.85728,0.44184,0.4803,0.68555,0.7098,14.394,60.43
13.096,0.8827,0.435,0.49507,0.68555,0.69608,14.902,60.039
13.104,0.90616,0.43109,0.51478,0.68945,0.68627,15.215,59.648
13.112,0.9306,0.42815,0.53448,0.69922,0.67059,15.137,59.257
13.12,0.9521,0.4262,0.56034,0.70508,0.65098,14.746,58.866
13.128,0.97361,0.42424,0.58498,0.70898,0.63529,14.276,58.67
13.136,0.98729,0.42326,0.61946,0.7207,0.6098,13.885,59.061
13.144,1,0.42229,0.65025,0.72461,0.58431,13.69,60.821
13.152,1,0.42033,0.66995,0.73047,0.56471,13.572,64.733
13.16,1,0.41935,0.68473,0.72461,0.5549,13.494,70.795
13.168,1,0.41642,0.68473,0.7207,0.55098,13.455,78.422
13.176,1,0.41447,0.67488,0.70898,0.5549,13.455,86.832
13.184,1,0.41153,0.65025,0.70508,0.57451,13.494,95.241
13.192,1,0.40762,0.61946,0.69922,0.6,13.651,103.26
13.2,1,0.40274,0.58005,0.68945,0.62941,13.768,110.3
13.208,1,0.39883,0.53941,0.67969,0.66078,13.807,115.58
13.216,1,0.39394,0.5,0.66406,0.68627,13.885,119.3
13.224,1,0.39003,0.47537,0.66016,0.70588,13.963,121.06
13.232,1,0.38514,0.45443,0.65039,0.72157,13.885,121.45
13.24,1,0.38025,0.44951,0.64453,0.72549,13.807,120.86
13.248,1,0.37439,0.44458,0.64062,0.73137,13.768,119.49
13.256,1,0.36852,0.43966,0.63477,0.73137,13.69,117.73
13.264,1,0.36168,0.43966,0.63477,0.73137,13.768,115.58
13.272,1,0.35582,0.43966,0.63477,0.73137,14.081,113.43
13.28,1,0.34995,0.43966,0.63477,0.72549,14.589,111.47
13.288,1,0.34409,0.44458,0.63477,0.72549,15.137,109.32
13.296,1,0.33822,0.44951,0.63477,0.72549,15.528,107.17
13.304,1,0.33333,0.44951,0.63477,0.72549,15.645,105.22
13.312,1,0.32845,0.44951,0.63477,0.72157,15.528,103.06
13.32,1,0.32551,0.45443,0.63477,0.72157,15.254,101.11
13.328,1,0.3216,0.45443,0.63477,0.72157,15.02,99.544
13.336,1,0.31672,0.45443,0.63477,0.71569,14.824,97.979
13.344,1,0.31281,0.45443,0.63477,0.71569,14.707,96.415
13.352,1,0.30792,0.45443,0.63477,0.71569,14.707,94.655
13.36,1,0.30401,0.45443,0.63477,0.71569,14.746,92.699
13.368,1,0.29912,0.44951,0.63477,0.71569,14.902,90.743
13.376,1,0.29423,0.44951,0.63477,0.71569,14.941,88.396
13.384,1,0.28837,0.44951,0.63477,0.71569,15.059,85.854
13.392,1,0.2825,0.44951,0.63477,0.72157,15.137,83.312
13.4,1,0.27664,0.44951,0.63477,0.72157,15.137,80.965
13.408,1,0.2737,0.45443,0.63477,0.71569,15.137,78.814
13.416,1,0.27566,0.47537,0.64453,0.70588,15.137,76.858
13.424,1,0.28348,0.48522,0.66016,0.69608,15.059,75.293
13.432,1,0.30205,0.49507,0.66992,0.69608,15.059,74.12
13.44,1,0.33138,0.50985,0.67969,0.68627,15.059,73.142
13.448,1,0.37341,0.53941,0.68945,0.66078,15.137,72.36
13.456,1,0.42424,0.56034,0.67969,0.6451,15.332,71.578
13.464,1,0.47996,0.56034,0.66406,0.6451,15.645,70.795
13.472,1,0.53568,0.55049,0.6543,0.6451,15.958,70.6
13.48,1,0.58749,0.52956,0.64062,0.6549,15.997,70.991
13.488,1,0.63245,0.50493,0.62891,0.67647,15.841,71.578
13.496,1,0.6696,0.47044,0.61914,0.7,15.45,72.164
13.504,1,0.69892,0.43473,0.61523,0.72549,15.137,72.36
13.512,1,0.71848,0.41502,0.60547,0.74118,14.824,72.555
13.52,1,0.73216,0.40517,0.59961,0.75098,14.589,72.751
13.528,1,0.74291,0.40025,0.59961,0.75098,14.433,72.555
13.536,1,0.75171,0.39532,0.5957,0.75098,14.315,72.555
13.544,1,0.7566,0.39532,0.5957,0.75098,14.276,72.164
13.552,1,0.75953,0.39532,0.5957,0.75098,14.276,71.578
13.56,1,0.75953,0.39532,0.5957,0.7549,14.394,70.795
13.568,1,0.75758,0.40025,0.59961,0.75098,14.433,70.404
13.576,1,0.75367,0.42488,0.61523,0.73137,14.433,70.209
13.584,1,0.7478,0.49507,0.59961,0.66078,14.315,69.818
13.592,1,0.74096,0.65025,0.58398,0.51961,14.198,69.426
13.6,1,0.73216,0.87438,0.53906,0.32353,14.081,69.035
13.608,1,0.72239,1.0148,0.43945,0.17843,14.081,68.449
13.616,1,0.71261,0.90025,0.33984,0.2549,14.003,67.862
13.624,1,0.70186,0.62438,0.32031,0.49412,14.003,67.275
13.632,1,0.69013,0.42488,0.42969,0.69608,14.12,66.688
13.64,1,0.67644,0.35468,0.52539,0.77059,14.511,66.102
13.648,1,0.66178,0.34975,0.58398,0.78627,15.02,65.711
13.656,1,0.64516,0.36453,0.61523,0.78627,15.372,65.319
13.664,1,0.62659,0.36946,0.625,0.78039,15.45,64.928
13.672,1,0.60704,0.36946,0.63477,0.78039,15.137,64.537
13.68,1,0.58651,0.37562,0.64062,0.77647,14.707,64.146
13.688,1,0.56598,0.38547,0.64062,0.77647,14.315,63.559
13.696,0.98534,0.54448,0.39039,0.64453,0.76667,14.081,63.168
13.704,0.97067,0.52493,0.39532,0.64453,0.76078,13.885,62.777
13.712,0.94819,0.50831,0.4101,0.65039,0.7549,13.768,62.19
13.72,0.92669,0.49365,0.41995,0.65039,0.75098,13.651,61.799
13.728,0.90518,0.47996,0.42488,0.6543,0.74118,13.455,61.213
13.736,0.88368,0.46725,0.43473,0.6543,0.73529,13.338,60.821
13.744,0.86413,0.4565,0.43966,0.6543,0.73137,13.259,60.235
13.752,0.84555,0.4477,0.45443,0.66016,0.72157,13.259,59.844
13.76,0.82796,0.44086,0.46059,0.66406,0.7098,13.259,59.452
13.768,0.81134,0.435,0.47537,0.66992,0.70588,13.181,59.061
13.776,0.79472,0.43109,0.49015,0.67969,0.6902,13.142,58.475
13.784,0.77713,0.42815,0.51478,0.67969,0.67059,12.947,58.279
13.792,0.76051,0.42522,0.53941,0.68555,0.65098,12.751,57.888
13.8,0.74389,0.42229,0.5702,0.69531,0.62549,12.595,58.279
13.808,0.72727,0.41935,0.60468,0.69922,0.6,12.438,59.452
13.816,0.71163,0.4174,0.62438,0.70508,0.58039,12.399,62.777
13.824,0.69697,0.41544,0.64039,0.69922,0.56471,12.516,68.057
13.832,0.68231,0.41251,0.65025,0.69531,0.56078,12.712,75.098
13.84,0.66764,0.4086,0.64039,0.68945,0.56471,12.907,82.725
13.848,0.65298,0.40371,0.62438,0.68555,0.58039,12.947,90.743
13.856,0.63832,0.39883,0.5899,0.67969,0.6,12.751,98.37
13.864,0.62366,0.39296,0.55542,0.66992,0.63529,12.399,105.41
13.872,0.60802,0.3871,0.5197,0.66016,0.66078,12.086,111.28
13.88,0.59335,0.38123,0.48522,0.65039,0.68627,11.773,115.38
13.888,0.57869,0.37439,0.45443,0.64062,0.70588,11.578,117.93
13.896,0.56305,0.36852,0.43473,0.62891,0.72157,11.343,118.9
13.904,0.54936,0.36168,0.42488,0.61914,0.73137,11.186,118.9
13.912,0.53568,0.35679,0.41995,0.61523,0.73529,11.069,118.12
13.92,0.52199,0.35191,0.41502,0.61523,0.73529,11.03,116.75
13.928,0.50831,0.34702,0.41502,0.61523,0.73529,11.069,114.99
13.936,0.49267,0.34115,0.41502,0.61914,0.74118,11.265,113.04
13.944,0.47801,0.33627,0.41502,0.61523,0.73529,11.656,111.08
13.952,0.46041,0.3304,0.41502,0.61914,0.73529,11.89,109.13
13.96,0.44379,0.32551,0.41995,0.61914,0.73529,11.969,106.98
13.968,0.42815,0.32063,0.42488,0.61914,0.73529,11.695,105.02
13.976,0.41251,0.31476,0.4298,0.61914,0.73137,11.46,102.87
13.984,0.39687,0.30987,0.43473,0.625,0.73137,11.186,101.11
13.992,0.38123,0.30499,0.43473,0.625,0.73137,11.03,99.348
14,0.36364,0.29912,0.43966,0.625,0.73137,10.952,97.784
14.008,0.34604,0.29423,0.43473,0.625,0.73137,10.952,96.024
14.016,0.32747,0.29032,0.43473,0.625,0.73137,10.952,94.263
14.024,0.30792,0.28837,0.4298,0.625,0.73137,10.952,92.503
14.032,0.28935,0.28446,0.4298,0.625,0.73137,11.03,90.352
14.04,0.27077,0.27957,0.4298,0.625,0.73137,11.147,88.201
14.048,0.2522,0.2737,0.4298,0.625,0.73137,11.265,85.658
14.056,0.2346,0.26686,0.4298,0.625,0.73137,11.382,83.116
14.064,0.21799,0.26002,0.4298,0.625,0.73137,11.499,80.769
14.072,0.20235,0.25513,0.43966,0.625,0.71569,11.578,78.422
14.08,0.18866,0.25513,0.46059,0.64062,0.70588,11.656,76.662
14.088,0.174,0.26197,0.47537,0.65039,0.69608,11.695,74.902
14.096,0.16129,0.27957,0.48522,0.66016,0.6902,11.695,73.338
14.104,0.14858,0.3089,0.50985,0.67578,0.67059,11.695,72.164
14.112,0.13685,0.34311,0.54557,0.68945,0.6451,11.695,70.991
14.12,0.1261,0.38319,0.56034,0.67969,0.63529,11.695,70.404
14.128,0.11632,0.43304,0.55542,0.66406,0.63529,11.695,70.209
14.136,0.10753,0.4868,0.54557,0.6543,0.64118,11.773,70.209
14.144,0.10068,0.54057,0.52463,0.64453,0.65098,11.969,70.209
14.152,0.094819,0.58847,0.49507,0.63477,0.67647,12.321,70.209
14.16,0.087977,0.62952,0.45443,0.61914,0.70588,12.712,70.404
14.168,0.082111,0.66276,0.42488,0.61523,0.73137,12.907,70.795
14.176,0.077224,0.68915,0.41502,0.60938,0.74118,12.751,71.382
14.184,0.071359,0.7087,0.40517,0.60547,0.7451,12.516,71.969
14.192,0.067449,0.72336,0.40025,0.59961,0.7451,12.203,71.969
14.2,0.062561,0.73314,0.40025,0.59961,0.75098,12.008,71.773
14.208,0.058651,0.73998,0.39532,0.59961,0.75098,11.89,71.382
14.216,0.055718,0.74291,0.39532,0.59961,0.75098,11.89,70.795
14.224,0.052786,0.74291,0.39532,0.59961,0.75098,11.969,70.404
14.232,0.049853,0.74194,0.40517,0.60938,0.7451,12.008,70.209
14.24,0.047898,0.739,0.4298,0.61914,0.72549,12.086,70.209
14.248,0.045943,0.73412,0.49507,0.60938,0.66078,12.203,70.013
14.256,0.043011,0.72825,0.63547,0.58984,0.51961,12.282,69.622
14.264,0.041056,0.72043,0.85468,0.55078,0.31961,12.399,69.231
14.272,0.037146,0.71163,1.0049,0.45508,0.16863,12.516,68.84
14.28,0.034213,0.70186,0.89532,0.35547,0.23333,12.712,68.253
14.288,0.031281,0.6911,0.61946,0.33984,0.48431,12.751,67.666
14.296,0.029326,0.67937,0.42488,0.43555,0.6902,12.829,67.08
14.304,0.02737,0.66569,0.35468,0.5293,0.77059,12.947,66.493
14.312,0.026393,0.652,0.34975,0.5957,0.78039,13.025,65.906
14.32,0.025415,0.63832,0.36453,0.625,0.78039,13.064,65.515
14.328,0.02346,0.6217,0.36946,0.64062,0.78039,13.064,64.928
14.336,0.022483,0.60313,0.37562,0.64453,0.77647,13.142,64.537
14.344,0.021505,0.58358,0.38547,0.64453,0.76667,13.181,63.95
14.352,0.020528,0.56305,0.39532,0.65039,0.76078,13.259,63.364
14.36,0.018573,0.54154,0.40025,0.6543,0.76078,13.494,62.777
14.368,0.017595,0.52199,0.4101,0.6543,0.7549,13.963,62.386
14.376,0.016618,0.50244,0.41502,0.6543,0.75098,14.394,61.799
14.384,0.016618,0.48485,0.42488,0.6543,0.75098,14.511,61.408
14.392,0.01564,0.47019,0.43473,0.66016,0.74118,14.198,60.821
14.4,0.01564,0.4565,0.43966,0.66016,0.73529,13.69,60.43
14.408,0.01564,0.44673,0.44951,0.66406,0.73137,13.338,60.039
14.416,0.01564,0.43988,0.46059,0.66406,0.72157,13.064,59.648
14.424,0.016618,0.43402,0.47044,0.66992,0.7098,12.947,59.257
14.432,0.016618,0.42815,0.49015,0.67969,0.69608,12.907,58.866
14.44,0.017595,0.42424,0.50493,0.68555,0.68627,12.829,58.475
14.448,0.018573,0.42131,0.52956,0.68945,0.66471,12.751,58.083
14.456,0.01955,0.41838,0.55542,0.69531,0.6451,12.634,57.692
14.464,0.021505,0.41544,0.58498,0.69922,0.61961,12.438,57.888
14.472,0.02346,0.41349,0.60961,0.70508,0.59608,12.282,59.061
14.48,0.026393,0.41153,0.63547,0.70898,0.57451,12.086,61.799
14.488,0.029326,0.4086,0.65025,0.70508,0.56078,11.89,66.493
14.496,0.032258,0.40567,0.65517,0.70508,0.5549,11.695,72.751
14.504,0.036168,0.40274,0.65025,0.69922,0.56078,11.499,79.791
14.512,0.039101,0.3998,0.63054,0.68945,0.57059,11.343,87.223
14.52,0.043011,0.39785,0.59975,0.68555,0.6,11.186,94.655
14.528,0.047898,0.39394,0.56527,0.67578,0.62941,11.069,101.5
14.536,0.051808,0.39003,0.52463,0.66406,0.66078,11.03,107.37
14.544,0.055718,0.38514,0.49015,0.66016,0.68627,10.874,112.06
14.552,0.059629,0.38025,0.46059,0.65039,0.70588,10.756,115.19
14.56,0.062561,0.37537,0.44458,0.64062,0.72157,10.639,116.95
14.568,0.066471,0.3695,0.43473,0.62891,0.73137,10.561,117.54
14.576,0.068426,0.36364,0.42488,0.625,0.73529,10.639,117.34
14.584,0.069404,0.35777,0.41995,0.61914,0.74118,10.834,116.36
14.592,0.070381,0.35093,0.41995,0.61914,0.74118,11.069,114.99
14.6,0.070381,0.34506,0.41995,0.61914,0.74118,11.147,113.43
14.608,0.070381,0.34018,0.41995,0.61914,0.73529,11.03,111.67
14.616,0.070381,0.33627,0.4298,0.61914,0.73137,10.756,109.71
14.624,0.069404,0.33138,0.43473,0.61914,0.73137,10.561,107.56
14.632,0.068426,0.32551,0.43473,0.625,0.73137,10.443,105.41
14.64,0.066471,0.31965,0.43966,0.625,0.72549,10.443,103.26
14.648,0.064516,0.31378,0.44458,0.625,0.72549,10.443,101.11
14.656,0.061584,0.30792,0.44458,0.625,0.72549,10.521,99.153
14.664,0.058651,0.30205,0.44458,0.62891,0.72549,10.639,97.197
14.672,0.054741,0.29717,0.44951,0.62891,0.72157,10.717,95.437
14.68,0.049853,0.2913,0.44951,0.63477,0.72157,10.952,93.677
14.688,0.044966,0.28641,0.44458,0.63477,0.72157,11.382,91.721
14.696,0.040078,0.2825,0.44458,0.63477,0.72157,11.969,89.57
14.704,0.036168,0.27664,0.43966,0.63477,0.72157,12.516,87.419
14.712,0.032258,0.27273,0.43966,0.62891,0.73137,12.634,85.072
14.72,0.028348,0.26882,0.43966,0.625,0.72549,12.438,82.725
14.728,0.025415,0.26393,0.44458,0.625,0.72157,12.203,80.378
14.736,0.022483,0.25904,0.45443,0.63477,0.7098,11.969,78.227
14.744,0.01955,0.25709,0.47044,0.64453,0.70588,11.89,76.467
14.752,0.017595,0.26002,0.48522,0.6543,0.69608,11.89,74.902
14.76,0.014663,0.27273,0.5,0.66406,0.68627,11.89,73.533
14.768,0.013685,0.29717,0.52463,0.67578,0.66471,11.812,72.555
14.776,0.013685,0.33236,0.56034,0.68945,0.6451,11.812,71.578
14.784,0.013685,0.37732,0.5702,0.67969,0.63529,11.812,70.795
14.792,0.013685,0.43011,0.56527,0.66406,0.63529,11.812,70.404
14.8,0.014663,0.48387,0.55542,0.6543,0.64118,11.812,70.209
14.808,0.01564,0.53079,0.53448,0.64062,0.65098,11.812,70.209
14.816,0.017595,0.56989,0.50985,0.625,0.67647,11.812,70.209
14.824,0.018573,0.60899,0.47044,0.61914,0.70588,11.773,70.209
14.832,0.020528,0.64321,0.43473,0.61523,0.72549,11.773,70.209
14.84,0.02346,0.67155,0.41995,0.60938,0.74118,11.695,70.209
14.848,0.025415,0.69404,0.41502,0.60547,0.7451,11.656,70.209
14.856,0.028348,0.71163,0.4101,0.60547,0.75098,11.656,70.209
14.864,0.030303,0.72532,0.4101,0.60547,0.75098,11.656,70.209
14.872,0.033236,0.73412,0.40517,0.60547,0.75098,11.656,70.209
14.88,0.036168,0.73998,0.40517,0.60547,0.75098,11.695,70.209
14.888,0.038123,0.74291,0.40517,0.60547,0.7549,11.812,70.209
14.896,0.041056,0.74389,0.4101,0.61523,0.75098,12.086,70.209
14.904,0.043011,0.74096,0.4298,0.61914,0.73137,12.516,70.013
14.912,0.044966,0.73705,0.49507,0.60547,0.66471,13.025,69.818
14.92,0.046921,0.73118,0.64532,0.58984,0.51961,13.377,69.426
14.928,0.048876,0.72336,0.85961,0.54492,0.31373,13.377,69.035
14.936,0.051808,0.71457,1,0.44531,0.16863,13.181,68.449
14.944,0.053763,0.70479,0.88054,0.34961,0.2451,13.025,67.862
14.952,0.055718,0.69404,0.61453,0.33008,0.49412,12.947,67.275
14.96,0.058651,0.68133,0.42488,0.42969,0.69608,12.947,66.688
14.968,0.062561,0.66862,0.35961,0.5293,0.77059,13.025,66.297
14.976,0.065494,0.65298,0.36453,0.5957,0.78039,13.142,65.711
14.984,0.069404,0.63734,0.37562,0.61914,0.78039,13.181,65.124
14.992,0.072336,0.61975,0.38054,0.63477,0.78039,13.259,64.733
15,0.075269,0.6002,0.38547,0.64062,0.77647,13.377,64.146
15.008,0.078201,0.58065,0.39039,0.64453,0.77059,13.572,63.755
15.016,0.081134,0.56109,0.40025,0.65039,0.76667,13.651,63.168
15.024,0.084066,0.54154,0.4101,0.6543,0.76078,13.651,62.777
15.032,0.086999,0.52199,0.41995,0.6543,0.7549,13.377,62.19
15.04,0.089932,0.50342,0.4298,0.6543,0.7451,13.142,61.799
15.048,0.092864,0.4868,0.43473,0.6543,0.73529,12.907,61.213
15.056,0.095797,0.47214,0.44951,0.66016,0.73137,12.712,60.821
15.064,0.097752,0.45943,0.45443,0.66016,0.72157,12.595,60.43
15.072,0.10068,0.44868,0.46552,0.66406,0.71569,12.516,60.039
15.08,0.10264,0.43891,0.47537,0.66406,0.7098,12.516,59.648
15.088,0.10557,0.43206,0.48522,0.66992,0.7,12.595,59.257
15.096,0.10753,0.4262,0.5,0.67578,0.6902,12.634,58.67
15.104,0.11046,0.42229,0.51478,0.67969,0.68039,12.829,58.279
15.112,0.11339,0.41935,0.53941,0.68945,0.66078,13.142,57.888
15.12,0.11632,0.4174,0.56527,0.69531,0.64118,13.494,57.692
15.128,0.11926,0.41544,0.5899,0.70508,0.61569,13.807,57.888
15.136,0.12317,0.41251,0.61946,0.70898,0.5902,13.807,58.866
15.144,0.12708,0.41056,0.64532,0.70898,0.57059,13.377,61.604
15.152,0.13099,0.4086,0.6601,0.71484,0.5549,12.829,65.906
15.16,0.1349,0.40567,0.66995,0.70898,0.55098,12.282,71.773
15.168,0.13881,0.40274,0.6601,0.70508,0.5549,11.812,78.618
15.176,0.14272,0.39883,0.63547,0.69922,0.57059,11.578,86.05
15.184,0.14663,0.39492,0.60468,0.69531,0.59608,11.382,93.286
15.192,0.14956,0.39101,0.56527,0.68945,0.62549,11.265,100.13
15.2,0.15249,0.38612,0.52956,0.67969,0.65098,11.147,106
15.208,0.15543,0.38221,0.49507,0.66406,0.68039,11.03,110.89
15.216,0.15738,0.37928,0.46552,0.66016,0.7,10.874,114.21
15.224,0.15934,0.37439,0.44951,0.64453,0.71569,10.834,116.17
15.232,0.16031,0.36852,0.43966,0.64062,0.72549,10.717,116.95
15.24,0.16129,0.36266,0.43473,0.63477,0.73137,10.639,116.95
15.248,0.16227,0.35679,0.4298,0.63477,0.73137,10.561,116.17
15.256,0.16325,0.35093,0.4298,0.62891,0.73137,10.521,114.99
15.264,0.16325,0.34506,0.4298,0.625,0.73529,10.521,113.23
15.272,0.16325,0.3392,0.4298,0.625,0.73137,10.521,111.47
15.28,0.16129,0.33333,0.4298,0.625,0.73137,10.521,109.52
15.288,0.16031,0.32747,0.43473,0.625,0.73137,10.521,107.37
15.296,0.15738,0.3216,0.43473,0.62891,0.72549,10.521,105.22
15.304,0.15445,0.31574,0.43966,0.62891,0.72549,10.521,103.06
15.312,0.15054,0.31183,0.43966,0.62891,0.72157,10.561,100.91
15.32,0.14663,0.30792,0.44458,0.62891,0.72157,10.717,99.153
15.328,0.14272,0.30401,0.44951,0.625,0.72157,10.952,97.393
15.336,0.13881,0.29912,0.44951,0.62891,0.72157,11.186,95.437
15.344,0.13587,0.29423,0.44951,0.62891,0.72157,11.265,93.677
15.352,0.13196,0.29032,0.44951,0.63477,0.72157,11.265,91.721
15.36,0.12805,0.28543,0.45443,0.63477,0.72157,11.147,89.57
15.368,0.12512,0.28055,0.45443,0.63477,0.72157,11.147,87.419
15.376,0.12219,0.27566,0.45443,0.63477,0.71569,11.186,84.876
15.384,0.11828,0.26979,0.45443,0.63477,0.72157,11.265,82.529
15.392,0.11535,0.26393,0.44951,0.63477,0.72157,11.382,79.987
15.4,0.11339,0.25904,0.46059,0.64062,0.7098,11.578,77.836
15.408,0.11144,0.25709,0.4803,0.6543,0.69608,11.656,75.88
15.416,0.10948,0.261,0.49507,0.66016,0.68627,11.773,74.12
15.424,0.1085,0.27175,0.50493,0.66992,0.67647,11.89,72.555
15.432,0.10753,0.29228,0.53448,0.68555,0.66078,12.086,71.186
15.44,0.10753,0.32356,0.56527,0.69922,0.6451,12.282,70.6
15.448,0.10655,0.36559,0.57512,0.68945,0.62941,12.399,70.209
15.456,0.10655,0.41447,0.56527,0.66992,0.62941,12.282,70.209
15.464,0.10655,0.46628,0.55542,0.66016,0.62941,12.086,70.209
15.472,0.10655,0.51808,0.53448,0.64453,0.65098,11.89,70.209
15.48,0.10655,0.56598,0.5,0.63477,0.68039,11.773,70.209
15.488,0.10753,0.60704,0.46059,0.625,0.70588,11.695,70.209
15.496,0.1085,0.64125,0.4298,0.61914,0.72549,11.695,70.209
15.504,0.10948,0.66862,0.41502,0.61523,0.74118,11.695,70.209
15.512,0.11046,0.68817,0.4101,0.61523,0.75098,11.695,70.209
15.52,0.11144,0.70088,0.4101,0.61523,0.75098,11.695,70.209
15.528,0.11339,0.71261,0.4101,0.60938,0.75098,11.773,70.209
15.536,0.11437,0.72141,0.4101,0.60547,0.75098,12.008,70.209
15.544,0.11632,0.72727,0.4101,0.60547,0.7451,12.438,70.209
15.552,0.1173,0.73118,0.4101,0.60547,0.75098,12.829,70.209
15.56,0.11926,0.73118,0.41502,0.61914,0.75098,13.025,70.209
15.568,0.12121,0.73021,0.44458,0.62891,0.72549,12.907,70.013
15.576,0.12317,0.7263,0.50985,0.61523,0.65098,12.712,69.818
15.584,0.1261,0.72141,0.6601,0.5957,0.50588,12.595,69.426
15.592,0.12903,0.71457,0.88054,0.55078,0.3,12.516,69.035
15.6,0.13099,0.70577,1.0099,0.44531,0.15882,12.595,68.449
15.608,0.13392,0.69697,0.88054,0.35547,0.24902,12.712,67.862
15.616,0.13587,0.68719,0.60468,0.33984,0.50588,12.907,67.275
15.624,0.13783,0.67546,0.42488,0.44922,0.69608,12.947,66.688
15.632,0.14076,0.66276,0.36453,0.54492,0.76667,13.025,66.297
15.64,0.1437,0.64907,0.36946,0.60938,0.77647,13.064,65.711
15.648,0.14565,0.63343,0.38547,0.63477,0.77647,13.142,65.319
15.656,0.14858,0.61584,0.38547,0.65039,0.77647,13.338,64.733
15.664,0.15152,0.59726,0.39532,0.6543,0.77059,13.69,64.342
15.672,0.15445,0.57771,0.40025,0.66016,0.76078,14.198,63.755
15.68,0.1564,0.55718,0.4101,0.66406,0.7549,14.511,63.168
15.688,0.15836,0.53763,0.41995,0.66406,0.75098,14.589,62.777
15.696,0.16129,0.51711,0.4298,0.66992,0.74118,14.276,62.19
15.704,0.16422,0.49853,0.43473,0.66992,0.73529,13.807,61.799
15.712,0.16618,0.48387,0.44458,0.66992,0.73137,13.377,61.408
15.72,0.16911,0.47116,0.45443,0.66992,0.72549,13.064,61.017
15.728,0.17204,0.45943,0.46059,0.67578,0.71569,12.907,60.626
15.736,0.17498,0.44868,0.47044,0.67578,0.7098,12.907,60.235
15.744,0.17791,0.43988,0.4803,0.67969,0.70588,12.907,59.844
15.752,0.18182,0.43304,0.49507,0.68555,0.69608,12.947,59.452
15.76,0.18671,0.42717,0.50985,0.68945,0.68627,13.025,59.061
15.768,0.19159,0.42326,0.52956,0.69922,0.67059,12.947,58.475
15.776,0.19941,0.42033,0.55542,0.69922,0.65098,12.829,58.279
15.784,0.20626,0.41838,0.58005,0.70898,0.62941,12.712,58.083
15.792,0.21701,0.41544,0.61453,0.71484,0.60588,12.595,58.279
15.8,0.22678,0.41349,0.64532,0.72461,0.58039,12.516,59.648
15.808,0.24047,0.41251,0.6601,0.72461,0.56078,12.399,62.582
15.816,0.25318,0.41056,0.67488,0.72461,0.5451,12.282,67.471
15.824,0.26686,0.4086,0.6798,0.7207,0.53922,12.125,73.924
15.832,0.28055,0.40567,0.67488,0.71484,0.5451,12.008,81.356
15.84,0.29423,0.40274,0.65025,0.70898,0.56078,11.969,89.179
15.848,0.3089,0.39883,0.61946,0.70508,0.58431,11.89,96.806
15.856,0.32551,0.39492,0.58498,0.69922,0.61961,11.89,103.85
15.864,0.34213,0.39003,0.54557,0.68945,0.6451,11.812,109.71
15.872,0.36168,0.38514,0.50985,0.67969,0.67059,11.773,114.02
15.88,0.38025,0.38025,0.48522,0.66992,0.6902,11.695,116.95
15.888,0.39785,0.37537,0.46552,0.66406,0.70588,11.656,118.32
15.896,0.41544,0.3695,0.44951,0.66016,0.71569,11.656,118.71
15.904,0.43206,0.36364,0.44458,0.65039,0.72157,11.695,118.12
15.912,0.44868,0.35875,0.43966,0.64453,0.72157,11.89,116.95
15.92,0.4653,0.35484,0.43966,0.64453,0.72549,12.282,115.38
15.928,0.48289,0.34995,0.43966,0.64453,0.72549,12.712,113.43
15.936,0.50147,0.34409,0.44458,0.65039,0.72157,13.064,111.47
15.944,0.52004,0.3392,0.44951,0.65039,0.72157,13.142,109.32
15.952,0.53763,0.33333,0.44951,0.64453,0.71569,13.025,107.17
15.96,0.55523,0.32747,0.45443,0.64453,0.71569,12.829,105.02
15.968,0.57283,0.3216,0.46059,0.64453,0.7098,12.634,103.06
15.976,0.59042,0.31574,0.46059,0.64453,0.7098,12.516,101.11
15.984,0.60704,0.31085,0.46059,0.65039,0.71569,12.438,99.348
15.992,0.62366,0.30596,0.46552,0.65039,0.71569,12.438,97.784
16,0.63832,0.30108,0.46552,0.65039,0.71569,12.516,96.024
16.008,0.65396,0.29717,0.46552,0.65039,0.71569,12.595,94.263
16.016,0.67058,0.29521,0.46059,0.65039,0.71569,12.634,92.503
16.024,0.68719,0.2913,0.46059,0.65039,0.71569,12.712,90.352
16.032,0.70479,0.28739,0.46059,0.64453,0.71569,12.829,88.201
16.04,0.72141,0.2825,0.46059,0.64453,0.71569,12.947,85.658
16.048,0.73803,0.27664,0.46059,0.64453,0.71569,13.259,83.116
16.056,0.75367,0.27077,0.46552,0.65039,0.7098,13.572,80.574
16.064,0.76931,0.26686,0.47537,0.6543,0.70588,13.768,78.422
16.072,0.78495,0.26491,0.49507,0.66992,0.6902,13.69,76.467
16.08,0.80352,0.27077,0.51478,0.67969,0.68627,13.572,74.902
16.088,0.82111,0.28543,0.5197,0.68555,0.67647,13.455,73.533
16.096,0.84164,0.31085,0.53941,0.69922,0.66471,13.338,72.555
16.104,0.86217,0.34897,0.57512,0.70508,0.64118,13.259,71.773
16.112,0.88368,0.38807,0.5899,0.69531,0.62549,13.259,70.991
16.12,0.90518,0.43011,0.58498,0.67969,0.62549,13.338,70.404
16.128,0.92766,0.47898,0.57512,0.66406,0.62941,13.377,70.404
16.136,0.95015,0.52981,0.55542,0.6543,0.64118,13.377,70.795
16.144,0.97067,0.57771,0.52463,0.64062,0.66078,13.455,71.578
16.152,0.9912,0.61877,0.49015,0.63477,0.68627,13.494,72.164
16.16,0.99609,0.65298,0.46059,0.625,0.7098,13.651,72.555
16.168,1,0.68035,0.44951,0.61914,0.71569,13.963,72.751
16.176,1,0.70186,0.43966,0.61523,0.72157,14.589,72.751
16.184,1,0.7175,0.43473,0.60938,0.72157,15.332,72.751
16.192,1,0.72923,0.43473,0.60938,0.72157,15.88,72.751
16.2,1,0.73705,0.43473,0.60938,0.72157,16.076,72.555
16.208,1,0.73998,0.43473,0.60938,0.72549,15.88,72.36
16.216,1,0.74096,0.43473,0.61523,0.72549,15.528,71.773
16.224,1,0.73998,0.43966,0.625,0.72157,15.059,70.991
16.232,1,0.73803,0.47537,0.62891,0.7,14.824,70.404
16.24,1,0.73412,0.56034,0.61914,0.61961,14.628,70.209
16.248,1,0.72825,0.7303,0.59961,0.47059,14.628,70.013
16.256,1,0.72141,0.97044,0.55469,0.26863,14.707,69.818
16.264,1,0.71261,1.08,0.44531,0.15882,14.746,69.231
16.272,1,0.70381,0.91995,0.34961,0.26863,14.902,68.644
16.28,1,0.69306,0.63547,0.33594,0.5098,15.02,68.057
16.288,1,0.68133,0.44951,0.44922,0.68627,15.059,67.471
16.296,1,0.66764,0.39039,0.55469,0.75098,15.137,66.884
16.304,1,0.65494,0.39039,0.61523,0.7549,15.254,66.493
16.312,1,0.64125,0.39532,0.64062,0.76078,15.332,65.906
16.32,1,0.62561,0.40025,0.65039,0.76078,15.332,65.515
16.328,1,0.60704,0.40025,0.6543,0.7549,15.254,65.124
16.336,1,0.58749,0.4101,0.66016,0.75098,15.215,64.733
16.344,1,0.56696,0.41502,0.66016,0.7451,15.137,64.342
16.352,1,0.54643,0.41995,0.66406,0.74118,15.137,63.755
16.36,1,0.52688,0.4298,0.66406,0.74118,15.215,63.364
16.368,1,0.50831,0.43473,0.66406,0.73529,15.215,62.973
16.376,1,0.49071,0.43966,0.66992,0.73137,15.215,62.386
16.384,1,0.47605,0.44458,0.66992,0.72549,15.254,61.995
16.392,1,0.46334,0.45443,0.66992,0.72157,15.254,61.604
16.4,1,0.45357,0.46059,0.66992,0.71569,15.215,61.213
16.408,1,0.44673,0.47044,0.66992,0.7098,15.137,60.821
16.416,1,0.44184,0.4803,0.67578,0.7,15.059,60.235
16.424,1,0.43695,0.49507,0.67969,0.6902,15.02,59.844
16.432,1,0.43402,0.50985,0.68555,0.67647,14.941,59.257
16.44,1,0.43109,0.53448,0.68945,0.66078,14.902,58.866
16.448,1,0.42815,0.56527,0.69922,0.64118,14.707,58.475
16.456,1,0.4262,0.59483,0.70508,0.61569,14.511,58.866
16.464,1,0.42424,0.62438,0.70898,0.5902,14.394,60.43
16.472,1,0.42229,0.64532,0.70898,0.57451,14.198,64.342
16.48,1,0.42033,0.6601,0.70898,0.56078,14.003,70.404
16.488,1,0.4174,0.66502,0.70508,0.5549,13.807,78.227
