Time [s], RESP, PLETH, II, V, AVR
0,0.24438,0.49658,0.03125,0.56471,0.8
0.008,0.24438,0.49071,0.035156,0.56471,0.8
0.016,0.24438,0.48485,0.035156,0.57059,0.8
0.024,0.24438,0.47801,0.035156,0.57451,0.8
0.032,0.24438,0.47116,0.041016,0.58039,0.8
0.04,0.24438,0.46432,0.044922,0.58431,0.8
0.048,0.24438,0.45748,0.044922,0.58431,0.8
0.056,0.24536,0.45161,0.035156,0.60588,0.80588
0.064,0.24536,0.4477,0.041016,0.6098,0.81569
0.072,0.24633,0.44379,0.0058594,0.19412,0.86078
0.08,0.24731,0.43988,-0.28906,-0.50196,1.0725
0.088,0.24829,0.43695,-0.49805,-0.50196,1.5039
0.096,0.25024,0.43304,-0.49805,-0.50196,1.5039
0.104,0.25122,0.43011,-0.49805,-0.50196,1.5039
0.112,0.25318,0.42717,-0.49805,-0.50196,1.5039
0.12,0.25415,0.42326,-0.49805,-0.14706,1.4824
0.128,0.25513,0.41935,-0.039062,0.6549,0.88039
0.136,0.25611,0.41544,0.28516,1.0157,0.62549
0.144,0.25709,0.41153,0.35938,1.0922,0.57451
0.152,0.25806,0.40762,0.375,1.102,0.56471
0.16,0.26002,0.40371,0.38086,1.1059,0.56471
0.168,0.261,0.3998,0.38477,1.102,0.56078
0.176,0.26295,0.39589,0.39062,1.102,0.56078
0.184,0.26491,0.39296,0.39062,1.102,0.56078
0.192,0.26686,0.38807,0.39062,1.102,0.56471
0.2,0.26979,0.38514,0.39062,1.102,0.56471
0.208,0.27273,0.38123,0.39062,1.102,0.56471
0.216,0.27566,0.37732,0.39062,1.102,0.56471
0.224,0.27859,0.37243,0.39453,1.1059,0.57059
0.232,0.28055,0.36755,0.39453,1.1118,0.57059
0.24,0.28348,0.36266,0.40039,1.1176,0.57059
0.248,0.28641,0.35875,0.41016,1.1314,0.56471
0.256,0.28935,0.35582,0.42578,1.1412,0.56078
0.264,0.29326,0.35386,0.43555,1.1569,0.5549
0.272,0.29619,0.35288,0.44922,1.1765,0.5451
0.28,0.3001,0.35288,0.46094,1.202,0.53922
0.288,0.30303,0.35093,0.47461,1.2314,0.53529
0.296,0.30596,0.34995,0.5,1.2667,0.52549
0.304,0.30987,0.34897,0.52539,1.3118,0.51569
0.312,0.31281,0.348,0.56055,1.3569,0.49412
0.32,0.31672,0.348,0.5957,1.4176,0.47451
0.328,0.31965,0.34604,0.64062,1.4784,0.44902
0.336,0.32356,0.34409,0.68555,1.5039,0.42549
0.344,0.32649,0.34115,0.73438,1.5039,0.4
0.352,0.3304,0.33822,0.77539,1.5039,0.38039
0.36,0.33333,0.33724,0.79883,1.5039,0.36471
0.368,0.33627,0.33627,0.81055,1.5039,0.36471
0.376,0.3392,0.33529,0.79492,1.5039,0.38039
0.384,0.34213,0.33529,0.74414,1.4373,0.41569
0.392,0.34506,0.33529,0.65039,1.2725,0.47451
0.4,0.34702,0.33529,0.53516,1.0922,0.55098
0.408,0.34897,0.33627,0.4043,0.91569,0.62549
0.416,0.35191,0.33627,0.28516,0.76078,0.7
0.424,0.35288,0.33627,0.17969,0.6451,0.75098
0.432,0.35484,0.33627,0.099609,0.57059,0.7902
0.44,0.35582,0.33627,0.054688,0.51961,0.81569
0.448,0.35679,0.33627,0.019531,0.4902,0.82549
0.456,0.35777,0.33627,0.0058594,0.47451,0.83529
0.464,0.35777,0.33627,-0.0039062,0.46471,0.84118
0.472,0.35777,0.33627,-0.013672,0.46471,0.8451
0.48,0.35679,0.33529,-0.019531,0.46471,0.8451
0.488,0.35484,0.33333,-0.019531,0.46471,0.8451
0.496,0.35386,0.33138,-0.019531,0.47451,0.8451
0.504,0.35093,0.3304,-0.013672,0.48039,0.84118
0.512,0.34897,0.3304,-0.0039062,0.48431,0.83529
0.52,0.34506,0.3304,0,0.49412,0.83137
0.528,0.34213,0.3304,0.015625,0.50588,0.82549
0.536,0.3392,0.32942,0.019531,0.51569,0.82157
0.544,0.33627,0.32942,0.035156,0.52549,0.81176
0.552,0.33333,0.32845,0.044922,0.52941,0.80588
0.56,0.3304,0.32845,0.050781,0.53922,0.8
0.568,0.32747,0.32845,0.060547,0.5451,0.79608
0.576,0.32356,0.32845,0.060547,0.55098,0.79608
0.584,0.32063,0.32845,0.060547,0.5549,0.79608
0.592,0.31672,0.32845,0.060547,0.56078,0.79608
0.6,0.31281,0.3304,0.060547,0.56078,0.79608
0.608,0.30987,0.33236,0.060547,0.56078,0.79608
0.616,0.30596,0.33627,0.060547,0.56078,0.79608
0.624,0.30303,0.34311,0.060547,0.56078,0.79608
0.632,0.3001,0.35191,0.054688,0.5549,0.79608
0.64,0.29814,0.36461,0.050781,0.5549,0.8
0.648,0.29619,0.38025,0.050781,0.55098,0.8
0.656,0.29423,0.40078,0.050781,0.55098,0.8
0.664,0.29326,0.42522,0.050781,0.55098,0.8
0.672,0.29228,0.45357,0.050781,0.55098,0.8
0.68,0.2913,0.48387,0.050781,0.55098,0.8
0.688,0.2913,0.51515,0.050781,0.55098,0.8
0.696,0.2913,0.54448,0.050781,0.55098,0.80588
0.704,0.29228,0.56891,0.050781,0.55098,0.80588
0.712,0.29326,0.58944,0.050781,0.5549,0.80588
0.72,0.29326,0.61193,0.050781,0.5549,0.80588
0.728,0.29423,0.63148,0.054688,0.5549,0.80588
0.736,0.29521,0.64907,0.054688,0.56078,0.8
0.744,0.29521,0.66373,0.054688,0.56078,0.80588
0.752,0.29619,0.67449,0.060547,0.56078,0.80588
0.76,0.29619,0.68231,0.060547,0.56471,0.80588
0.768,0.29619,0.68622,0.060547,0.56471,0.80588
0.776,0.29717,0.68622,0.064453,0.56471,0.80588
0.784,0.29717,0.68328,0.064453,0.56471,0.8
0.792,0.29717,0.6784,0.076172,0.58039,0.79608
0.8,0.29717,0.67155,0.10547,0.60588,0.78627
0.808,0.29717,0.66373,0.125,0.64118,0.78039
0.816,0.29717,0.65396,0.14062,0.68039,0.78039
0.824,0.29619,0.64321,0.14453,0.7,0.78627
0.832,0.29619,0.63148,0.14062,0.68039,0.79608
0.84,0.29521,0.61877,0.11133,0.61569,0.82157
0.848,0.29423,0.60508,0.076172,0.56471,0.83529
0.856,0.29326,0.59238,0.041016,0.56078,0.85098
0.864,0.29228,0.57967,0.03125,0.55098,0.85098
0.872,0.29228,0.56696,0.035156,0.5549,0.82549
0.88,0.2913,0.55425,0.044922,0.56078,0.80588
0.888,0.2913,0.54252,0.050781,0.56471,0.79608
0.896,0.2913,0.53177,0.050781,0.56471,0.79608
0.904,0.29228,0.52199,0.050781,0.57059,0.7902
0.912,0.29228,0.5132,0.050781,0.57059,0.7902
0.92,0.29326,0.5044,0.054688,0.57451,0.7902
0.928,0.29326,0.4956,0.054688,0.58039,0.7902
0.936,0.29326,0.48778,0.054688,0.58431,0.79608
0.944,0.29423,0.48094,0.054688,0.5902,0.79608
0.952,0.29521,0.4741,0.054688,0.59608,0.79608
0.96,0.29521,0.46921,0.050781,0.60588,0.79608
0.968,0.29619,0.46334,0.044922,0.61961,0.81176
0.976,0.29814,0.45943,0.019531,0.33529,0.8451
0.984,0.29912,0.45455,-0.22852,-0.50196,1.0157
0.992,0.3001,0.45064,-0.49805,-0.50196,1.4529
1,0.30205,0.44673,-0.49805,-0.50196,1.5039
1.008,0.30401,0.44379,-0.49805,-0.50196,1.5039
1.016,0.30499,0.44086,-0.49805,-0.50196,1.5039
1.024,0.30694,0.43793,-0.49805,-0.32157,1.5039
1.032,0.3089,0.435,-0.125,0.53922,0.94706
1.04,0.31085,0.43206,0.26953,0.98235,0.64118
1.048,0.31183,0.42815,0.36523,1.0824,0.57451
1.056,0.31378,0.42424,0.375,1.0961,0.56471
1.064,0.31476,0.41935,0.38086,1.0961,0.56471
1.072,0.31574,0.41447,0.38477,1.102,0.56471
1.08,0.31672,0.40958,0.39062,1.102,0.56471
1.088,0.31867,0.40469,0.39062,1.0961,0.57059
1.096,0.31965,0.40078,0.39062,1.0961,0.57059
1.104,0.3216,0.39883,0.39062,1.0961,0.57059
1.112,0.32356,0.39687,0.39062,1.0961,0.58039
1.12,0.32454,0.39589,0.39062,1.0961,0.58039
1.128,0.32649,0.39394,0.39062,1.0961,0.57451
1.136,0.32845,0.39101,0.39453,1.102,0.57059
1.144,0.32942,0.38807,0.40039,1.1118,0.57059
1.152,0.33138,0.38319,0.41016,1.1176,0.56471
1.16,0.33236,0.37928,0.41992,1.1314,0.56471
1.168,0.33333,0.37439,0.42969,1.1412,0.56078
1.176,0.33431,0.3695,0.43945,1.1569,0.56078
1.184,0.33627,0.36461,0.45508,1.1824,0.5549
1.192,0.33724,0.35973,0.4707,1.2118,0.5451
1.2,0.3392,0.35582,0.48438,1.2471,0.53529
1.208,0.34115,0.35386,0.50977,1.2882,0.51961
1.216,0.34311,0.35093,0.53906,1.3333,0.50588
1.224,0.34604,0.348,0.57422,1.3882,0.4902
1.232,0.34897,0.34604,0.61914,1.4471,0.46471
1.24,0.35093,0.34409,0.66406,1.502,0.4451
1.248,0.35288,0.34311,0.70898,1.5039,0.41961
1.256,0.35484,0.34311,0.75,1.5039,0.39412
1.264,0.35582,0.34311,0.7793,1.5039,0.38039
1.272,0.35679,0.34311,0.79492,1.5039,0.37451
1.28,0.35875,0.34311,0.78906,1.5039,0.38039
1.288,0.35875,0.34311,0.74414,1.4471,0.4098
1.296,0.35973,0.34311,0.66406,1.298,0.46078
1.304,0.3607,0.34311,0.55469,1.1176,0.53529
1.312,0.36168,0.34311,0.42578,0.94118,0.61569
1.32,0.36168,0.34311,0.30078,0.78039,0.6902
1.328,0.36168,0.34213,0.18555,0.66078,0.75098
1.336,0.36168,0.34213,0.099609,0.57451,0.79608
1.344,0.36168,0.34115,0.044922,0.51961,0.82157
1.352,0.3607,0.34018,0.0097656,0.4902,0.84118
1.36,0.35973,0.3392,-0.0097656,0.47059,0.8451
1.368,0.35777,0.33822,-0.019531,0.46078,0.85098
1.376,0.35582,0.33627,-0.029297,0.4549,0.85686
1.384,0.35288,0.33431,-0.029297,0.4549,0.85686
1.392,0.34995,0.33138,-0.029297,0.4549,0.85686
1.4,0.348,0.3304,-0.025391,0.46078,0.85098
1.408,0.34506,0.3304,-0.019531,0.46471,0.85098
1.416,0.34213,0.3304,-0.013672,0.47059,0.8451
1.424,0.3392,0.3304,-0.0039062,0.48039,0.84118
1.432,0.33529,0.32942,0,0.48431,0.83529
1.44,0.33236,0.32747,0.0097656,0.5,0.83137
1.448,0.32747,0.32551,0.019531,0.51569,0.82157
1.456,0.32258,0.32258,0.03125,0.52549,0.81569
1.464,0.31769,0.31965,0.041016,0.53529,0.81176
1.472,0.31183,0.31672,0.044922,0.5451,0.80588
1.48,0.30694,0.31476,0.050781,0.55098,0.80588
1.488,0.30108,0.31378,0.050781,0.55098,0.8
1.496,0.29619,0.31281,0.054688,0.55098,0.79608
1.504,0.29228,0.31378,0.054688,0.55098,0.79608
1.512,0.28837,0.31574,0.050781,0.55098,0.79608
1.52,0.28446,0.31867,0.050781,0.55098,0.79608
1.528,0.28152,0.32551,0.050781,0.5451,0.8
1.536,0.27859,0.33627,0.044922,0.5451,0.8
1.544,0.27566,0.34995,0.044922,0.5451,0.8
1.552,0.27273,0.36755,0.044922,0.53922,0.80588
1.56,0.27077,0.39003,0.041016,0.53922,0.80588
1.568,0.26882,0.41642,0.041016,0.53922,0.80588
1.576,0.26784,0.44477,0.041016,0.53922,0.80588
1.584,0.26686,0.47507,0.041016,0.53922,0.80588
1.592,0.26686,0.50635,0.041016,0.53922,0.81176
1.6,0.26588,0.53275,0.041016,0.53922,0.81176
1.608,0.26491,0.55621,0.041016,0.53922,0.81569
1.616,0.26491,0.58065,0.035156,0.53922,0.81569
1.624,0.26393,0.60313,0.035156,0.5451,0.81569
1.632,0.26393,0.62268,0.035156,0.5451,0.81176
1.64,0.26393,0.6393,0.035156,0.55098,0.81176
1.648,0.26295,0.65298,0.035156,0.55098,0.81176
1.656,0.26295,0.66373,0.035156,0.55098,0.81176
1.664,0.26295,0.67253,0.041016,0.55098,0.81176
1.672,0.26295,0.6784,0.041016,0.56078,0.81176
1.68,0.26197,0.68231,0.041016,0.56078,0.81176
1.688,0.26197,0.68328,0.041016,0.56078,0.81176
1.696,0.26197,0.68133,0.054688,0.57059,0.80588
1.704,0.26197,0.67644,0.085938,0.60588,0.8
1.712,0.261,0.6696,0.10547,0.6451,0.79608
1.72,0.261,0.65982,0.11133,0.68627,0.8
1.728,0.26002,0.64907,0.11523,0.69608,0.80588
1.736,0.25904,0.63734,0.10547,0.6451,0.82157
1.744,0.25806,0.62463,0.076172,0.58039,0.84118
1.752,0.25709,0.60997,0.035156,0.55098,0.85686
1.76,0.25611,0.59531,0.0058594,0.53922,0.86667
1.768,0.25611,0.58162,0,0.53922,0.85686
1.776,0.25513,0.56696,0.015625,0.5451,0.83529
1.784,0.25415,0.55425,0.025391,0.55098,0.82157
1.792,0.25415,0.54154,0.03125,0.5549,0.81176
1.8,0.25318,0.53079,0.03125,0.56078,0.80588
1.808,0.25318,0.52102,0.03125,0.56078,0.80588
1.816,0.25318,0.51124,0.03125,0.56078,0.80588
1.824,0.2522,0.50147,0.03125,0.56471,0.80588
1.832,0.2522,0.49267,0.03125,0.57059,0.80588
1.84,0.2522,0.48485,0.03125,0.57451,0.80588
1.848,0.2522,0.47605,0.041016,0.57451,0.80588
1.856,0.25122,0.46823,0.041016,0.58039,0.80588
1.864,0.25122,0.46139,0.035156,0.6,0.81176
1.872,0.25122,0.4565,0.035156,0.60588,0.82157
1.88,0.25122,0.45161,-0.029297,0.10392,0.88039
1.888,0.25024,0.44673,-0.37891,-0.50196,1.1216
1.896,0.25024,0.44282,-0.49805,-0.50196,1.5039
1.904,0.25024,0.43988,-0.49805,-0.50196,1.5039
1.912,0.25024,0.43597,-0.49805,-0.50196,1.5039
1.92,0.25024,0.43206,-0.49805,-0.50196,1.5039
1.928,0.25024,0.42815,-0.49805,-0.027451,1.3627
1.936,0.25024,0.42326,0.03125,0.73529,0.82549
1.944,0.25024,0.41838,0.29492,1.0412,0.61961
1.952,0.25024,0.41251,0.34961,1.0961,0.58039
1.96,0.25024,0.40665,0.36523,1.1059,0.57059
1.968,0.25024,0.40078,0.375,1.1059,0.56471
1.976,0.24927,0.39492,0.375,1.1059,0.56471
1.984,0.24927,0.39003,0.38086,1.102,0.56471
1.992,0.24927,0.38514,0.38086,1.102,0.56471
2,0.24927,0.38123,0.375,1.102,0.56471
2.008,0.25024,0.37732,0.375,1.102,0.57059
2.016,0.25024,0.37341,0.375,1.102,0.57451
2.024,0.25122,0.37048,0.375,1.102,0.58039
2.032,0.2522,0.36852,0.38086,1.102,0.58039
2.04,0.2522,0.36852,0.38086,1.1059,0.58039
2.048,0.25318,0.36852,0.39062,1.1176,0.57451
2.056,0.25415,0.36755,0.39453,1.1275,0.57059
2.064,0.25415,0.36755,0.4043,1.1373,0.56471
2.072,0.25611,0.36657,0.41602,1.151,0.56078
2.08,0.25709,0.36461,0.42969,1.1725,0.5549
2.088,0.26002,0.36168,0.44531,1.1922,0.55098
2.096,0.26197,0.35777,0.46484,1.2216,0.53922
2.104,0.26393,0.35484,0.48438,1.2569,0.53529
2.112,0.26686,0.35093,0.50977,1.302,0.51961
2.12,0.26882,0.348,0.53906,1.3471,0.50588
2.128,0.27077,0.34604,0.57031,1.4078,0.4902
2.136,0.2737,0.34506,0.60938,1.4686,0.47059
2.144,0.27566,0.34506,0.6543,1.5039,0.4451
2.152,0.27761,0.34409,0.69531,1.5039,0.41961
2.16,0.28055,0.34409,0.73438,1.5039,0.4
2.168,0.2825,0.34311,0.75977,1.5039,0.3902
2.176,0.28543,0.34311,0.76953,1.5039,0.3902
2.184,0.28739,0.34311,0.75391,1.5039,0.40392
2.192,0.28935,0.34311,0.70508,1.402,0.43922
2.2,0.2913,0.34311,0.60938,1.2431,0.5
2.208,0.29326,0.34409,0.49414,1.0569,0.57451
2.216,0.29423,0.34409,0.36523,0.8902,0.65098
2.224,0.29619,0.34409,0.24609,0.7451,0.72157
2.232,0.29521,0.34409,0.14453,0.64118,0.77059
2.24,0.29521,0.34409,0.070312,0.56471,0.80588
2.248,0.29423,0.34409,0.025391,0.51961,0.82549
2.256,0.29326,0.34409,-0.0039062,0.4902,0.84118
2.264,0.29032,0.34311,-0.019531,0.47451,0.8451
2.272,0.28837,0.34213,-0.029297,0.46471,0.85098
2.28,0.28543,0.34018,-0.035156,0.46471,0.85098
2.288,0.2825,0.33822,-0.035156,0.46471,0.85098
2.296,0.28055,0.33724,-0.035156,0.46471,0.85098
2.304,0.27761,0.33627,-0.035156,0.46471,0.85098
2.312,0.27468,0.33431,-0.025391,0.47451,0.8451
2.32,0.27175,0.33333,-0.013672,0.48431,0.83529
2.328,0.26686,0.33236,0,0.49412,0.82549
2.336,0.26295,0.33138,0.0058594,0.50588,0.82549
2.344,0.25709,0.3304,0.015625,0.51569,0.81569
2.352,0.2522,0.3304,0.025391,0.52549,0.81176
2.36,0.24731,0.3304,0.03125,0.52941,0.80588
2.368,0.24242,0.3304,0.041016,0.53922,0.8
2.376,0.23851,0.3304,0.041016,0.5451,0.8
2.384,0.2346,0.3304,0.044922,0.55098,0.8
2.392,0.23069,0.32942,0.044922,0.5549,0.8
2.4,0.22776,0.32942,0.050781,0.56078,0.79608
2.408,0.22385,0.32942,0.050781,0.56078,0.79608
2.416,0.22092,0.3304,0.044922,0.5549,0.79608
2.424,0.21896,0.33236,0.044922,0.5549,0.79608
2.432,0.21701,0.3392,0.041016,0.5549,0.79608
2.44,0.21505,0.34995,0.041016,0.55098,0.8
2.448,0.21408,0.36461,0.041016,0.55098,0.8
2.456,0.2131,0.38416,0.044922,0.55098,0.8
2.464,0.21212,0.4086,0.041016,0.55098,0.80588
2.472,0.21114,0.43597,0.041016,0.5451,0.80588
2.48,0.21114,0.4653,0.035156,0.5451,0.80588
2.488,0.21114,0.4956,0.03125,0.5451,0.80588
2.496,0.21017,0.52297,0.03125,0.5451,0.80588
2.504,0.21017,0.54643,0.035156,0.5451,0.80588
2.512,0.21017,0.57185,0.03125,0.5451,0.81176
2.52,0.21017,0.59531,0.025391,0.55098,0.81569
2.528,0.21114,0.61681,0.019531,0.55098,0.81569
2.536,0.21114,0.63441,0.025391,0.55098,0.81569
2.544,0.21114,0.64907,0.025391,0.55098,0.81569
2.552,0.21114,0.66178,0.025391,0.55098,0.82157
2.56,0.21212,0.67155,0.025391,0.5549,0.82157
2.568,0.21212,0.6784,0.025391,0.56078,0.82157
2.576,0.2131,0.68328,0.025391,0.56078,0.82157
2.584,0.2131,0.68622,0.025391,0.56471,0.82157
2.592,0.21408,0.68524,0.025391,0.56471,0.81569
2.6,0.21408,0.68231,0.044922,0.57451,0.80588
2.608,0.21408,0.67742,0.076172,0.60588,0.8
2.616,0.21408,0.67058,0.089844,0.64118,0.8
2.624,0.21408,0.6608,0.10547,0.68039,0.8
2.632,0.21408,0.65005,0.11133,0.69608,0.80588
2.64,0.2131,0.63734,0.11523,0.6549,0.81569
2.648,0.21212,0.62366,0.076172,0.5902,0.83529
2.656,0.21212,0.60802,0.041016,0.55098,0.85098
2.664,0.21114,0.5914,0.0058594,0.5451,0.86667
2.672,0.21017,0.5738,0,0.53922,0.85686
2.68,0.20919,0.55816,0.0097656,0.55098,0.83529
2.688,0.20821,0.54448,0.019531,0.56078,0.81569
2.696,0.20821,0.53177,0.025391,0.56471,0.8
2.704,0.20821,0.52102,0.025391,0.56471,0.8
2.712,0.20821,0.51026,0.019531,0.56471,0.80588
2.72,0.20821,0.50147,0.019531,0.57059,0.80588
2.728,0.20821,0.49365,0.025391,0.57059,0.80588
2.736,0.20821,0.48778,0.03125,0.57451,0.80588
2.744,0.20821,0.48192,0.03125,0.58431,0.80588
2.752,0.20919,0.47898,0.03125,0.5902,0.80588
2.76,0.20919,0.47605,0.03125,0.59608,0.80588
2.768,0.20919,0.4741,0.035156,0.6098,0.80588
2.776,0.21017,0.47214,0.03125,0.61569,0.82549
2.784,0.21017,0.47019,-0.025391,0.1549,0.88039
2.792,0.21114,0.47019,-0.35352,-0.50196,1.1118
2.8,0.21114,0.47019,-0.49805,-0.50196,1.5039
2.808,0.21212,0.46921,-0.49805,-0.50196,1.5039
2.816,0.2131,0.46823,-0.49805,-0.50196,1.5039
2.824,0.21505,0.46628,-0.49805,-0.50196,1.5039
2.832,0.21603,0.4653,-0.49805,-0.086275,1.4275
2.84,0.21799,0.46334,-0.0097656,0.70588,0.85098
2.848,0.21896,0.46139,0.29102,1.0314,0.62549
2.856,0.21994,0.45943,0.3457,1.0922,0.58039
2.864,0.22092,0.45748,0.36523,1.102,0.57059
2.872,0.2219,0.45455,0.37109,1.1059,0.56471
2.88,0.22385,0.45161,0.375,1.1118,0.56471
2.888,0.22483,0.44966,0.375,1.102,0.56471
2.896,0.22678,0.44673,0.375,1.102,0.56471
2.904,0.22874,0.44477,0.375,1.102,0.57059
2.912,0.23069,0.44282,0.375,1.102,0.57059
2.92,0.23265,0.43988,0.375,1.102,0.57059
2.928,0.2346,0.43597,0.375,1.102,0.57059
2.936,0.23656,0.43109,0.375,1.102,0.58039
2.944,0.23851,0.42522,0.375,1.1118,0.58039
2.952,0.24047,0.41935,0.38086,1.1176,0.57451
2.96,0.2434,0.41251,0.39062,1.1275,0.57059
2.968,0.24536,0.40665,0.40039,1.1373,0.57059
2.976,0.24829,0.40078,0.41602,1.151,0.56471
2.984,0.2522,0.39492,0.42969,1.1725,0.5549
2.992,0.25513,0.39101,0.43945,1.1961,0.55098
3,0.25709,0.3871,0.45508,1.2275,0.53922
3.008,0.26002,0.38319,0.48047,1.2667,0.53529
3.016,0.26197,0.3783,0.50586,1.3118,0.51961
3.024,0.26393,0.37341,0.53906,1.3569,0.50588
3.032,0.26588,0.3695,0.57422,1.4176,0.48431
3.04,0.26882,0.36461,0.61523,1.4784,0.46471
3.048,0.27175,0.35973,0.66016,1.5039,0.43922
3.056,0.27468,0.35484,0.70508,1.5039,0.41961
3.064,0.27761,0.34995,0.74023,1.5039,0.39412
3.072,0.28055,0.34506,0.76562,1.5039,0.38431
3.08,0.28348,0.34018,0.7793,1.5039,0.38431
3.088,0.28641,0.33529,0.75977,1.5039,0.40392
3.096,0.28837,0.33431,0.70508,1.4078,0.4451
3.104,0.29032,0.33333,0.60938,1.2431,0.50588
3.112,0.29228,0.33236,0.49414,1.0608,0.58039
3.12,0.29326,0.3304,0.36523,0.8902,0.6549
3.128,0.29423,0.32845,0.24609,0.7451,0.72157
3.136,0.29521,0.32649,0.14453,0.63529,0.77059
3.144,0.29521,0.32454,0.080078,0.56078,0.8
3.152,0.29521,0.3216,0.035156,0.51569,0.82549
3.16,0.29423,0.31965,0,0.4902,0.84118
3.168,0.29326,0.31769,-0.019531,0.47451,0.8451
3.176,0.29228,0.31476,-0.029297,0.46471,0.85098
3.184,0.2913,0.31281,-0.035156,0.46078,0.85686
3.192,0.29032,0.31183,-0.039062,0.46078,0.85686
3.2,0.28837,0.31085,-0.035156,0.46078,0.85686
3.208,0.28641,0.30987,-0.029297,0.46471,0.85098
3.216,0.28446,0.3089,-0.025391,0.47059,0.85098
3.224,0.2825,0.30694,-0.013672,0.47451,0.84118
3.232,0.27957,0.30499,-0.0039062,0.48431,0.83137
3.24,0.27664,0.30205,0.0058594,0.49412,0.82549
3.248,0.2737,0.3001,0.015625,0.50588,0.82157
3.256,0.27077,0.29814,0.019531,0.51961,0.81569
3.264,0.26784,0.29717,0.03125,0.52941,0.80588
3.272,0.26491,0.29717,0.041016,0.53922,0.80588
3.28,0.26197,0.29717,0.041016,0.5451,0.8
3.288,0.26002,0.29717,0.050781,0.55098,0.79608
3.296,0.25709,0.29814,0.054688,0.55098,0.79608
3.304,0.25415,0.29912,0.050781,0.56078,0.8
3.312,0.2522,0.29912,0.044922,0.56078,0.8
3.32,0.25024,0.30108,0.044922,0.56078,0.8
3.328,0.24927,0.30401,0.044922,0.56078,0.8
3.336,0.24829,0.30987,0.044922,0.5549,0.8
3.344,0.24829,0.31965,0.044922,0.55098,0.8
3.352,0.24829,0.33236,0.044922,0.55098,0.8
3.36,0.24829,0.34995,0.041016,0.55098,0.80588
3.368,0.24927,0.37048,0.035156,0.5451,0.80588
3.376,0.25024,0.39492,0.035156,0.5451,0.80588
3.384,0.2522,0.42326,0.035156,0.5451,0.80588
3.392,0.25318,0.44966,0.041016,0.5451,0.80588
3.4,0.25611,0.4741,0.035156,0.5451,0.81176
3.408,0.25806,0.50244,0.035156,0.5451,0.81176
3.416,0.26002,0.52981,0.035156,0.5451,0.81569
3.424,0.26197,0.55718,0.035156,0.5451,0.81176
3.432,0.26295,0.58162,0.041016,0.5451,0.81176
3.44,0.26491,0.60215,0.041016,0.5451,0.81176
3.448,0.26588,0.61975,0.035156,0.55098,0.81569
3.456,0.26686,0.63441,0.035156,0.55098,0.81176
3.464,0.26784,0.64516,0.041016,0.5549,0.80588
3.472,0.26882,0.65298,0.044922,0.5549,0.80588
3.48,0.26882,0.65689,0.044922,0.56078,0.80588
3.488,0.26979,0.65787,0.044922,0.56078,0.80588
3.496,0.26979,0.65591,0.054688,0.56471,0.80588
3.504,0.27077,0.65103,0.085938,0.5902,0.79608
3.512,0.27077,0.64614,0.11133,0.62549,0.78627
3.52,0.27077,0.63832,0.13086,0.6549,0.78627
3.528,0.27077,0.62952,0.13477,0.68039,0.78627
3.536,0.27175,0.61877,0.13477,0.6549,0.79608
3.544,0.27077,0.60704,0.10547,0.5902,0.81569
3.552,0.27077,0.59433,0.064453,0.55098,0.83529
3.56,0.26979,0.58162,0.025391,0.5451,0.85098
3.568,0.26882,0.56794,0.015625,0.53922,0.85098
3.576,0.26882,0.55425,0.025391,0.5451,0.83137
3.584,0.26882,0.54154,0.035156,0.56078,0.81569
3.592,0.26882,0.52981,0.041016,0.56471,0.80588
3.6,0.26979,0.51906,0.041016,0.56471,0.80588
3.608,0.27077,0.50831,0.041016,0.56471,0.80588
3.616,0.27175,0.49853,0.041016,0.56471,0.8
3.624,0.27273,0.48974,0.041016,0.57059,0.8
3.632,0.2737,0.48192,0.044922,0.57451,0.79608
3.64,0.27468,0.4741,0.050781,0.58039,0.79608
3.648,0.27566,0.46823,0.050781,0.58431,0.79608
3.656,0.27664,0.46237,0.054688,0.5902,0.79608
3.664,0.27761,0.45748,0.050781,0.60588,0.8
3.672,0.27859,0.45259,0.060547,0.61569,0.81176
3.68,0.28055,0.44868,0.025391,0.2,0.85686
3.688,0.2825,0.44477,-0.26953,-0.50196,1.0569
3.696,0.28543,0.44184,-0.49805,-0.50196,1.5039
3.704,0.28739,0.43891,-0.49805,-0.50196,1.5039
3.712,0.29032,0.435,-0.49805,-0.50196,1.5039
3.72,0.29228,0.43109,-0.49805,-0.50196,1.5039
3.728,0.29521,0.4262,-0.49805,-0.16275,1.4686
3.736,0.29717,0.42229,-0.019531,0.65098,0.86078
3.744,0.29912,0.41838,0.31055,1.0157,0.61569
3.752,0.30205,0.41447,0.38477,1.0922,0.56078
3.76,0.30401,0.41153,0.40039,1.102,0.55098
3.768,0.30596,0.4086,0.4043,1.1118,0.5451
3.776,0.3089,0.40469,0.41016,1.1059,0.5451
3.784,0.31085,0.40176,0.41602,1.1059,0.5451
3.792,0.31281,0.39785,0.41992,1.102,0.53922
3.8,0.31476,0.39492,0.41992,1.102,0.53922
3.808,0.31769,0.39101,0.41992,1.102,0.5451
3.816,0.31965,0.38612,0.41992,1.102,0.55098
3.824,0.3216,0.38123,0.41992,1.102,0.55098
3.832,0.32454,0.37537,0.41992,1.1059,0.55098
3.84,0.32649,0.37146,0.42969,1.1118,0.5451
3.848,0.32845,0.36852,0.43555,1.1176,0.5451
3.856,0.3304,0.36657,0.43945,1.1314,0.53922
3.864,0.33333,0.36461,0.44922,1.1412,0.53922
3.872,0.33529,0.36266,0.46094,1.1569,0.53529
3.88,0.33724,0.3607,0.47461,1.1725,0.52941
3.888,0.3392,0.35777,0.48438,1.1922,0.52549
3.896,0.34213,0.35484,0.50586,1.2216,0.51961
3.904,0.34409,0.35191,0.52539,1.2627,0.50588
3.912,0.34604,0.34897,0.55078,1.302,0.49412
3.92,0.348,0.34702,0.58398,1.3529,0.48039
3.928,0.35093,0.34702,0.61914,1.4078,0.46078
3.936,0.35288,0.34995,0.66016,1.4686,0.43922
3.944,0.35484,0.35484,0.70508,1.5039,0.4098
3.952,0.35679,0.35679,0.75,1.5039,0.3902
3.96,0.35973,0.35875,0.78906,1.5039,0.36471
3.968,0.36168,0.35973,0.82031,1.5039,0.34902
3.976,0.36364,0.3607,0.83398,1.5039,0.34902
3.984,0.36559,0.3607,0.82031,1.5039,0.35882
3.992,0.36755,0.3607,0.76953,1.4235,0.39412
4,0.3695,0.3607,0.68555,1.2667,0.44902
4.008,0.37048,0.3607,0.56445,1.0824,0.52941
4.016,0.37146,0.3607,0.42969,0.91176,0.6098
4.024,0.37243,0.3607,0.30469,0.76078,0.68039
4.032,0.37341,0.3607,0.20117,0.6451,0.73529
4.04,0.37341,0.3607,0.125,0.56471,0.77647
4.048,0.37439,0.3607,0.076172,0.51961,0.79608
4.056,0.37439,0.3607,0.041016,0.48431,0.81176
4.064,0.37439,0.35973,0.019531,0.47059,0.82157
4.072,0.37341,0.35875,0.0097656,0.46471,0.82549
4.08,0.37243,0.35777,0.0058594,0.46471,0.83137
4.088,0.37048,0.35679,0.0058594,0.46471,0.83137
4.096,0.3695,0.35679,0.0058594,0.46471,0.83137
4.104,0.36657,0.35777,0.0058594,0.47059,0.82549
4.112,0.36364,0.35875,0.015625,0.47451,0.82549
4.12,0.36168,0.35973,0.019531,0.48039,0.82157
4.128,0.35875,0.3607,0.03125,0.4902,0.81569
4.136,0.35582,0.3607,0.041016,0.5,0.81176
4.144,0.35288,0.3607,0.044922,0.5098,0.80588
4.152,0.34995,0.3607,0.060547,0.51961,0.79608
4.16,0.34702,0.3607,0.064453,0.52549,0.7902
4.168,0.34311,0.35973,0.070312,0.53529,0.78627
4.176,0.3392,0.35875,0.080078,0.53922,0.78039
4.184,0.33627,0.35875,0.085938,0.5451,0.77647
4.192,0.33236,0.35875,0.085938,0.55098,0.77647
4.2,0.32942,0.35973,0.085938,0.5549,0.78039
4.208,0.32649,0.35973,0.080078,0.56078,0.78039
4.216,0.32356,0.36168,0.080078,0.56078,0.78039
4.224,0.32063,0.36461,0.080078,0.5549,0.78039
4.232,0.31769,0.3695,0.080078,0.55098,0.78039
4.24,0.31476,0.3783,0.080078,0.55098,0.78039
4.248,0.31281,0.39101,0.076172,0.55098,0.78627
4.256,0.30987,0.40665,0.076172,0.5451,0.78627
4.264,0.3089,0.42717,0.076172,0.5451,0.78627
4.272,0.30694,0.45064,0.076172,0.5451,0.78627
4.28,0.30596,0.47703,0.070312,0.5451,0.7902
4.288,0.30499,0.50538,0.070312,0.5451,0.79608
4.296,0.30499,0.53079,0.070312,0.5451,0.7902
4.304,0.30499,0.55327,0.070312,0.5451,0.78627
4.312,0.30499,0.57869,0.070312,0.5451,0.78627
4.32,0.30499,0.60215,0.070312,0.55098,0.78627
4.328,0.30499,0.62463,0.070312,0.55098,0.78627
4.336,0.30499,0.64418,0.070312,0.55098,0.7902
4.344,0.30401,0.66178,0.070312,0.5451,0.7902
4.352,0.30401,0.67546,0.064453,0.55098,0.79608
4.36,0.30401,0.68622,0.064453,0.55098,0.79608
4.368,0.30401,0.69306,0.064453,0.5549,0.79608
4.376,0.30401,0.69795,0.064453,0.56078,0.79608
4.384,0.30401,0.6999,0.064453,0.56078,0.7902
4.392,0.30401,0.69795,0.076172,0.56471,0.78627
4.4,0.30401,0.69404,0.095703,0.58039,0.78627
4.408,0.30303,0.68817,0.125,0.61569,0.78039
4.416,0.30303,0.68035,0.14453,0.6549,0.77647
4.424,0.30303,0.67058,0.15039,0.68627,0.77647
4.432,0.30303,0.65885,0.15625,0.69608,0.78039
4.44,0.30303,0.64516,0.14062,0.64118,0.79608
4.448,0.30303,0.63148,0.10547,0.57451,0.81569
4.456,0.30303,0.61681,0.064453,0.55098,0.83137
4.464,0.30303,0.60313,0.044922,0.5451,0.84118
4.472,0.30205,0.58944,0.041016,0.5451,0.82549
4.48,0.30205,0.57674,0.054688,0.55098,0.80588
4.488,0.30205,0.56403,0.060547,0.5549,0.79608
4.496,0.30205,0.55327,0.060547,0.56078,0.7902
4.504,0.30205,0.54448,0.064453,0.56078,0.78627
4.512,0.30205,0.53568,0.064453,0.56471,0.78039
4.52,0.30205,0.5259,0.070312,0.56471,0.78039
4.528,0.30205,0.51711,0.070312,0.57059,0.78039
4.536,0.30108,0.50831,0.070312,0.57451,0.78039
4.544,0.30108,0.50049,0.070312,0.58039,0.78039
4.552,0.30108,0.49267,0.076172,0.58431,0.78039
4.56,0.30108,0.48485,0.070312,0.5902,0.78627
4.568,0.30108,0.47703,0.064453,0.6098,0.79608
4.576,0.30108,0.46921,0.064453,0.5451,0.80588
4.584,0.30108,0.46237,-0.029297,0.0039216,0.88627
4.592,0.30108,0.4565,-0.44922,-0.50196,1.1725
4.6,0.3001,0.45259,-0.49805,-0.50196,1.5039
4.608,0.3001,0.44868,-0.49805,-0.50196,1.5039
4.616,0.3001,0.44575,-0.49805,-0.50196,1.5039
4.624,0.3001,0.44184,-0.49805,-0.50196,1.5039
4.632,0.3001,0.43891,-0.49805,0.094118,1.2569
4.64,0.3001,0.43597,0.11523,0.79608,0.76078
4.648,0.3001,0.43304,0.33984,1.0471,0.59608
4.656,0.3001,0.42913,0.38477,1.0863,0.56078
4.664,0.29912,0.42424,0.39453,1.0961,0.5549
4.672,0.29912,0.41838,0.4043,1.0961,0.55098
4.68,0.29912,0.41349,0.41016,1.0961,0.5451
4.688,0.29912,0.4086,0.41602,1.0961,0.5451
4.696,0.29912,0.40567,0.41602,1.0961,0.5451
4.704,0.29912,0.40274,0.41602,1.0922,0.5451
4.712,0.29912,0.3998,0.41602,1.0922,0.55098
4.72,0.29912,0.39687,0.41602,1.0863,0.5549
4.728,0.29912,0.39394,0.41602,1.0863,0.5549
4.736,0.29912,0.39101,0.41992,1.0922,0.55098
4.744,0.3001,0.3871,0.42578,1.0961,0.55098
4.752,0.30108,0.38319,0.42969,1.102,0.55098
4.76,0.30205,0.38025,0.43945,1.1176,0.5451
4.768,0.30401,0.37732,0.44531,1.1314,0.5451
4.776,0.30499,0.37439,0.46094,1.1471,0.53922
4.784,0.30694,0.37341,0.47461,1.1627,0.53529
4.792,0.3089,0.37146,0.48438,1.1922,0.52549
4.8,0.31085,0.37048,0.5,1.2216,0.51961
4.808,0.31378,0.36852,0.52539,1.2569,0.5098
4.816,0.31672,0.36657,0.55078,1.302,0.49412
4.824,0.31965,0.36266,0.58398,1.3471,0.48039
4.832,0.3216,0.35973,0.61914,1.4078,0.46078
4.84,0.32454,0.35582,0.66016,1.4686,0.43922
4.848,0.32747,0.35191,0.70508,1.5039,0.41569
4.856,0.32845,0.34897,0.75,1.5039,0.3902
4.864,0.3304,0.34604,0.78906,1.5039,0.37059
4.872,0.33236,0.34311,0.81445,1.5039,0.35882
4.88,0.33333,0.34115,0.82422,1.5039,0.3549
4.888,0.33529,0.34018,0.80469,1.502,0.37451
4.896,0.33724,0.3392,0.74023,1.3725,0.4098
4.904,0.33822,0.3392,0.64062,1.202,0.47451
4.912,0.34018,0.33822,0.51953,1.0216,0.5549
4.92,0.34115,0.33822,0.38477,0.85686,0.63529
4.928,0.34115,0.33822,0.26562,0.71569,0.7
4.936,0.34115,0.33822,0.16992,0.61569,0.7549
4.944,0.34115,0.33822,0.099609,0.5451,0.7902
4.952,0.34018,0.33822,0.054688,0.50588,0.81176
4.96,0.3392,0.33822,0.025391,0.47451,0.82549
4.968,0.33627,0.33724,0.015625,0.46078,0.83529
4.976,0.33431,0.33627,0.0058594,0.4549,0.83529
4.984,0.33138,0.33627,0,0.4549,0.83529
4.992,0.32747,0.33627,0,0.4549,0.83529
5,0.32356,0.33627,0,0.4549,0.84118
5.008,0.31965,0.33627,0.0058594,0.46078,0.83529
5.016,0.31476,0.33529,0.015625,0.46471,0.83137
5.024,0.31085,0.33431,0.019531,0.47451,0.82549
5.032,0.30694,0.33333,0.025391,0.48431,0.82157
5.04,0.30401,0.33138,0.035156,0.49412,0.81176
5.048,0.29814,0.32942,0.050781,0.50588,0.8
5.056,0.29326,0.32845,0.060547,0.51569,0.79608
5.064,0.28739,0.32747,0.070312,0.51961,0.7902
5.072,0.28152,0.32551,0.080078,0.52941,0.78627
5.08,0.27664,0.32258,0.080078,0.53922,0.78039
5.088,0.27077,0.3216,0.085938,0.5451,0.77647
5.096,0.26686,0.3216,0.085938,0.55098,0.77647
5.104,0.26197,0.3216,0.085938,0.55098,0.77647
5.112,0.25806,0.32258,0.085938,0.55098,0.77647
5.12,0.25415,0.32454,0.080078,0.55098,0.78039
5.128,0.25024,0.33431,0.076172,0.55098,0.78627
5.136,0.24731,0.34506,0.070312,0.5451,0.78627
5.144,0.24438,0.35582,0.070312,0.5451,0.79608
5.152,0.24145,0.37048,0.064453,0.5451,0.79608
5.16,0.23949,0.39003,0.064453,0.53922,0.79608
5.168,0.23851,0.41349,0.060547,0.53922,0.79608
5.176,0.23754,0.43988,0.060547,0.53922,0.79608
5.184,0.23656,0.46823,0.060547,0.53922,0.8
5.192,0.23656,0.49462,0.060547,0.53922,0.8
5.2,0.23656,0.51808,0.060547,0.53922,0.80588
5.208,0.23656,0.54448,0.060547,0.53922,0.80588
5.216,0.23656,0.57087,0.060547,0.5451,0.8
5.224,0.23656,0.59531,0.060547,0.5451,0.8
5.232,0.23656,0.61681,0.060547,0.5451,0.8
5.24,0.23754,0.63539,0.054688,0.5451,0.8
5.248,0.23754,0.65103,0.054688,0.5451,0.80588
5.256,0.23851,0.66373,0.054688,0.55098,0.80588
5.264,0.23949,0.67253,0.060547,0.55098,0.80588
5.272,0.24047,0.68035,0.060547,0.55098,0.8
5.28,0.24145,0.68622,0.060547,0.55098,0.8
5.288,0.24242,0.68817,0.064453,0.55098,0.8
5.296,0.24242,0.68719,0.064453,0.55098,0.8
5.304,0.24242,0.68524,0.080078,0.57059,0.79608
5.312,0.2434,0.68133,0.10547,0.6,0.7902
5.32,0.24242,0.67546,0.125,0.64118,0.78627
5.328,0.24242,0.66667,0.13477,0.67647,0.7902
5.336,0.24145,0.65689,0.13477,0.6902,0.79608
5.344,0.24145,0.64614,0.13086,0.6451,0.80588
5.352,0.24145,0.63441,0.095703,0.58431,0.82549
5.36,0.24047,0.62072,0.054688,0.55098,0.8451
5.368,0.24047,0.60704,0.019531,0.53922,0.85686
5.376,0.23949,0.59335,0.019531,0.53922,0.8451
5.384,0.23851,0.57967,0.035156,0.5451,0.82157
5.392,0.23754,0.56696,0.050781,0.55098,0.80588
5.4,0.23656,0.55621,0.050781,0.55098,0.8
5.408,0.23656,0.54448,0.050781,0.55098,0.8
5.416,0.23558,0.53275,0.044922,0.55098,0.79608
5.424,0.23558,0.52199,0.044922,0.56078,0.79608
5.432,0.2346,0.51222,0.050781,0.56471,0.79608
5.44,0.2346,0.5044,0.054688,0.57059,0.79608
5.448,0.2346,0.49756,0.054688,0.57451,0.79608
5.456,0.2346,0.49169,0.054688,0.58431,0.79608
5.464,0.2346,0.4868,0.060547,0.58431,0.79608
5.472,0.2346,0.48094,0.050781,0.60588,0.8
5.48,0.2346,0.47507,0.044922,0.6098,0.81569
5.488,0.2346,0.46921,-0.025391,0.084314,0.88039
5.496,0.2346,0.46334,-0.37891,-0.50196,1.1275
5.504,0.2346,0.45846,-0.49805,-0.50196,1.5039
5.512,0.2346,0.45259,-0.49805,-0.50196,1.5039
5.52,0.2346,0.4477,-0.49805,-0.50196,1.5039
5.528,0.2346,0.44282,-0.49805,-0.50196,1.5039
5.536,0.2346,0.43891,-0.49805,-0.021569,1.3627
5.544,0.23558,0.435,0.044922,0.73529,0.81569
5.552,0.23558,0.43011,0.31445,1.0412,0.6098
5.56,0.23558,0.42424,0.37109,1.0961,0.56471
5.568,0.23558,0.41838,0.39062,1.102,0.5549
5.576,0.23656,0.41349,0.39453,1.1118,0.5549
5.584,0.23656,0.4086,0.39453,1.1059,0.5549
5.592,0.23656,0.40469,0.39453,1.102,0.5549
5.6,0.23656,0.40176,0.39453,1.102,0.56078
5.608,0.23656,0.3998,0.39062,1.0961,0.56078
5.616,0.23754,0.39687,0.39062,1.0961,0.56078
5.624,0.23754,0.39394,0.39453,1.0961,0.56078
5.632,0.23851,0.39101,0.40039,1.0961,0.56078
5.64,0.23949,0.3871,0.4043,1.102,0.56078
5.648,0.24047,0.38319,0.41016,1.1059,0.56471
5.656,0.24145,0.3783,0.41016,1.1118,0.56471
5.664,0.24242,0.37439,0.41602,1.1216,0.56078
5.672,0.24242,0.3695,0.41992,1.1373,0.56078
5.68,0.2434,0.36559,0.43555,1.151,0.55098
5.688,0.24536,0.36364,0.44531,1.1725,0.5451
5.696,0.24731,0.36266,0.46094,1.1961,0.53529
5.704,0.24927,0.36168,0.48047,1.2275,0.52941
5.712,0.25122,0.36168,0.5,1.2627,0.51961
5.72,0.25318,0.3607,0.52539,1.3078,0.5098
5.728,0.25513,0.35973,0.55469,1.3569,0.49412
5.736,0.25611,0.35875,0.5957,1.4118,0.47059
5.744,0.25806,0.35679,0.63477,1.4725,0.4451
5.752,0.25904,0.35582,0.68555,1.5039,0.41961
5.76,0.261,0.35386,0.72461,1.5039,0.4
5.768,0.26295,0.35093,0.75977,1.5039,0.38039
5.776,0.26491,0.34897,0.78516,1.5039,0.37059
5.784,0.26686,0.34604,0.79492,1.5039,0.37059
5.792,0.26882,0.34311,0.77539,1.5039,0.38431
5.8,0.27077,0.34018,0.72461,1.398,0.41961
5.808,0.27273,0.33822,0.62891,1.2275,0.48431
5.816,0.2737,0.33529,0.50586,1.0471,0.56471
5.824,0.27566,0.33333,0.37109,0.87647,0.6451
5.832,0.27664,0.33333,0.25,0.73137,0.7098
5.84,0.27761,0.33431,0.15625,0.62549,0.76667
5.848,0.27761,0.33529,0.080078,0.55098,0.79608
5.856,0.27859,0.33529,0.035156,0.50588,0.82157
5.864,0.27761,0.33529,0,0.47451,0.83529
5.872,0.27761,0.33529,-0.019531,0.46078,0.8451
5.88,0.27664,0.33431,-0.025391,0.44902,0.85098
5.888,0.27566,0.33333,-0.029297,0.44902,0.85098
5.896,0.27468,0.33236,-0.029297,0.44902,0.85098
5.904,0.27273,0.33236,-0.029297,0.4549,0.85686
5.912,0.27077,0.3304,-0.025391,0.4549,0.85098
5.92,0.26882,0.32942,-0.019531,0.46078,0.8451
5.928,0.26588,0.32942,-0.0097656,0.47059,0.84118
5.936,0.26295,0.32747,-0.0039062,0.48039,0.83137
5.944,0.26002,0.32649,0,0.49412,0.82549
5.952,0.25709,0.32649,0.0097656,0.50588,0.82157
5.96,0.25318,0.32649,0.019531,0.51569,0.81176
5.968,0.25024,0.32649,0.041016,0.52549,0.80588
5.976,0.24731,0.32649,0.044922,0.53529,0.8
5.984,0.2434,0.32454,0.050781,0.53922,0.79608
5.992,0.24047,0.3216,0.054688,0.5451,0.79608
6,0.23851,0.32063,0.050781,0.55098,0.79608
6.008,0.23558,0.32063,0.050781,0.55098,0.79608
6.016,0.23363,0.32063,0.054688,0.55098,0.7902
6.024,0.23265,0.3216,0.060547,0.55098,0.7902
6.032,0.23069,0.32454,0.050781,0.55098,0.79608
6.04,0.22972,0.32942,0.041016,0.55098,0.8
6.048,0.22874,0.33822,0.041016,0.55098,0.8
6.056,0.22776,0.35093,0.041016,0.5451,0.8
6.064,0.22776,0.36755,0.044922,0.5451,0.8
6.072,0.22776,0.38905,0.044922,0.53922,0.8
6.08,0.22776,0.41447,0.041016,0.5451,0.8
6.088,0.22874,0.43891,0.041016,0.5451,0.80588
6.096,0.22972,0.46237,0.035156,0.5451,0.80588
6.104,0.23069,0.48974,0.035156,0.53922,0.80588
6.112,0.23167,0.51711,0.035156,0.53922,0.80588
6.12,0.23265,0.5435,0.041016,0.53922,0.80588
6.128,0.2346,0.56794,0.035156,0.5451,0.81176
6.136,0.23558,0.5914,0.03125,0.5451,0.81176
6.144,0.23656,0.61193,0.03125,0.5451,0.81176
6.152,0.23754,0.63245,0.03125,0.5451,0.81176
6.16,0.23851,0.64907,0.03125,0.55098,0.81176
6.168,0.23949,0.65787,0.03125,0.55098,0.81176
6.176,0.24047,0.66569,0.035156,0.5549,0.81176
6.184,0.24047,0.6696,0.041016,0.55098,0.81176
6.192,0.24145,0.67155,0.044922,0.56078,0.80588
6.2,0.24145,0.67058,0.076172,0.58039,0.8
6.208,0.24242,0.66667,0.10547,0.6098,0.7902
6.216,0.24242,0.66178,0.11523,0.65098,0.7902
6.224,0.2434,0.65494,0.125,0.67647,0.7902
6.232,0.2434,0.64516,0.125,0.68039,0.8
6.24,0.2434,0.63539,0.10547,0.6098,0.81569
6.248,0.2434,0.62268,0.064453,0.56078,0.83529
6.256,0.24438,0.60899,0.035156,0.53922,0.8451
6.264,0.24438,0.59531,0.015625,0.53529,0.85098
6.272,0.24438,0.58162,0.015625,0.53922,0.84118
6.28,0.24438,0.56794,0.025391,0.5451,0.81569
6.288,0.24438,0.55523,0.035156,0.55098,0.80588
6.296,0.24438,0.54448,0.025391,0.5549,0.80588
6.304,0.24438,0.53275,0.019531,0.56078,0.80588
6.312,0.2434,0.52102,0.019531,0.56471,0.81176
6.32,0.24242,0.50929,0.025391,0.57059,0.80588
6.328,0.24242,0.49951,0.03125,0.57451,0.80588
6.336,0.24242,0.49071,0.035156,0.57451,0.80588
6.344,0.24242,0.48387,0.041016,0.58039,0.8
6.352,0.2434,0.47703,0.035156,0.58431,0.8
6.36,0.2434,0.47116,0.035156,0.5902,0.80588
6.368,0.24438,0.46628,0.041016,0.6,0.82157
6.376,0.24438,0.46139,0.025391,0.33922,0.85098
6.384,0.24536,0.45748,-0.18945,-0.49216,1.002
6.392,0.24633,0.45259,-0.49805,-0.50196,1.4176
6.4,0.24829,0.44868,-0.49805,-0.50196,1.5039
6.408,0.25024,0.44379,-0.49805,-0.50196,1.5039
6.416,0.2522,0.43891,-0.49805,-0.50196,1.5039
6.424,0.25415,0.43304,-0.49805,-0.41176,1.5039
6.432,0.25611,0.42717,-0.20898,0.46471,1.0118
6.44,0.25904,0.42131,0.23047,0.95098,0.67059
6.448,0.261,0.41544,0.33594,1.0824,0.58431
6.456,0.26295,0.40958,0.35547,1.102,0.57059
6.464,0.26491,0.40469,0.36523,1.1059,0.56471
6.472,0.26784,0.40078,0.375,1.102,0.56078
6.48,0.26979,0.39687,0.375,1.102,0.56078
6.488,0.27273,0.39492,0.38086,1.102,0.56078
6.496,0.27566,0.39198,0.39062,1.102,0.56078
6.504,0.27859,0.38905,0.39062,1.102,0.56078
6.512,0.28152,0.38612,0.39062,1.102,0.56078
6.52,0.28543,0.38319,0.39453,1.102,0.56471
6.528,0.28837,0.38123,0.39453,1.102,0.56471
6.536,0.2913,0.3783,0.39453,1.1118,0.56471
6.544,0.29423,0.37634,0.40039,1.1176,0.56471
6.552,0.29717,0.37341,0.41016,1.1216,0.56471
6.56,0.30108,0.3695,0.41602,1.1373,0.56078
6.568,0.30401,0.36559,0.42969,1.151,0.5549
6.576,0.30792,0.36266,0.43945,1.1725,0.55098
6.584,0.31281,0.35973,0.45508,1.1961,0.53922
6.592,0.31769,0.35777,0.47461,1.2275,0.53529
6.6,0.32258,0.35582,0.49023,1.2627,0.52549
6.608,0.32747,0.35386,0.51562,1.302,0.51569
6.616,0.33138,0.35288,0.54492,1.3529,0.5
6.624,0.33627,0.35191,0.58008,1.4118,0.48039
6.632,0.34018,0.35191,0.625,1.4725,0.4549
6.64,0.34409,0.35191,0.66992,1.5039,0.42941
6.648,0.348,0.35093,0.7207,1.5039,0.40392
6.656,0.35288,0.34995,0.75977,1.5039,0.38431
6.664,0.35679,0.348,0.78906,1.5039,0.37059
6.672,0.3607,0.34604,0.81055,1.5039,0.36471
6.68,0.36461,0.34311,0.79883,1.5039,0.37059
6.688,0.36852,0.34213,0.75391,1.4725,0.4
6.696,0.37146,0.34115,0.67578,1.3118,0.46078
6.704,0.37537,0.34018,0.56055,1.1275,0.53529
6.712,0.3783,0.3392,0.42969,0.94706,0.61569
6.72,0.38221,0.3392,0.29492,0.78627,0.6902
6.728,0.38612,0.33822,0.18555,0.66471,0.75098
6.736,0.39003,0.33724,0.10547,0.58039,0.79608
6.744,0.39296,0.33627,0.050781,0.52549,0.82157
6.752,0.39589,0.33529,0.0097656,0.4902,0.83529
6.76,0.39785,0.33431,-0.013672,0.47451,0.84118
6.768,0.3998,0.33333,-0.019531,0.46471,0.8451
6.776,0.40078,0.33236,-0.025391,0.46078,0.85098
6.784,0.40176,0.33138,-0.025391,0.4549,0.85098
6.792,0.40176,0.33138,-0.029297,0.46078,0.85098
6.8,0.40176,0.33138,-0.025391,0.46471,0.85098
6.808,0.40078,0.3304,-0.025391,0.47451,0.85098
6.816,0.3998,0.3304,-0.013672,0.48039,0.8451
6.824,0.39687,0.3304,-0.0039062,0.48431,0.84118
6.832,0.39492,0.3304,0.0058594,0.5,0.83137
6.84,0.39296,0.3304,0.015625,0.5098,0.82549
6.848,0.39101,0.3304,0.019531,0.51961,0.82157
6.856,0.38807,0.3304,0.025391,0.52549,0.81176
6.864,0.38612,0.32942,0.035156,0.53529,0.80588
6.872,0.38319,0.32845,0.044922,0.5451,0.80588
6.88,0.38025,0.32845,0.044922,0.55098,0.8
6.888,0.37634,0.32845,0.050781,0.55098,0.8
6.896,0.37341,0.32845,0.050781,0.56078,0.8
6.904,0.3695,0.32942,0.050781,0.56471,0.79608
6.912,0.36657,0.3304,0.054688,0.56471,0.79608
6.92,0.36364,0.33333,0.050781,0.56078,0.79608
6.928,0.3607,0.33724,0.050781,0.56078,0.8
6.936,0.35777,0.34506,0.050781,0.5549,0.8
6.944,0.35582,0.35484,0.044922,0.56078,0.8
6.952,0.35386,0.36852,0.044922,0.56078,0.80588
6.96,0.35191,0.3871,0.041016,0.56078,0.80588
6.968,0.34897,0.41056,0.041016,0.5549,0.80588
6.976,0.34702,0.43695,0.041016,0.5549,0.80588
6.984,0.34506,0.46139,0.041016,0.5549,0.80588
6.992,0.34311,0.48387,0.041016,0.56078,0.80588
7,0.34115,0.51026,0.041016,0.5549,0.81176
7.008,0.3392,0.53763,0.041016,0.5549,0.81176
7.016,0.33822,0.56403,0.041016,0.5549,0.81176
7.024,0.33627,0.58847,0.044922,0.5549,0.80588
7.032,0.33529,0.61193,0.044922,0.56078,0.80588
7.04,0.33333,0.63245,0.050781,0.56078,0.80588
7.048,0.33138,0.64907,0.050781,0.56078,0.80588
7.056,0.32942,0.66276,0.050781,0.56471,0.80588
7.064,0.32845,0.67155,0.054688,0.56078,0.80588
7.072,0.32649,0.67742,0.060547,0.56471,0.80588
7.08,0.32551,0.6784,0.060547,0.56471,0.8
7.088,0.32454,0.67742,0.064453,0.57059,0.8
7.096,0.32356,0.67253,0.089844,0.59608,0.79608
7.104,0.32258,0.66667,0.12109,0.62941,0.78627
7.112,0.3216,0.65982,0.13477,0.66471,0.78627
7.12,0.32063,0.65005,0.14453,0.69608,0.78627
7.128,0.32063,0.6393,0.14062,0.7,0.79608
7.136,0.31965,0.62854,0.12109,0.62941,0.81569
7.144,0.31867,0.61681,0.080078,0.57451,0.83529
7.152,0.31867,0.60411,0.044922,0.56078,0.85098
7.16,0.31769,0.59238,0.019531,0.55098,0.85686
7.168,0.31769,0.58065,0.025391,0.55098,0.84118
7.176,0.31672,0.56696,0.041016,0.56078,0.81569
7.184,0.31672,0.55523,0.044922,0.56471,0.8
7.192,0.31672,0.54741,0.041016,0.57059,0.79608
7.2,0.31672,0.53763,0.041016,0.57059,0.79608
7.208,0.31574,0.52786,0.041016,0.57059,0.79608
7.216,0.31574,0.51808,0.041016,0.57451,0.79608
7.224,0.31574,0.50733,0.041016,0.58039,0.79608
7.232,0.31672,0.49853,0.041016,0.58431,0.79608
7.24,0.31672,0.48974,0.044922,0.5902,0.79608
7.248,0.31769,0.48192,0.044922,0.59608,0.79608
7.256,0.31867,0.4741,0.050781,0.60588,0.79608
7.264,0.31965,0.46725,0.044922,0.62549,0.80588
7.272,0.3216,0.46139,0.035156,0.47059,0.83529
7.28,0.32258,0.4565,-0.11914,-0.22157,0.94706
7.288,0.32356,0.45161,-0.49805,-0.50196,1.3078
7.296,0.32454,0.4477,-0.49805,-0.50196,1.5039
7.304,0.32551,0.44477,-0.49805,-0.50196,1.5039
7.312,0.32649,0.44184,-0.49805,-0.50196,1.5039
7.32,0.32649,0.43793,-0.49805,-0.50196,1.5039
7.328,0.32747,0.435,-0.33398,0.3098,1.1176
7.336,0.32747,0.43206,0.18945,0.90196,0.70588
7.344,0.32845,0.42913,0.3457,1.0765,0.5902
7.352,0.32845,0.4262,0.37109,1.0961,0.56471
7.36,0.32942,0.42229,0.38477,1.102,0.56471
7.368,0.3304,0.4174,0.39062,1.1059,0.56078
7.376,0.33138,0.41251,0.39453,1.1059,0.56078
7.384,0.33236,0.40762,0.40039,1.1059,0.56078
7.392,0.33333,0.40274,0.40039,1.1059,0.56078
7.4,0.33431,0.39883,0.40039,1.102,0.56078
7.408,0.33529,0.39394,0.4043,1.102,0.56078
7.416,0.33529,0.39003,0.41016,1.102,0.56078
7.424,0.33627,0.38514,0.41016,1.102,0.56078
7.432,0.33822,0.38025,0.41016,1.1059,0.56471
7.44,0.3392,0.37634,0.41602,1.1118,0.56078
7.448,0.34018,0.37243,0.41992,1.1216,0.56078
7.456,0.34213,0.3695,0.42969,1.1314,0.56078
7.464,0.34311,0.36657,0.43945,1.1471,0.5549
7.472,0.34506,0.36364,0.44922,1.1627,0.55098
7.48,0.34604,0.36168,0.46094,1.1824,0.5451
7.488,0.348,0.35973,0.47461,1.2078,0.53922
7.496,0.34897,0.35679,0.49414,1.2431,0.52941
7.504,0.34995,0.35386,0.51953,1.2765,0.51961
7.512,0.35093,0.35191,0.55078,1.3216,0.50588
7.52,0.35288,0.34995,0.58008,1.3784,0.4902
7.528,0.35484,0.348,0.61523,1.4333,0.46471
7.536,0.35777,0.34604,0.66016,1.4922,0.43922
7.544,0.35973,0.34506,0.70508,1.5039,0.41961
7.552,0.36266,0.34409,0.75,1.5039,0.3902
7.56,0.36461,0.34409,0.78906,1.5039,0.37451
7.568,0.36755,0.34311,0.81055,1.5039,0.36471
7.576,0.36852,0.34115,0.81445,1.5039,0.36471
7.584,0.37048,0.34115,0.77539,1.4824,0.3902
7.592,0.37146,0.34018,0.70898,1.3431,0.43922
7.6,0.37243,0.3392,0.59961,1.1667,0.50588
7.608,0.37243,0.33822,0.47461,0.98627,0.58431
7.616,0.37341,0.33822,0.3457,0.82157,0.66471
7.624,0.37243,0.33822,0.22461,0.6902,0.73137
7.632,0.37243,0.33822,0.13477,0.60588,0.78039
7.64,0.37146,0.33822,0.070312,0.53922,0.81569
7.648,0.37048,0.33822,0.03125,0.5,0.83137
7.656,0.3695,0.33724,0,0.48039,0.8451
7.664,0.36755,0.33529,-0.013672,0.46471,0.85098
7.672,0.36559,0.33236,-0.019531,0.46078,0.85098
7.68,0.36364,0.3304,-0.025391,0.46078,0.85098
7.688,0.3607,0.32747,-0.025391,0.46078,0.85098
7.696,0.35777,0.32649,-0.019531,0.46471,0.85098
7.704,0.35386,0.32454,-0.013672,0.47451,0.85098
7.712,0.34995,0.32258,-0.0097656,0.48039,0.8451
7.72,0.34506,0.3216,-0.0039062,0.48431,0.84118
7.728,0.34018,0.3216,0.0058594,0.49412,0.83137
7.736,0.33529,0.3216,0.015625,0.50588,0.82549
7.744,0.3304,0.32063,0.03125,0.51961,0.81569
7.752,0.32551,0.32063,0.041016,0.52549,0.81176
7.76,0.32063,0.31965,0.044922,0.53529,0.80588
7.768,0.31574,0.31867,0.050781,0.53922,0.8
7.776,0.31085,0.31672,0.054688,0.5451,0.8
7.784,0.30596,0.31574,0.060547,0.55098,0.79608
7.792,0.30108,0.31574,0.064453,0.5549,0.79608
7.8,0.29619,0.31574,0.064453,0.56078,0.79608
7.808,0.29228,0.31574,0.060547,0.56078,0.79608
7.816,0.28837,0.31574,0.060547,0.5549,0.79608
7.824,0.28446,0.31867,0.054688,0.5549,0.8
7.832,0.28055,0.32551,0.050781,0.55098,0.8
7.84,0.27761,0.33724,0.050781,0.55098,0.8
7.848,0.27566,0.35288,0.044922,0.5451,0.80588
7.856,0.2737,0.37439,0.044922,0.5451,0.8
7.864,0.27175,0.3998,0.044922,0.5451,0.8
7.872,0.26979,0.42815,0.044922,0.53922,0.8
7.88,0.26784,0.45846,0.041016,0.53922,0.80588
7.888,0.26686,0.48485,0.044922,0.53922,0.80588
7.896,0.26588,0.50929,0.044922,0.53922,0.80588
7.904,0.26491,0.53568,0.050781,0.53922,0.80588
7.912,0.26393,0.56207,0.044922,0.53922,0.80588
7.92,0.26295,0.58749,0.044922,0.53922,0.80588
7.928,0.26295,0.61095,0.044922,0.53922,0.80588
7.936,0.26295,0.6305,0.050781,0.5451,0.80588
7.944,0.26295,0.64712,0.050781,0.5451,0.80588
7.952,0.26393,0.65982,0.050781,0.5451,0.80588
7.96,0.26393,0.6696,0.050781,0.55098,0.81176
7.968,0.26491,0.67546,0.050781,0.55098,0.81176
7.976,0.26491,0.67937,0.050781,0.5549,0.80588
7.984,0.26491,0.68035,0.050781,0.56078,0.80588
7.992,0.26491,0.6784,0.054688,0.56078,0.80588
8,0.26588,0.67449,0.070312,0.57059,0.8
8.008,0.26588,0.66862,0.099609,0.60588,0.79608
8.016,0.26588,0.6608,0.12109,0.64118,0.79608
8.024,0.26588,0.65103,0.13086,0.68039,0.79608
8.032,0.26588,0.64125,0.13086,0.69608,0.8
8.04,0.26588,0.6305,0.13477,0.6549,0.80588
8.048,0.26588,0.61877,0.089844,0.5902,0.83137
8.056,0.26491,0.60606,0.050781,0.5549,0.85098
8.064,0.26491,0.59042,0.019531,0.5451,0.86078
8.072,0.26393,0.57478,0.019531,0.53922,0.85098
8.08,0.26295,0.56403,0.03125,0.5451,0.83137
8.088,0.26197,0.55327,0.041016,0.55098,0.81176
8.096,0.261,0.54057,0.044922,0.56078,0.8
8.104,0.26002,0.52688,0.041016,0.56078,0.8
8.112,0.26002,0.51808,0.041016,0.56471,0.79608
8.12,0.25904,0.50733,0.044922,0.56471,0.79608
8.128,0.25904,0.49658,0.044922,0.57059,0.8
8.136,0.25806,0.48778,0.044922,0.57451,0.8
8.144,0.25806,0.47898,0.044922,0.57451,0.8
8.152,0.25709,0.47116,0.044922,0.58431,0.79608
8.16,0.25611,0.46334,0.050781,0.5902,0.79608
8.168,0.25513,0.45552,0.041016,0.6098,0.80588
8.176,0.25415,0.44966,0.041016,0.61961,0.82157
8.184,0.25318,0.44575,-0.013672,0.17451,0.87647
8.192,0.2522,0.44184,-0.34375,-0.50196,1.102
8.2,0.25122,0.43695,-0.49805,-0.50196,1.5039
8.208,0.25122,0.43206,-0.49805,-0.50196,1.5039
8.216,0.25024,0.42815,-0.49805,-0.50196,1.5039
8.224,0.25024,0.42326,-0.49805,-0.50196,1.5039
8.232,0.24927,0.4174,-0.49805,-0.086275,1.4118
8.24,0.24927,0.41153,0,0.69608,0.8451
8.248,0.24927,0.40762,0.29102,1.0275,0.62549
8.256,0.24829,0.40274,0.34961,1.0922,0.58039
8.264,0.24829,0.3998,0.36523,1.102,0.57059
8.272,0.24829,0.39785,0.37109,1.1118,0.56471
8.28,0.24829,0.39687,0.375,1.1118,0.56471
8.288,0.24927,0.39492,0.38086,1.102,0.56471
8.296,0.25024,0.39101,0.38086,1.102,0.56471
8.304,0.25122,0.3871,0.38086,1.0961,0.57059
8.312,0.2522,0.38319,0.38086,1.0961,0.57059
8.32,0.25318,0.37732,0.38086,1.102,0.57059
8.328,0.25415,0.37243,0.38477,1.102,0.57059
8.336,0.25611,0.3695,0.39062,1.102,0.57059
8.344,0.25806,0.36657,0.39062,1.102,0.57059
8.352,0.25904,0.36364,0.39453,1.1176,0.57059
8.36,0.261,0.36168,0.40039,1.1275,0.56471
8.368,0.26295,0.35875,0.41016,1.1373,0.56471
8.376,0.26491,0.35582,0.41992,1.151,0.56078
8.384,0.26686,0.35191,0.43555,1.1725,0.5549
8.392,0.26882,0.34995,0.44531,1.1922,0.5451
8.4,0.27077,0.348,0.46094,1.2216,0.53922
8.408,0.2737,0.34604,0.48438,1.2569,0.53529
8.416,0.27664,0.34409,0.50977,1.302,0.51961
8.424,0.27957,0.34213,0.53906,1.3529,0.50588
8.432,0.2825,0.34115,0.57422,1.4078,0.4902
8.44,0.28543,0.34018,0.61523,1.4686,0.46471
8.448,0.28837,0.33822,0.66016,1.5039,0.4451
8.456,0.2913,0.33627,0.69922,1.5039,0.41961
8.464,0.29423,0.33333,0.74023,1.5039,0.39412
8.472,0.29619,0.3304,0.76953,1.5039,0.38431
8.48,0.29814,0.32845,0.7793,1.5039,0.38431
8.488,0.3001,0.32747,0.75977,1.5039,0.4
8.496,0.30205,0.32747,0.70898,1.4118,0.43529
8.504,0.30303,0.32649,0.625,1.2471,0.4902
8.512,0.30401,0.32551,0.50586,1.0667,0.57059
8.52,0.30499,0.32551,0.375,0.89608,0.6451
8.528,0.30596,0.32454,0.25,0.7451,0.71569
8.536,0.30596,0.32454,0.15039,0.63529,0.77059
8.544,0.30694,0.32454,0.076172,0.56078,0.80588
8.552,0.30694,0.32258,0.035156,0.51569,0.82549
8.56,0.30792,0.3216,0,0.4902,0.84118
8.568,0.30694,0.31965,-0.013672,0.47059,0.8451
8.576,0.30596,0.31769,-0.025391,0.46078,0.85098
8.584,0.30401,0.31672,-0.025391,0.46078,0.85098
8.592,0.30205,0.31574,-0.025391,0.46078,0.85098
8.6,0.29912,0.31476,-0.025391,0.46078,0.85098
8.608,0.29717,0.31378,-0.019531,0.46471,0.8451
8.616,0.29423,0.31281,-0.013672,0.46471,0.8451
8.624,0.29032,0.31281,-0.0039062,0.47451,0.84118
8.632,0.28641,0.31281,0,0.48431,0.83529
8.64,0.2825,0.31183,0.0097656,0.49412,0.83137
8.648,0.27761,0.31085,0.025391,0.5098,0.82157
8.656,0.27273,0.3089,0.03125,0.51961,0.81176
8.664,0.26784,0.30596,0.041016,0.52941,0.80588
8.672,0.26295,0.30499,0.050781,0.53922,0.8
8.68,0.25806,0.30401,0.054688,0.5451,0.79608
8.688,0.25415,0.30401,0.060547,0.55098,0.79608
8.696,0.24927,0.30303,0.064453,0.55098,0.79608
8.704,0.24536,0.30303,0.064453,0.55098,0.79608
8.712,0.24242,0.30401,0.064453,0.55098,0.79608
8.72,0.23851,0.30694,0.060547,0.55098,0.7902
8.728,0.23558,0.31183,0.060547,0.55098,0.7902
8.736,0.23265,0.32258,0.060547,0.55098,0.7902
8.744,0.22972,0.33529,0.054688,0.55098,0.7902
8.752,0.22678,0.34604,0.054688,0.5451,0.79608
8.76,0.22483,0.36168,0.054688,0.5451,0.79608
8.768,0.22287,0.39101,0.050781,0.53922,0.79608
8.776,0.2219,0.41935,0.050781,0.53922,0.8
8.784,0.22092,0.44575,0.050781,0.53922,0.8
8.792,0.21994,0.47116,0.044922,0.53922,0.8
8.8,0.21994,0.49951,0.044922,0.53922,0.8
8.808,0.21994,0.53666,0.044922,0.53922,0.80588
8.816,0.22092,0.56794,0.044922,0.53922,0.80588
8.824,0.22092,0.59531,0.041016,0.5451,0.81176
8.832,0.22092,0.61975,0.041016,0.5451,0.81176
8.84,0.2219,0.6393,0.041016,0.5451,0.81176
8.848,0.2219,0.65494,0.041016,0.5451,0.80588
8.856,0.22287,0.66764,0.041016,0.5451,0.80588
8.864,0.22287,0.67546,0.041016,0.5451,0.81176
8.872,0.22287,0.67937,0.041016,0.5451,0.81176
8.88,0.22385,0.68035,0.044922,0.55098,0.81176
8.888,0.22385,0.68035,0.050781,0.5549,0.80588
8.896,0.22385,0.67742,0.076172,0.57059,0.8
8.904,0.22287,0.67253,0.099609,0.6,0.7902
8.912,0.22287,0.66569,0.12109,0.64118,0.78627
8.92,0.2219,0.65787,0.125,0.67647,0.78627
8.928,0.2219,0.64712,0.13086,0.68039,0.79608
8.936,0.2219,0.63539,0.11523,0.62549,0.81176
8.944,0.2219,0.62268,0.080078,0.56471,0.83529
8.952,0.22092,0.60899,0.041016,0.53922,0.85098
8.96,0.22092,0.59433,0.019531,0.53922,0.85686
8.968,0.21994,0.58065,0.019531,0.53529,0.84118
8.976,0.21896,0.56794,0.03125,0.5451,0.82157
8.984,0.21896,0.55621,0.041016,0.55098,0.80588
8.992,0.21799,0.5435,0.041016,0.55098,0.8
9,0.21799,0.53177,0.035156,0.55098,0.8
9.008,0.21799,0.51906,0.03125,0.56078,0.8
9.016,0.21701,0.50733,0.035156,0.56078,0.80588
9.024,0.21701,0.4956,0.041016,0.56471,0.8
9.032,0.21701,0.48485,0.041016,0.56471,0.8
9.04,0.21799,0.47605,0.044922,0.57451,0.79608
9.048,0.21799,0.46725,0.054688,0.58039,0.7902
9.056,0.21896,0.45943,0.060547,0.58431,0.7902
9.064,0.21994,0.45357,0.054688,0.60588,0.8
9.072,0.22092,0.44966,0.050781,0.5,0.82157
9.08,0.2219,0.44575,-0.054688,-0.10588,0.90588
9.088,0.22287,0.44086,-0.49414,-0.50196,1.2176
9.096,0.22385,0.435,-0.49805,-0.50196,1.5039
9.104,0.22483,0.43011,-0.49805,-0.50196,1.5039
9.112,0.22581,0.42424,-0.49805,-0.50196,1.5039
9.12,0.22678,0.4174,-0.49805,-0.50196,1.5039
9.128,0.22678,0.41251,-0.46484,0.17451,1.2118
9.136,0.22776,0.4086,0.13477,0.83137,0.74118
9.144,0.22874,0.40469,0.33594,1.0569,0.5902
9.152,0.22972,0.40078,0.37109,1.0961,0.56471
9.16,0.23167,0.39785,0.38086,1.102,0.56078
9.168,0.23265,0.39492,0.39062,1.102,0.5549
9.176,0.23363,0.39296,0.39453,1.102,0.5549
9.184,0.2346,0.39101,0.39453,1.0961,0.5549
9.192,0.23558,0.38807,0.40039,1.0922,0.5549
9.2,0.23656,0.38612,0.40039,1.0922,0.5549
9.208,0.23754,0.38319,0.4043,1.0922,0.56078
9.216,0.23949,0.38123,0.40039,1.0961,0.56078
9.224,0.24047,0.3783,0.40039,1.102,0.56471
9.232,0.24242,0.37537,0.4043,1.102,0.56078
9.24,0.2434,0.37146,0.41016,1.102,0.56078
9.248,0.24536,0.36852,0.41602,1.1118,0.56078
9.256,0.24731,0.36559,0.41602,1.1216,0.56078
9.264,0.24927,0.36168,0.42969,1.1314,0.5549
9.272,0.2522,0.35777,0.44531,1.1471,0.5451
9.28,0.25415,0.35484,0.46094,1.1725,0.53922
9.288,0.25709,0.35191,0.4707,1.1961,0.53922
9.296,0.261,0.34897,0.49414,1.2275,0.52549
9.304,0.26393,0.34604,0.51562,1.2725,0.51569
9.312,0.26784,0.34311,0.53906,1.3176,0.5
9.32,0.27175,0.34018,0.57422,1.3667,0.48431
9.328,0.27468,0.33724,0.61523,1.4333,0.46471
9.336,0.27761,0.33431,0.66016,1.4882,0.43922
9.344,0.28055,0.33236,0.70508,1.5039,0.41569
9.352,0.28348,0.32942,0.75,1.5039,0.39412
9.36,0.28543,0.32845,0.78516,1.5039,0.37451
9.368,0.28739,0.32649,0.80469,1.5039,0.36471
9.376,0.29032,0.32649,0.81055,1.5039,0.37059
9.384,0.29228,0.32649,0.76953,1.498,0.4
9.392,0.29423,0.32649,0.70508,1.3627,0.44902
9.4,0.29619,0.32649,0.59961,1.1824,0.5098
9.408,0.29717,0.32649,0.48047,0.99608,0.5902
9.416,0.29912,0.32649,0.34961,0.83137,0.66471
9.424,0.3001,0.32649,0.22461,0.7,0.73137
9.432,0.3001,0.32551,0.13086,0.6,0.78039
9.44,0.30108,0.32454,0.064453,0.53529,0.81176
9.448,0.3001,0.32356,0.025391,0.49412,0.83137
9.456,0.3001,0.32258,0,0.47451,0.84118
9.464,0.29912,0.3216,-0.013672,0.46471,0.8451
9.472,0.29814,0.32063,-0.019531,0.46078,0.85098
9.48,0.29717,0.3216,-0.019531,0.4549,0.85098
9.488,0.29619,0.3216,-0.019531,0.4549,0.8451
9.496,0.29521,0.3216,-0.019531,0.46078,0.8451
9.504,0.29423,0.3216,-0.013672,0.46471,0.8451
9.512,0.29326,0.3216,-0.0097656,0.47059,0.8451
9.52,0.29228,0.3216,-0.0039062,0.48039,0.84118
9.528,0.29032,0.3216,0,0.48431,0.83137
9.536,0.28837,0.32063,0.015625,0.49412,0.82549
9.544,0.28641,0.31867,0.025391,0.50588,0.81569
9.552,0.28348,0.31574,0.035156,0.51569,0.81176
9.56,0.28152,0.31378,0.044922,0.52549,0.80588
9.568,0.27957,0.30987,0.050781,0.53529,0.80588
9.576,0.27859,0.30694,0.050781,0.53922,0.8
9.584,0.27664,0.30499,0.054688,0.55098,0.8
9.592,0.27664,0.30303,0.054688,0.55098,0.8
9.6,0.27566,0.30303,0.054688,0.55098,0.8
9.608,0.27566,0.30401,0.050781,0.55098,0.8
9.616,0.27566,0.30792,0.050781,0.55098,0.8
9.624,0.27664,0.31476,0.044922,0.5451,0.8
9.632,0.27761,0.32454,0.044922,0.5451,0.8
9.64,0.27859,0.33822,0.050781,0.53922,0.8
9.648,0.27957,0.35679,0.050781,0.53922,0.8
9.656,0.28055,0.37928,0.054688,0.53922,0.8
9.664,0.28152,0.40469,0.050781,0.53922,0.8
9.672,0.28348,0.42913,0.044922,0.53922,0.8
9.68,0.28543,0.45259,0.044922,0.53922,0.80588
9.688,0.28739,0.48094,0.044922,0.53922,0.80588
9.696,0.28935,0.50929,0.044922,0.53922,0.80588
9.704,0.29228,0.53666,0.044922,0.53922,0.80588
9.712,0.29521,0.56305,0.044922,0.53922,0.81176
9.72,0.29717,0.58651,0.044922,0.53922,0.80588
9.728,0.29912,0.60704,0.044922,0.53922,0.80588
9.736,0.30108,0.62463,0.050781,0.53922,0.80588
9.744,0.30303,0.63832,0.050781,0.5451,0.80588
9.752,0.30499,0.64907,0.050781,0.5451,0.80588
9.76,0.30596,0.65591,0.050781,0.55098,0.80588
9.768,0.30792,0.6608,0.050781,0.55098,0.80588
9.776,0.30987,0.6608,0.060547,0.56078,0.80588
9.784,0.31085,0.65885,0.080078,0.57451,0.79608
9.792,0.31281,0.65396,0.11523,0.60588,0.78627
9.8,0.31378,0.64712,0.13477,0.64118,0.78039
9.808,0.31476,0.6393,0.14453,0.67647,0.78039
9.816,0.31574,0.62952,0.15039,0.68039,0.78627
9.824,0.31672,0.61877,0.13086,0.62549,0.8
9.832,0.31672,0.60606,0.095703,0.57059,0.82157
9.84,0.31769,0.59238,0.060547,0.5451,0.84118
9.848,0.31867,0.57967,0.03125,0.53922,0.8451
9.856,0.31965,0.56598,0.03125,0.53922,0.83529
9.864,0.32063,0.5523,0.044922,0.5451,0.81569
9.872,0.3216,0.54057,0.050781,0.56078,0.8
9.88,0.32258,0.53079,0.050781,0.56078,0.79608
9.888,0.32356,0.52102,0.044922,0.56078,0.79608
9.896,0.32454,0.51026,0.050781,0.56471,0.79608
9.904,0.32551,0.50147,0.050781,0.57059,0.7902
9.912,0.32551,0.49169,0.054688,0.57059,0.7902
9.92,0.32649,0.48192,0.054688,0.57451,0.7902
9.928,0.32649,0.47312,0.060547,0.58039,0.7902
9.936,0.32649,0.46432,0.060547,0.58431,0.79608
9.944,0.32747,0.4565,0.060547,0.5902,0.79608
9.952,0.32845,0.44966,0.050781,0.6098,0.80588
9.96,0.32942,0.44477,0.054688,0.47451,0.82549
9.968,0.3304,0.44086,-0.074219,-0.19608,0.92549
9.976,0.33138,0.43695,-0.49805,-0.50196,1.2529
9.984,0.33333,0.43402,-0.49805,-0.50196,1.5039
9.992,0.33431,0.43109,-0.49805,-0.50196,1.5039
10,0.33627,0.42815,-0.49805,-0.50196,1.5039
10.008,0.33724,0.42522,-0.49805,-0.50196,1.5039
10.016,0.33822,0.42229,-0.36328,0.27451,1.1412
10.024,0.3392,0.41838,0.18945,0.88039,0.70588
10.032,0.34018,0.41544,0.35938,1.0667,0.57451
10.04,0.34018,0.41153,0.39062,1.0961,0.5549
10.048,0.34115,0.4086,0.40039,1.102,0.5549
10.056,0.34213,0.40567,0.4043,1.102,0.55098
10.064,0.34213,0.40274,0.41016,1.102,0.55098
10.072,0.34311,0.40078,0.41016,1.0961,0.5451
10.08,0.34409,0.39883,0.41602,1.0961,0.5451
10.088,0.34506,0.39589,0.41602,1.0961,0.5451
10.096,0.34604,0.39198,0.41992,1.0961,0.5451
10.104,0.34702,0.38807,0.41992,1.0961,0.55098
10.112,0.348,0.38319,0.41602,1.102,0.55098
10.12,0.348,0.3783,0.41992,1.102,0.5549
10.128,0.34897,0.37439,0.41992,1.1118,0.55098
10.136,0.34995,0.37048,0.42969,1.1176,0.55098
10.144,0.35093,0.36755,0.43555,1.1216,0.5451
10.152,0.35191,0.36559,0.44531,1.1373,0.5451
10.16,0.35288,0.36266,0.46094,1.151,0.53922
10.168,0.35484,0.3607,0.47461,1.1725,0.53529
10.176,0.35582,0.35875,0.49023,1.202,0.52549
10.184,0.35777,0.35582,0.50586,1.2314,0.51569
10.192,0.35973,0.35386,0.5293,1.2725,0.50588
10.2,0.3607,0.35191,0.56055,1.3216,0.49412
10.208,0.36266,0.34995,0.58984,1.3725,0.47451
10.216,0.36461,0.34897,0.625,1.4333,0.4549
10.224,0.36657,0.34897,0.66992,1.4922,0.43529
10.232,0.36852,0.34897,0.71484,1.5039,0.4098
10.24,0.37048,0.34897,0.75391,1.5039,0.3902
10.248,0.37243,0.34897,0.78906,1.5039,0.37059
10.256,0.37439,0.34897,0.81055,1.5039,0.36471
10.264,0.37537,0.34897,0.81445,1.5039,0.36471
10.272,0.37732,0.34897,0.7793,1.4922,0.3902
10.28,0.3783,0.34897,0.71484,1.3529,0.43529
10.288,0.37928,0.348,0.60938,1.1765,0.5
10.296,0.38025,0.34702,0.48438,0.99608,0.57451
10.304,0.38025,0.34604,0.35547,0.83137,0.6549
10.312,0.38123,0.34604,0.24023,0.7,0.72157
10.32,0.38123,0.34604,0.14453,0.60588,0.76667
10.328,0.38025,0.34604,0.085938,0.5451,0.8
10.336,0.37928,0.34604,0.044922,0.5,0.81569
10.344,0.37732,0.34604,0.015625,0.48039,0.82549
10.352,0.37537,0.34604,0,0.46471,0.83529
10.36,0.37341,0.34604,-0.0039062,0.46471,0.84118
10.368,0.37146,0.34604,-0.0039062,0.46471,0.84118
10.376,0.3695,0.34506,-0.0039062,0.46471,0.84118
10.384,0.36657,0.34311,-0.0039062,0.46471,0.84118
10.392,0.36364,0.34213,0,0.47059,0.83529
10.4,0.36168,0.34115,0.0058594,0.47451,0.83137
10.408,0.35777,0.34115,0.0097656,0.48431,0.82549
10.416,0.35484,0.34115,0.019531,0.49412,0.82157
10.424,0.35093,0.34115,0.03125,0.50588,0.81569
10.432,0.34702,0.34115,0.041016,0.51569,0.80588
10.44,0.34311,0.34115,0.044922,0.51961,0.8
10.448,0.3392,0.34018,0.050781,0.52941,0.79608
10.456,0.33529,0.3392,0.060547,0.53922,0.79608
10.464,0.33138,0.33822,0.064453,0.5451,0.78627
10.472,0.32747,0.33724,0.070312,0.55098,0.78627
10.48,0.32454,0.33724,0.070312,0.5549,0.78627
10.488,0.3216,0.33724,0.070312,0.5549,0.78627
10.496,0.31769,0.33822,0.070312,0.55098,0.78627
10.504,0.31476,0.34213,0.070312,0.55098,0.78627
10.512,0.31183,0.348,0.064453,0.55098,0.7902
10.52,0.30987,0.35777,0.064453,0.5451,0.7902
10.528,0.30694,0.37243,0.064453,0.5451,0.78627
10.536,0.30499,0.39101,0.064453,0.5451,0.78627
10.544,0.30401,0.41349,0.064453,0.5451,0.78627
10.552,0.30303,0.44086,0.060547,0.53922,0.79608
10.56,0.30205,0.47019,0.060547,0.53922,0.79608
10.568,0.30108,0.49658,0.060547,0.53922,0.8
10.576,0.30108,0.52199,0.060547,0.53922,0.8
10.584,0.30205,0.55034,0.060547,0.53922,0.8
10.592,0.30205,0.57967,0.060547,0.5451,0.8
10.6,0.30303,0.60802,0.054688,0.5451,0.8
10.608,0.30401,0.63343,0.050781,0.5451,0.8
10.616,0.30401,0.65494,0.050781,0.5451,0.8
10.624,0.30499,0.67351,0.050781,0.5451,0.8
10.632,0.30596,0.68719,0.050781,0.55098,0.80588
10.64,0.30596,0.69697,0.054688,0.55098,0.80588
10.648,0.30596,0.70283,0.054688,0.55098,0.80588
10.656,0.30694,0.70479,0.060547,0.55098,0.8
10.664,0.30694,0.70381,0.060547,0.55098,0.8
10.672,0.30694,0.70088,0.060547,0.5549,0.8
10.68,0.30694,0.69599,0.060547,0.56078,0.8
10.688,0.30792,0.69013,0.060547,0.56078,0.8
10.696,0.30792,0.68133,0.080078,0.58039,0.8
10.704,0.30792,0.67058,0.10547,0.6098,0.79608
10.712,0.30694,0.65885,0.125,0.65098,0.79608
10.72,0.30596,0.64516,0.13477,0.68627,0.79608
10.728,0.30499,0.6305,0.13477,0.6902,0.79608
10.736,0.30401,0.61486,0.12109,0.64118,0.80588
10.744,0.30303,0.59922,0.089844,0.58039,0.82549
10.752,0.30205,0.58456,0.054688,0.5549,0.8451
10.76,0.3001,0.56891,0.03125,0.55098,0.85098
10.768,0.29814,0.55621,0.03125,0.5451,0.83529
10.776,0.29717,0.54448,0.044922,0.55098,0.81569
10.784,0.29619,0.53177,0.050781,0.5549,0.8
10.792,0.29423,0.52102,0.050781,0.56078,0.7902
10.8,0.29326,0.51026,0.050781,0.56078,0.78627
10.808,0.29228,0.50147,0.050781,0.56078,0.78627
10.816,0.2913,0.49267,0.050781,0.56471,0.78627
10.824,0.28935,0.48485,0.050781,0.57059,0.78627
10.832,0.28837,0.47605,0.054688,0.57451,0.78627
10.84,0.28641,0.46921,0.060547,0.58039,0.7902
10.848,0.28543,0.46237,0.060547,0.58431,0.78627
10.856,0.28446,0.4565,0.064453,0.5902,0.78627
10.864,0.28348,0.45064,0.054688,0.61569,0.8
10.872,0.2825,0.44477,0.050781,0.53529,0.81569
10.88,0.28152,0.43988,-0.044922,-0.011765,0.8902
10.888,0.28152,0.43402,-0.44922,-0.50196,1.1725
10.896,0.28055,0.42717,-0.49805,-0.50196,1.5039
10.904,0.28055,0.42033,-0.49805,-0.50196,1.5039
10.912,0.28055,0.41349,-0.49805,-0.50196,1.5039
10.92,0.28152,0.40762,-0.49805,-0.50196,1.5039
10.928,0.28152,0.40274,-0.49414,0.1098,1.2529
10.936,0.2825,0.39785,0.12109,0.80588,0.76078
10.944,0.2825,0.39492,0.33594,1.051,0.59608
10.952,0.28348,0.39198,0.375,1.0922,0.56078
10.96,0.28348,0.38905,0.39062,1.102,0.5549
10.968,0.28348,0.3871,0.39453,1.102,0.5549
10.976,0.28348,0.38514,0.40039,1.102,0.55098
10.984,0.28348,0.38221,0.40039,1.102,0.5451
10.992,0.28446,0.37928,0.40039,1.102,0.55098
11,0.28446,0.37439,0.40039,1.0961,0.5549
11.008,0.28446,0.37048,0.4043,1.0961,0.5549
11.016,0.28446,0.36559,0.4043,1.0961,0.5549
11.024,0.28446,0.36168,0.4043,1.0961,0.56078
11.032,0.28543,0.35777,0.41016,1.102,0.56078
11.04,0.28641,0.35484,0.41016,1.1059,0.56078
11.048,0.28837,0.35191,0.41602,1.1176,0.5549
11.056,0.29032,0.35093,0.42578,1.1216,0.5549
11.064,0.29228,0.34897,0.43555,1.1373,0.55098
11.072,0.29423,0.34897,0.44531,1.151,0.53922
11.08,0.29717,0.348,0.46094,1.1725,0.53529
11.088,0.29912,0.34702,0.47461,1.1961,0.53529
11.096,0.30108,0.34506,0.49023,1.2275,0.52549
11.104,0.30303,0.34311,0.50586,1.2667,0.51961
11.112,0.30596,0.34115,0.5293,1.3078,0.5098
11.12,0.30792,0.3392,0.56445,1.3569,0.49412
11.128,0.30987,0.33627,0.59961,1.4118,0.47059
11.136,0.31183,0.33333,0.64062,1.4725,0.44902
11.144,0.31378,0.3304,0.68555,1.5039,0.42549
11.152,0.31672,0.32747,0.72461,1.5039,0.40392
11.16,0.31769,0.32454,0.76562,1.5039,0.38431
11.168,0.31965,0.3216,0.78516,1.5039,0.37059
11.176,0.32063,0.31965,0.79492,1.5039,0.37059
11.184,0.3216,0.31769,0.77539,1.5039,0.38431
11.192,0.32258,0.31574,0.71484,1.3824,0.42941
11.2,0.32356,0.31476,0.61523,1.2176,0.4902
11.208,0.32454,0.31378,0.5,1.0314,0.57059
11.216,0.32454,0.31378,0.36523,0.86078,0.6451
11.224,0.32454,0.31378,0.24609,0.72157,0.71569
11.232,0.32454,0.31378,0.15039,0.61961,0.77059
11.24,0.32356,0.31476,0.080078,0.55098,0.8
11.248,0.32356,0.31476,0.035156,0.5098,0.82549
11.256,0.32258,0.31378,0.0058594,0.48039,0.83529
11.264,0.3216,0.31281,-0.0097656,0.46471,0.8451
11.272,0.31965,0.31281,-0.019531,0.46078,0.8451
11.28,0.31769,0.31281,-0.019531,0.46078,0.8451
11.288,0.31476,0.31183,-0.025391,0.46078,0.85098
11.296,0.31183,0.30987,-0.025391,0.46471,0.85098
11.304,0.30792,0.30792,-0.019531,0.46471,0.8451
11.312,0.30401,0.30596,-0.013672,0.47451,0.84118
11.32,0.3001,0.30401,-0.0039062,0.48039,0.83529
11.328,0.29619,0.30205,0.0058594,0.4902,0.83137
11.336,0.2913,0.30108,0.015625,0.5,0.82549
11.344,0.28739,0.3001,0.025391,0.5098,0.82157
11.352,0.2825,0.29912,0.03125,0.51961,0.81176
11.36,0.27859,0.29912,0.044922,0.52941,0.8
11.368,0.2737,0.29912,0.050781,0.53529,0.79608
11.376,0.26882,0.29912,0.060547,0.5451,0.79608
11.384,0.26491,0.3001,0.060547,0.55098,0.79608
11.392,0.261,0.3001,0.060547,0.55098,0.79608
11.4,0.25709,0.3001,0.060547,0.5549,0.79608
11.408,0.25415,0.30108,0.060547,0.5549,0.79608
11.416,0.25024,0.30401,0.060547,0.5549,0.7902
11.424,0.24731,0.30987,0.060547,0.5549,0.7902
11.432,0.24438,0.31965,0.054688,0.55098,0.79608
11.44,0.24145,0.33529,0.054688,0.5451,0.79608
11.448,0.24047,0.35484,0.054688,0.5451,0.79608
11.456,0.23851,0.38025,0.054688,0.5451,0.79608
11.464,0.23754,0.4086,0.050781,0.53922,0.79608
11.472,0.23754,0.43597,0.050781,0.53922,0.79608
11.48,0.23656,0.46334,0.050781,0.53922,0.79608
11.488,0.23656,0.49462,0.044922,0.53922,0.79608
11.496,0.23656,0.52688,0.044922,0.5451,0.79608
11.504,0.23656,0.55816,0.044922,0.5451,0.79608
11.512,0.23558,0.58749,0.044922,0.5451,0.8
11.52,0.23558,0.61388,0.044922,0.5451,0.8
11.528,0.23558,0.63734,0.044922,0.5451,0.80588
11.536,0.23558,0.65591,0.041016,0.5451,0.80588
11.544,0.23558,0.67155,0.041016,0.5451,0.80588
11.552,0.23558,0.68328,0.041016,0.55098,0.80588
11.56,0.23558,0.6911,0.044922,0.55098,0.80588
11.568,0.23558,0.69599,0.044922,0.55098,0.8
11.576,0.23558,0.69697,0.050781,0.55098,0.8
11.584,0.23656,0.69697,0.054688,0.5549,0.8
11.592,0.23656,0.69404,0.064453,0.56471,0.8
11.6,0.23656,0.68915,0.085938,0.5902,0.79608
11.608,0.23558,0.68231,0.10547,0.62549,0.78627
11.616,0.23558,0.67351,0.11523,0.66078,0.78627
11.624,0.2346,0.66276,0.13086,0.68627,0.7902
11.632,0.2346,0.65103,0.13086,0.6902,0.79608
11.64,0.23265,0.63734,0.10547,0.60588,0.81569
11.648,0.23167,0.62268,0.064453,0.56078,0.83529
11.656,0.23069,0.60802,0.03125,0.5451,0.85098
11.664,0.22972,0.59335,0.015625,0.53922,0.85098
11.672,0.22776,0.57967,0.019531,0.53922,0.83529
11.68,0.22678,0.56696,0.03125,0.5451,0.81569
11.688,0.22483,0.55327,0.035156,0.55098,0.8
11.696,0.22385,0.54057,0.03125,0.5549,0.8
11.704,0.22287,0.52786,0.03125,0.56078,0.8
11.712,0.2219,0.51515,0.03125,0.56078,0.8
11.72,0.22092,0.50244,0.03125,0.56471,0.8
11.728,0.21994,0.49169,0.035156,0.57059,0.8
11.736,0.21994,0.48192,0.041016,0.57059,0.8
11.744,0.21994,0.4741,0.041016,0.57451,0.79608
11.752,0.21896,0.46823,0.041016,0.58431,0.79608
11.76,0.21896,0.46237,0.035156,0.5902,0.8
11.768,0.21896,0.4565,0.03125,0.60588,0.81176
11.776,0.21896,0.45161,0.035156,0.38431,0.84118
11.784,0.21896,0.4477,-0.18359,-0.41176,0.98627
11.792,0.21994,0.44184,-0.49805,-0.50196,1.3922
11.8,0.21994,0.43597,-0.49805,-0.50196,1.5039
11.808,0.21994,0.43011,-0.49805,-0.50196,1.5039
11.816,0.21994,0.42522,-0.49805,-0.50196,1.5039
11.824,0.22092,0.42131,-0.49805,-0.46275,1.5039
11.832,0.22092,0.4174,-0.23438,0.43922,1.0275
11.84,0.22092,0.41153,0.22461,0.95098,0.66471
11.848,0.22092,0.40665,0.3457,1.0824,0.58039
11.856,0.2219,0.40176,0.37109,1.102,0.56078
11.864,0.22287,0.39589,0.38086,1.1059,0.5549
11.872,0.22385,0.39198,0.39062,1.102,0.5451
11.88,0.22483,0.38807,0.39453,1.102,0.5451
11.888,0.22581,0.38319,0.40039,1.102,0.5451
11.896,0.22678,0.3783,0.39453,1.102,0.55098
11.904,0.22776,0.37439,0.40039,1.102,0.5549
11.912,0.22874,0.37146,0.40039,1.0961,0.5549
11.92,0.22972,0.3695,0.40039,1.0961,0.56078
11.928,0.23167,0.36755,0.40039,1.102,0.56078
11.936,0.23265,0.36461,0.4043,1.1118,0.56078
11.944,0.23363,0.36266,0.41016,1.1118,0.56078
11.952,0.23558,0.35973,0.41602,1.1216,0.5549
11.96,0.23754,0.35582,0.41992,1.1314,0.5549
11.968,0.23949,0.35288,0.42969,1.1471,0.5549
11.976,0.24145,0.34995,0.43945,1.1627,0.5451
11.984,0.2434,0.34702,0.45508,1.1824,0.53922
11.992,0.24536,0.34409,0.46484,1.2118,0.53529
12,0.24829,0.34018,0.48047,1.2471,0.52549
12.008,0.25122,0.33627,0.50586,1.2922,0.51569
12.016,0.25415,0.33236,0.53906,1.3373,0.5
12.024,0.25806,0.32942,0.57422,1.3922,0.48431
12.032,0.261,0.32551,0.61523,1.4529,0.46078
12.04,0.26491,0.32356,0.66016,1.5039,0.43529
12.048,0.26882,0.32258,0.70508,1.5039,0.4098
12.056,0.27175,0.3216,0.74414,1.5039,0.38431
12.064,0.27468,0.3216,0.7793,1.5039,0.37059
12.072,0.27664,0.32258,0.79492,1.5039,0.37059
12.08,0.27859,0.3216,0.78906,1.5039,0.38039
12.088,0.28055,0.32063,0.75,1.4686,0.4098
12.096,0.2825,0.31867,0.66992,1.3118,0.46078
12.104,0.28348,0.31672,0.56055,1.1314,0.52941
12.112,0.28446,0.31574,0.42969,0.94706,0.6098
12.12,0.28543,0.31378,0.30469,0.7902,0.68039
12.128,0.28641,0.31183,0.20117,0.66471,0.74118
12.136,0.28739,0.3089,0.11523,0.58039,0.78627
12.144,0.28837,0.30596,0.054688,0.52549,0.81176
12.152,0.28739,0.30303,0.019531,0.4902,0.82549
12.16,0.28739,0.30108,-0.0039062,0.47451,0.84118
12.168,0.28739,0.3001,-0.013672,0.46471,0.8451
12.176,0.28641,0.3001,-0.019531,0.46078,0.8451
12.184,0.28446,0.3001,-0.019531,0.4549,0.8451
12.192,0.2825,0.3001,-0.025391,0.46078,0.8451
12.2,0.28055,0.3001,-0.025391,0.46078,0.8451
12.208,0.27859,0.30108,-0.019531,0.46471,0.84118
12.216,0.27566,0.30108,-0.013672,0.47451,0.83529
12.224,0.2737,0.30108,-0.0039062,0.48039,0.83137
12.232,0.27077,0.30108,0.0058594,0.4902,0.82549
12.24,0.26784,0.30108,0.0097656,0.5,0.82157
12.248,0.26491,0.29912,0.019531,0.5098,0.81176
12.256,0.26197,0.29717,0.035156,0.51961,0.8
12.264,0.25904,0.29717,0.044922,0.52549,0.8
12.272,0.25513,0.29717,0.050781,0.53529,0.79608
12.28,0.25318,0.29717,0.054688,0.5451,0.79608
12.288,0.25024,0.29717,0.060547,0.55098,0.7902
12.296,0.24829,0.29717,0.060547,0.55098,0.7902
12.304,0.24633,0.29717,0.054688,0.55098,0.7902
12.312,0.24536,0.29814,0.050781,0.55098,0.79608
12.32,0.2434,0.30205,0.044922,0.55098,0.79608
12.328,0.24242,0.3089,0.044922,0.55098,0.79608
12.336,0.24145,0.31867,0.044922,0.55098,0.79608
12.344,0.24047,0.33431,0.044922,0.55098,0.79608
12.352,0.24047,0.35484,0.041016,0.5451,0.8
12.36,0.23949,0.37928,0.035156,0.5451,0.80588
12.368,0.23949,0.40274,0.041016,0.5451,0.80588
12.376,0.23949,0.42717,0.041016,0.5451,0.8
12.384,0.23949,0.4565,0.035156,0.5451,0.8
12.392,0.24047,0.4868,0.03125,0.53922,0.80588
12.4,0.24145,0.51808,0.025391,0.53922,0.80588
12.408,0.24242,0.54839,0.025391,0.53922,0.81176
12.416,0.2434,0.57576,0.019531,0.5451,0.81176
12.424,0.24438,0.6002,0.019531,0.55098,0.81176
12.432,0.24536,0.6217,0.019531,0.55098,0.81176
12.44,0.24633,0.63832,0.025391,0.55098,0.81176
12.448,0.24829,0.65298,0.025391,0.55098,0.81569
12.456,0.24829,0.66276,0.019531,0.5549,0.82157
12.464,0.24927,0.66862,0.019531,0.56078,0.81569
12.472,0.25024,0.67058,0.019531,0.56078,0.81569
12.48,0.25122,0.67058,0.025391,0.56078,0.81569
12.488,0.25122,0.66862,0.035156,0.56471,0.81176
12.496,0.25122,0.66373,0.050781,0.58039,0.80588
12.504,0.25122,0.65689,0.080078,0.6098,0.79608
12.512,0.25122,0.64712,0.10547,0.6451,0.78627
12.52,0.25024,0.63636,0.11133,0.68039,0.78627
12.528,0.25024,0.62366,0.11133,0.6902,0.79608
12.536,0.24927,0.60997,0.095703,0.62941,0.81176
12.544,0.24927,0.59531,0.064453,0.57451,0.82549
12.552,0.24829,0.58065,0.035156,0.5451,0.8451
12.56,0.24829,0.56696,0.0058594,0.5451,0.85098
12.568,0.24731,0.55523,0,0.5451,0.8451
12.576,0.24731,0.5435,0.015625,0.5549,0.82549
12.584,0.24731,0.53177,0.019531,0.56471,0.81176
12.592,0.24731,0.52102,0.019531,0.56471,0.80588
12.6,0.24731,0.51026,0.015625,0.57059,0.80588
12.608,0.24829,0.49951,0.015625,0.57059,0.80588
12.616,0.24829,0.49071,0.019531,0.57451,0.80588
12.624,0.24927,0.48192,0.025391,0.57451,0.80588
12.632,0.25024,0.47312,0.025391,0.57451,0.80588
12.64,0.25024,0.46628,0.025391,0.58039,0.80588
12.648,0.25122,0.45943,0.03125,0.58431,0.80588
12.656,0.25122,0.45357,0.03125,0.5902,0.80588
12.664,0.2522,0.44966,0.03125,0.6098,0.81569
12.672,0.25318,0.44575,0.025391,0.46471,0.83529
12.68,0.25415,0.44184,-0.10938,-0.23725,0.94706
12.688,0.25611,0.43695,-0.49805,-0.50196,1.2922
12.696,0.25709,0.43206,-0.49805,-0.50196,1.5039
12.704,0.25904,0.42815,-0.49805,-0.50196,1.5039
12.712,0.261,0.42326,-0.49805,-0.50196,1.5039
12.72,0.26197,0.41838,-0.49805,-0.50196,1.5039
12.728,0.26393,0.41349,-0.375,0.2902,1.1412
12.736,0.26588,0.40762,0.16992,0.8902,0.7098
12.744,0.26784,0.40274,0.33594,1.0765,0.5902
12.752,0.26979,0.39883,0.35938,1.0961,0.57059
12.76,0.27175,0.39394,0.37109,1.102,0.56471
12.768,0.2737,0.39003,0.375,1.102,0.56471
12.776,0.27664,0.38612,0.38086,1.102,0.56471
12.784,0.27859,0.38221,0.38086,1.102,0.56471
12.792,0.28152,0.37928,0.38477,1.102,0.56471
12.8,0.28446,0.37634,0.39062,1.102,0.56471
12.808,0.28739,0.37341,0.39062,1.102,0.56471
12.816,0.29032,0.37146,0.39062,1.102,0.56471
12.824,0.29521,0.36852,0.39453,1.102,0.56471
12.832,0.29912,0.36657,0.40039,1.102,0.56078
12.84,0.30401,0.36364,0.4043,1.1118,0.56078
12.848,0.30792,0.36266,0.41602,1.1216,0.56078
12.856,0.31281,0.35973,0.41992,1.1314,0.5549
12.864,0.31672,0.35777,0.42969,1.1412,0.5549
12.872,0.32063,0.35484,0.43945,1.1627,0.5451
12.88,0.32454,0.35191,0.45508,1.1824,0.53922
12.888,0.32845,0.34897,0.47461,1.2118,0.52941
12.896,0.33236,0.34506,0.49414,1.2471,0.52549
12.904,0.33627,0.34115,0.51562,1.2882,0.51569
12.912,0.34115,0.33724,0.54492,1.3333,0.5
12.92,0.34409,0.33431,0.58008,1.3882,0.48039
12.928,0.348,0.33333,0.625,1.4471,0.4549
12.936,0.35093,0.33236,0.66992,1.5039,0.43529
12.944,0.35484,0.33236,0.71484,1.5039,0.4098
12.952,0.35777,0.33236,0.75391,1.5039,0.38431
12.96,0.3607,0.33138,0.78906,1.5039,0.37059
12.968,0.36364,0.33138,0.81055,1.5039,0.35882
12.976,0.36657,0.3304,0.81445,1.5039,0.37059
12.984,0.36852,0.32942,0.76953,1.498,0.4
12.992,0.37048,0.32942,0.70508,1.3569,0.43922
13,0.37243,0.32942,0.59961,1.1765,0.5098
13.008,0.37341,0.32942,0.4707,0.99216,0.5902
13.016,0.37439,0.32845,0.3457,0.82549,0.66471
13.024,0.37634,0.32747,0.22461,0.7,0.73137
13.032,0.37634,0.32551,0.14062,0.60588,0.78039
13.04,0.37732,0.32454,0.076172,0.5451,0.80588
13.048,0.37634,0.32356,0.035156,0.5098,0.82549
13.056,0.37634,0.32258,0.0097656,0.48431,0.83137
13.064,0.37439,0.32356,-0.0039062,0.47451,0.84118
13.072,0.37243,0.32356,-0.0097656,0.46471,0.8451
13.08,0.37048,0.32258,-0.013672,0.46471,0.8451
13.088,0.36852,0.32258,-0.013672,0.46471,0.8451
13.096,0.36657,0.32258,-0.013672,0.47059,0.8451
13.104,0.36461,0.32258,-0.013672,0.47451,0.8451
13.112,0.36168,0.32258,-0.0039062,0.48039,0.84118
13.12,0.35875,0.32258,0,0.48431,0.83529
13.128,0.35582,0.32258,0.0058594,0.5,0.83137
13.136,0.35191,0.32258,0.015625,0.50588,0.82549
13.144,0.348,0.32258,0.025391,0.51961,0.82157
13.152,0.34311,0.3216,0.041016,0.52549,0.81176
13.16,0.33822,0.31965,0.050781,0.53922,0.80588
13.168,0.33333,0.31867,0.060547,0.5451,0.8
13.176,0.32942,0.31867,0.060547,0.55098,0.79608
13.184,0.32454,0.31769,0.064453,0.55098,0.7902
13.192,0.32063,0.31769,0.064453,0.56078,0.7902
13.2,0.31672,0.31769,0.070312,0.56078,0.78627
13.208,0.31281,0.31867,0.064453,0.56078,0.7902
13.216,0.3089,0.3216,0.064453,0.5549,0.79608
13.224,0.30596,0.32845,0.060547,0.56078,0.79608
13.232,0.30303,0.33822,0.060547,0.5549,0.79608
13.24,0.3001,0.35288,0.060547,0.55098,0.79608
13.248,0.29717,0.37243,0.054688,0.55098,0.79608
13.256,0.29521,0.39785,0.050781,0.55098,0.8
13.264,0.29326,0.42229,0.050781,0.55098,0.8
13.272,0.2913,0.44673,0.050781,0.55098,0.8
13.28,0.29032,0.47703,0.050781,0.5451,0.8
13.288,0.28837,0.50929,0.050781,0.5451,0.8
13.296,0.28739,0.54154,0.050781,0.5451,0.8
13.304,0.28739,0.57185,0.050781,0.5451,0.8
13.312,0.28641,0.59824,0.050781,0.5451,0.8
13.32,0.28641,0.62268,0.050781,0.55098,0.8
13.328,0.28739,0.64321,0.054688,0.55098,0.8
13.336,0.28739,0.6608,0.054688,0.55098,0.8
13.344,0.28739,0.67546,0.054688,0.55098,0.8
13.352,0.28739,0.68524,0.060547,0.55098,0.80588
13.36,0.28739,0.69208,0.060547,0.5549,0.80588
13.368,0.28739,0.69404,0.060547,0.5549,0.80588
13.376,0.28739,0.69404,0.060547,0.5549,0.80588
13.384,0.28739,0.6911,0.060547,0.5549,0.80588
13.392,0.28739,0.68719,0.064453,0.5549,0.8
13.4,0.28739,0.68035,0.070312,0.56471,0.8
13.408,0.28739,0.67155,0.089844,0.5902,0.79608
13.416,0.28739,0.6608,0.12109,0.62549,0.7902
13.424,0.28739,0.65005,0.14062,0.66471,0.78627
13.432,0.28739,0.63734,0.14453,0.6902,0.78627
13.44,0.28739,0.62366,0.15039,0.69608,0.79608
13.448,0.28739,0.60899,0.125,0.61961,0.81176
13.456,0.28739,0.59433,0.085938,0.57059,0.83137
13.464,0.28739,0.58065,0.054688,0.55098,0.84118
13.472,0.28739,0.56794,0.041016,0.5451,0.8451
13.48,0.28739,0.55523,0.044922,0.55098,0.82549
13.488,0.28739,0.54252,0.060547,0.5549,0.8
13.496,0.28641,0.53177,0.070312,0.56078,0.7902
13.504,0.28641,0.52004,0.070312,0.56078,0.78627
13.512,0.28641,0.50929,0.064453,0.56078,0.78627
13.52,0.28641,0.50049,0.064453,0.56078,0.78627
13.528,0.28641,0.49169,0.064453,0.56471,0.78627
13.536,0.28641,0.48289,0.064453,0.57059,0.78627
13.544,0.28641,0.47605,0.064453,0.57451,0.78627
13.552,0.28641,0.46921,0.070312,0.58039,0.78627
13.56,0.28641,0.46432,0.070312,0.5902,0.78627
13.568,0.28641,0.45943,0.064453,0.59608,0.7902
13.576,0.28739,0.45455,0.060547,0.61569,0.80588
13.584,0.28837,0.44966,0.044922,0.43529,0.83137
13.592,0.28935,0.44379,-0.13867,-0.30196,0.96078
13.6,0.2913,0.43793,-0.49805,-0.50196,1.3333
13.608,0.29228,0.43011,-0.49805,-0.50196,1.5039
13.616,0.29423,0.42131,-0.49805,-0.50196,1.5039
13.624,0.29521,0.41251,-0.49805,-0.50196,1.5039
13.632,0.29619,0.40567,-0.49805,-0.50196,1.5039
13.64,0.29717,0.40078,-0.27344,0.36471,1.0667
13.648,0.29814,0.39785,0.22461,0.91569,0.68039
13.656,0.29814,0.39492,0.36523,1.0725,0.57451
13.664,0.29912,0.39394,0.39062,1.0922,0.5549
13.672,0.29912,0.39198,0.40039,1.0961,0.55098
13.68,0.3001,0.39101,0.4043,1.0961,0.55098
13.688,0.3001,0.38905,0.41016,1.0922,0.55098
13.696,0.3001,0.38612,0.41016,1.0922,0.55098
13.704,0.30108,0.38221,0.41016,1.0922,0.5549
13.712,0.30108,0.37732,0.41016,1.0922,0.5549
13.72,0.30108,0.37341,0.4043,1.0922,0.56078
13.728,0.30205,0.36852,0.41016,1.0922,0.56078
13.736,0.30303,0.36364,0.41016,1.0922,0.56078
13.744,0.30401,0.35875,0.41016,1.0961,0.56078
13.752,0.30596,0.35484,0.41602,1.102,0.56078
13.76,0.30694,0.35191,0.41992,1.1118,0.56078
13.768,0.3089,0.34995,0.43555,1.1216,0.5549
13.776,0.30987,0.348,0.44531,1.1373,0.5451
13.784,0.31183,0.34702,0.46094,1.151,0.53922
13.792,0.31378,0.34604,0.47461,1.1765,0.53529
13.8,0.31574,0.34409,0.49023,1.202,0.52549
13.808,0.31672,0.34115,0.50586,1.2314,0.51961
13.816,0.31867,0.3392,0.5293,1.2725,0.50588
13.824,0.31965,0.33724,0.56055,1.3176,0.49412
13.832,0.32063,0.33431,0.58398,1.3667,0.48039
13.84,0.32258,0.33138,0.625,1.4275,0.46078
13.848,0.32356,0.32845,0.66406,1.4882,0.43922
13.856,0.32551,0.32649,0.70898,1.5039,0.4098
13.864,0.32845,0.32454,0.75391,1.5039,0.38431
13.872,0.3304,0.32356,0.78906,1.5039,0.36471
13.88,0.33236,0.3216,0.81445,1.5039,0.35882
13.888,0.33431,0.31867,0.82031,1.5039,0.35882
13.896,0.33529,0.31574,0.78516,1.4725,0.38431
13.904,0.33724,0.31281,0.71484,1.3333,0.42941
13.912,0.33822,0.30987,0.61523,1.1569,0.5
13.92,0.3392,0.30792,0.48047,0.97647,0.58039
13.928,0.34018,0.30792,0.34961,0.81176,0.6549
13.936,0.34018,0.3089,0.23438,0.68627,0.72549
13.944,0.3392,0.31085,0.14453,0.5902,0.77059
13.952,0.3392,0.31378,0.080078,0.52941,0.8
13.96,0.33724,0.31574,0.041016,0.49412,0.81569
13.968,0.33627,0.31769,0.015625,0.47059,0.83137
13.976,0.33431,0.31769,-0.0039062,0.46078,0.84118
13.984,0.33236,0.31672,-0.013672,0.4549,0.8451
13.992,0.32942,0.31476,-0.013672,0.4549,0.8451
14,0.32747,0.31281,-0.013672,0.46078,0.8451
14.008,0.32356,0.31085,-0.0097656,0.46078,0.8451
14.016,0.31965,0.31085,-0.0039062,0.46471,0.84118
14.024,0.31476,0.30987,0,0.47059,0.83137
14.032,0.30987,0.3089,0.0097656,0.48039,0.82549
14.04,0.30499,0.30792,0.019531,0.4902,0.82549
14.048,0.3001,0.30694,0.025391,0.5,0.82157
14.056,0.29521,0.30499,0.03125,0.51569,0.81176
14.064,0.2913,0.30303,0.041016,0.51961,0.80588
14.072,0.28641,0.30108,0.050781,0.52941,0.8
14.08,0.28152,0.29912,0.060547,0.53529,0.79608
14.088,0.27566,0.29814,0.060547,0.53922,0.79608
14.096,0.27077,0.29717,0.064453,0.5451,0.79608
14.104,0.26588,0.29717,0.070312,0.55098,0.7902
14.112,0.261,0.29717,0.070312,0.55098,0.7902
14.12,0.25709,0.29912,0.070312,0.5549,0.7902
14.128,0.25318,0.30303,0.070312,0.5549,0.78627
14.136,0.25024,0.31183,0.064453,0.5549,0.78627
14.144,0.24731,0.32454,0.064453,0.55098,0.78627
14.152,0.24536,0.34115,0.060547,0.55098,0.78627
14.16,0.24242,0.35875,0.060547,0.55098,0.7902
14.168,0.24145,0.3783,0.060547,0.5451,0.79608
14.176,0.23949,0.40469,0.054688,0.5451,0.79608
14.184,0.23851,0.43402,0.054688,0.5451,0.79608
14.192,0.23754,0.46628,0.054688,0.5451,0.79608
14.2,0.23656,0.49951,0.054688,0.5451,0.79608
14.208,0.23558,0.53275,0.054688,0.5451,0.79608
14.216,0.23558,0.56403,0.060547,0.5451,0.79608
14.224,0.2346,0.59433,0.060547,0.5451,0.79608
14.232,0.2346,0.6217,0.060547,0.5451,0.8
14.24,0.2346,0.64614,0.060547,0.5451,0.8
14.248,0.23558,0.66569,0.060547,0.5451,0.8
14.256,0.23656,0.68133,0.054688,0.5451,0.8
14.264,0.23656,0.6911,0.054688,0.55098,0.80588
14.272,0.23754,0.69697,0.060547,0.55098,0.8
14.28,0.23851,0.6999,0.060547,0.5549,0.8
14.288,0.23851,0.70088,0.060547,0.5549,0.8
14.296,0.23949,0.69892,0.060547,0.56078,0.8
14.304,0.23949,0.69501,0.076172,0.57451,0.8
14.312,0.23949,0.68817,0.099609,0.6098,0.7902
14.32,0.24047,0.6784,0.12109,0.6451,0.7902
14.328,0.23949,0.66862,0.125,0.68039,0.79608
14.336,0.23949,0.65689,0.13086,0.6902,0.79608
14.344,0.23851,0.64516,0.12109,0.6451,0.80588
14.352,0.23851,0.63245,0.089844,0.58431,0.82549
14.36,0.23754,0.61975,0.050781,0.5549,0.8451
14.368,0.23754,0.60606,0.025391,0.53922,0.85098
14.376,0.23754,0.59238,0.019531,0.53922,0.84118
14.384,0.23656,0.57674,0.035156,0.5451,0.82157
14.392,0.23656,0.56109,0.044922,0.55098,0.80588
14.4,0.23656,0.54643,0.044922,0.55098,0.79608
14.408,0.23656,0.53177,0.044922,0.5549,0.79608
14.416,0.23656,0.51906,0.044922,0.56078,0.79608
14.424,0.23656,0.50635,0.050781,0.56471,0.79608
14.432,0.23656,0.49658,0.050781,0.56471,0.7902
14.44,0.23656,0.4868,0.054688,0.57059,0.7902
14.448,0.23656,0.47703,0.054688,0.57451,0.7902
14.456,0.23656,0.46823,0.054688,0.58039,0.7902
14.464,0.23656,0.45943,0.054688,0.58431,0.79608
14.472,0.23656,0.45259,0.050781,0.60588,0.8
14.48,0.23656,0.44673,0.044922,0.6098,0.81569
14.488,0.23656,0.43988,-0.013672,0.12941,0.87059
14.496,0.23754,0.435,-0.35938,-0.50196,1.1059
14.504,0.23754,0.43109,-0.49805,-0.50196,1.5039
14.512,0.23754,0.42717,-0.49805,-0.50196,1.5039
14.52,0.23754,0.42326,-0.49805,-0.50196,1.5039
14.528,0.23754,0.42033,-0.49805,-0.50196,1.5039
14.536,0.23851,0.41642,-0.49805,-0.056863,1.3725
14.544,0.23851,0.41056,0.03125,0.71569,0.81569
14.552,0.23851,0.40567,0.30469,1.0314,0.60588
14.56,0.23851,0.40078,0.36523,1.0922,0.56471
14.568,0.23851,0.39687,0.38086,1.102,0.5549
14.576,0.23949,0.39296,0.39062,1.1059,0.5549
14.584,0.23949,0.38807,0.39453,1.102,0.5549
14.592,0.23949,0.38319,0.39453,1.102,0.5549
14.6,0.23949,0.3783,0.39062,1.102,0.5549
14.608,0.23949,0.37341,0.39062,1.0961,0.56078
14.616,0.24047,0.3695,0.39062,1.0961,0.56471
14.624,0.24145,0.36559,0.39062,1.0961,0.56078
14.632,0.24242,0.36266,0.39453,1.0961,0.56078
14.64,0.2434,0.3607,0.39453,1.0961,0.56078
14.648,0.24438,0.35777,0.39453,1.102,0.56471
14.656,0.24633,0.35386,0.40039,1.1118,0.56471
14.664,0.24731,0.35093,0.41016,1.1176,0.56471
14.672,0.24927,0.34995,0.41602,1.1314,0.56078
14.68,0.25122,0.348,0.42969,1.1471,0.5549
14.688,0.25318,0.34604,0.43945,1.1725,0.5451
14.696,0.25513,0.34506,0.45508,1.1922,0.53922
14.704,0.25709,0.34311,0.47461,1.2216,0.53529
14.712,0.25904,0.34115,0.49414,1.2569,0.52549
14.72,0.261,0.3392,0.51953,1.302,0.5098
14.728,0.26295,0.33627,0.55078,1.3529,0.49412
14.736,0.26491,0.33333,0.58398,1.4078,0.47451
14.744,0.26686,0.3304,0.625,1.4686,0.4549
14.752,0.26979,0.32845,0.66992,1.5039,0.42941
14.76,0.27175,0.32747,0.71484,1.5039,0.40392
14.768,0.2737,0.32551,0.75391,1.5039,0.3902
14.776,0.27468,0.32454,0.77539,1.5039,0.38039
14.784,0.27664,0.32258,0.78516,1.5039,0.38039
14.792,0.27761,0.32063,0.76562,1.5039,0.39412
14.8,0.27957,0.31965,0.70898,1.402,0.43529
14.808,0.28055,0.31867,0.61914,1.2431,0.4902
14.816,0.28152,0.31672,0.5,1.0608,0.57059
14.824,0.28152,0.31574,0.37109,0.8902,0.6451
14.832,0.2825,0.31378,0.24609,0.74118,0.71569
14.84,0.2825,0.31183,0.14453,0.62941,0.77059
14.848,0.2825,0.30987,0.076172,0.5549,0.80588
14.856,0.28152,0.30792,0.03125,0.5098,0.82549
14.864,0.28055,0.30694,0,0.48039,0.83529
14.872,0.27957,0.30694,-0.019531,0.46471,0.8451
14.88,0.27761,0.30596,-0.029297,0.4549,0.85098
14.888,0.27468,0.30499,-0.035156,0.4549,0.85098
14.896,0.27273,0.30499,-0.035156,0.4549,0.85098
14.904,0.26882,0.30499,-0.029297,0.4549,0.85098
14.912,0.26491,0.30499,-0.029297,0.46078,0.85098
14.92,0.261,0.30499,-0.025391,0.46471,0.8451
14.928,0.25709,0.30401,-0.013672,0.47451,0.84118
14.936,0.25318,0.30401,-0.0039062,0.48431,0.83529
14.944,0.24927,0.30303,0.0058594,0.49412,0.82549
14.952,0.24536,0.30108,0.015625,0.50588,0.82157
14.96,0.24242,0.3001,0.025391,0.51569,0.81176
14.968,0.23851,0.29912,0.03125,0.52549,0.80588
14.976,0.2346,0.29912,0.035156,0.52941,0.8
14.984,0.23069,0.29912,0.041016,0.53922,0.8
14.992,0.22776,0.29814,0.044922,0.5451,0.8
15,0.22385,0.29814,0.044922,0.5451,0.8
15.008,0.22092,0.29912,0.044922,0.55098,0.8
15.016,0.21799,0.3001,0.044922,0.5549,0.79608
15.024,0.21505,0.30303,0.044922,0.55098,0.79608
15.032,0.2131,0.3089,0.041016,0.55098,0.8
15.04,0.21017,0.31867,0.041016,0.55098,0.8
15.048,0.20821,0.33236,0.041016,0.5451,0.80588
15.056,0.20626,0.34995,0.035156,0.5451,0.80588
15.064,0.20528,0.36852,0.035156,0.53922,0.80588
15.072,0.2043,0.38905,0.035156,0.53922,0.80588
15.08,0.2043,0.41544,0.03125,0.53922,0.80588
15.088,0.2043,0.44477,0.03125,0.53922,0.81176
15.096,0.2043,0.47605,0.03125,0.53922,0.81176
15.104,0.2043,0.50831,0.03125,0.53922,0.81176
15.112,0.2043,0.53861,0.025391,0.53922,0.81569
15.12,0.20528,0.56696,0.025391,0.53922,0.81569
15.128,0.20528,0.59238,0.025391,0.53922,0.81569
15.136,0.20528,0.61486,0.025391,0.5451,0.81569
15.144,0.20626,0.63539,0.03125,0.5451,0.81176
15.152,0.20626,0.652,0.03125,0.5451,0.81176
15.16,0.20723,0.66276,0.03125,0.5451,0.81176
15.168,0.20723,0.67058,0.03125,0.5451,0.81176
15.176,0.20821,0.67644,0.03125,0.55098,0.81176
15.184,0.20821,0.68133,0.035156,0.55098,0.81176
15.192,0.20821,0.68231,0.041016,0.55098,0.81176
15.2,0.20821,0.68035,0.050781,0.56078,0.81176
15.208,0.20821,0.67546,0.070312,0.58039,0.8
15.216,0.20821,0.66764,0.095703,0.61569,0.79608
15.224,0.20821,0.65787,0.11133,0.6549,0.7902
15.232,0.20821,0.64516,0.11523,0.68039,0.79608
15.24,0.20821,0.63148,0.11523,0.68627,0.8
15.248,0.20821,0.61584,0.089844,0.6098,0.82157
15.256,0.20723,0.6002,0.060547,0.5549,0.84118
15.264,0.20723,0.58456,0.025391,0.53922,0.85098
15.272,0.20626,0.57087,0.0058594,0.53529,0.85686
15.28,0.20626,0.55621,0.0097656,0.53529,0.84118
15.288,0.20528,0.54252,0.019531,0.53922,0.82157
15.296,0.20528,0.52884,0.025391,0.5451,0.81176
15.304,0.20528,0.51711,0.03125,0.55098,0.80588
15.312,0.20528,0.50635,0.025391,0.55098,0.80588
15.32,0.20528,0.4956,0.025391,0.56078,0.80588
15.328,0.20528,0.4868,0.03125,0.56078,0.8
15.336,0.20528,0.47801,0.035156,0.56471,0.8
15.344,0.20626,0.47019,0.041016,0.57059,0.8
15.352,0.20723,0.46139,0.041016,0.57059,0.8
15.36,0.20821,0.45455,0.044922,0.57451,0.8
15.368,0.20919,0.44966,0.044922,0.58039,0.8
15.376,0.21017,0.44575,0.041016,0.59608,0.81176
15.384,0.21114,0.44184,0.025391,0.38431,0.83529
15.392,0.2131,0.43793,-0.16016,-0.40196,0.97647
15.4,0.21408,0.43402,-0.49805,-0.50196,1.3784
15.408,0.21505,0.43011,-0.49805,-0.50196,1.5039
15.416,0.21505,0.42522,-0.49805,-0.50196,1.5039
15.424,0.21603,0.42033,-0.49805,-0.50196,1.5039
15.432,0.21701,0.41447,-0.49805,-0.47255,1.5039
15.44,0.21799,0.4086,-0.22852,0.42941,1.0216
15.448,0.21896,0.40274,0.23438,0.94118,0.66471
15.456,0.21896,0.39785,0.34961,1.0725,0.58039
15.464,0.21994,0.39394,0.37109,1.0863,0.56471
15.472,0.22092,0.39198,0.38086,1.0922,0.56078
15.48,0.2219,0.38905,0.38477,1.0961,0.56078
15.488,0.22287,0.38514,0.39062,1.0961,0.56078
15.496,0.22483,0.38123,0.39453,1.0922,0.56078
15.504,0.22581,0.37732,0.39453,1.0922,0.5549
15.512,0.22776,0.37243,0.39453,1.0922,0.56078
15.52,0.22972,0.36755,0.39453,1.0922,0.56078
15.528,0.23167,0.36266,0.39062,1.0922,0.56471
15.536,0.23363,0.35875,0.39062,1.0922,0.57059
15.544,0.23558,0.35582,0.39453,1.0961,0.56471
15.552,0.23851,0.35288,0.40039,1.102,0.56471
15.56,0.24145,0.35191,0.41016,1.1118,0.56078
15.568,0.24438,0.35093,0.41992,1.1216,0.56078
15.576,0.24633,0.34995,0.43555,1.1373,0.5549
15.584,0.24927,0.34897,0.44531,1.151,0.5451
15.592,0.25122,0.34702,0.46094,1.1765,0.5451
15.6,0.25318,0.34506,0.46484,1.2078,0.53922
15.608,0.25513,0.34115,0.48047,1.2431,0.53529
15.616,0.25806,0.33822,0.50586,1.2824,0.51961
15.624,0.261,0.33431,0.54492,1.3333,0.50588
15.632,0.26393,0.33138,0.58008,1.3922,0.48431
15.64,0.26588,0.32747,0.61523,1.4569,0.46471
15.648,0.26882,0.32454,0.66016,1.5039,0.4451
15.656,0.27175,0.32258,0.70508,1.5039,0.41961
15.664,0.27468,0.3216,0.74414,1.5039,0.39412
15.672,0.27761,0.31965,0.7793,1.5039,0.38039
15.68,0.27957,0.31867,0.79492,1.5039,0.37451
15.688,0.2825,0.31867,0.79883,1.5039,0.38039
15.696,0.28543,0.31867,0.74414,1.4627,0.41569
15.704,0.28739,0.31769,0.66016,1.3078,0.47059
15.712,0.28935,0.31769,0.55078,1.1275,0.53922
15.72,0.29032,0.31769,0.42578,0.94118,0.61961
15.728,0.29228,0.31672,0.29492,0.78039,0.6902
15.736,0.29326,0.31574,0.17969,0.6549,0.75098
15.744,0.29423,0.31476,0.095703,0.57451,0.79608
15.752,0.29521,0.31378,0.044922,0.52549,0.82157
15.76,0.29521,0.31378,0.0097656,0.4902,0.83529
15.768,0.29619,0.31378,-0.013672,0.47059,0.8451
15.776,0.29717,0.31476,-0.029297,0.46078,0.85098
15.784,0.29717,0.31476,-0.029297,0.4549,0.85098
15.792,0.29717,0.31378,-0.029297,0.4549,0.85098
15.8,0.29717,0.31183,-0.035156,0.4549,0.85098
15.808,0.29717,0.30987,-0.035156,0.46078,0.85098
15.816,0.29619,0.3089,-0.029297,0.46471,0.85098
15.824,0.29521,0.30792,-0.025391,0.47451,0.8451
15.832,0.29326,0.30694,-0.019531,0.48431,0.84118
15.84,0.29228,0.30694,-0.0039062,0.49412,0.83529
15.848,0.28935,0.30596,0.0058594,0.50588,0.82549
15.856,0.28641,0.30596,0.015625,0.51569,0.81569
15.864,0.28446,0.30596,0.025391,0.52549,0.81176
15.872,0.28152,0.30499,0.03125,0.52941,0.80588
15.88,0.27957,0.30401,0.041016,0.53529,0.80588
15.888,0.27664,0.30205,0.044922,0.5451,0.80588
15.896,0.27468,0.30108,0.044922,0.55098,0.8
15.904,0.27273,0.3001,0.044922,0.55098,0.8
15.912,0.27077,0.3001,0.044922,0.5549,0.8
15.92,0.26979,0.30108,0.041016,0.56078,0.8
15.928,0.26979,0.30401,0.041016,0.56078,0.80588
15.936,0.26979,0.30987,0.041016,0.55098,0.80588
15.944,0.27077,0.31867,0.041016,0.55098,0.80588
15.952,0.27175,0.33236,0.035156,0.5451,0.80588
15.96,0.27273,0.34702,0.03125,0.55098,0.80588
15.968,0.2737,0.36461,0.035156,0.5451,0.80588
15.976,0.27468,0.38905,0.035156,0.5451,0.80588
15.984,0.27566,0.41838,0.035156,0.5451,0.80588
15.992,0.27664,0.45064,0.041016,0.5451,0.80588
16,0.27859,0.48485,0.035156,0.5451,0.81176
16.008,0.28055,0.51906,0.035156,0.5451,0.81176
16.016,0.2825,0.55034,0.03125,0.5451,0.81569
16.024,0.28543,0.57674,0.03125,0.5451,0.81176
16.032,0.28837,0.59922,0.03125,0.5451,0.81176
16.04,0.29228,0.61779,0.035156,0.5451,0.81176
16.048,0.29521,0.63245,0.041016,0.55098,0.81176
16.056,0.29717,0.64223,0.041016,0.55098,0.81569
16.064,0.3001,0.64809,0.041016,0.5549,0.81176
16.072,0.30205,0.65298,0.041016,0.56078,0.81176
16.08,0.30401,0.65591,0.041016,0.56471,0.81176
16.088,0.30596,0.65591,0.044922,0.56471,0.81176
16.096,0.30792,0.65396,0.044922,0.56078,0.81176
16.104,0.30987,0.65005,0.064453,0.57451,0.80588
16.112,0.31183,0.64418,0.099609,0.60588,0.79608
16.12,0.31378,0.63636,0.125,0.63529,0.78627
16.128,0.31476,0.62659,0.14062,0.67059,0.78039
16.136,0.31574,0.61584,0.14453,0.68039,0.78627
16.144,0.31769,0.60411,0.13477,0.6451,0.8
16.152,0.31769,0.5914,0.099609,0.58039,0.82157
16.16,0.31769,0.57869,0.060547,0.5549,0.84118
16.168,0.31769,0.56696,0.03125,0.55098,0.85098
16.176,0.31672,0.55425,0.025391,0.55098,0.8451
16.184,0.31672,0.54154,0.041016,0.5549,0.82549
16.192,0.31672,0.52884,0.044922,0.56078,0.80588
16.2,0.31574,0.51808,0.044922,0.56471,0.8
16.208,0.31574,0.50733,0.044922,0.56471,0.8
16.216,0.31476,0.49853,0.044922,0.57059,0.79608
16.224,0.31378,0.48876,0.044922,0.57059,0.79608
16.232,0.31281,0.48094,0.044922,0.57451,0.79608
16.24,0.31183,0.47214,0.050781,0.58039,0.79608
16.248,0.31183,0.46432,0.054688,0.58431,0.7902
16.256,0.31085,0.45846,0.060547,0.5902,0.7902
16.264,0.31085,0.45357,0.060547,0.59608,0.7902
16.272,0.31085,0.44868,0.054688,0.61961,0.79608
16.28,0.31085,0.44477,0.060547,0.5549,0.81176
16.288,0.31183,0.44086,-0.019531,0.043137,0.88039
16.296,0.31183,0.43597,-0.4082,-0.50196,1.1412
16.304,0.31183,0.43109,-0.49805,-0.50196,1.5039
16.312,0.31183,0.42522,-0.49805,-0.50196,1.5039
16.32,0.31281,0.41838,-0.49805,-0.50196,1.5039
16.328,0.31378,0.41251,-0.49805,-0.50196,1.5039
16.336,0.31476,0.40665,-0.49805,0.062745,1.298
16.344,0.31574,0.40176,0.089844,0.78039,0.77647
16.352,0.31574,0.39883,0.33008,1.0471,0.59608
16.36,0.31672,0.39687,0.375,1.0922,0.56471
16.368,0.31672,0.39492,0.39062,1.102,0.56078
16.376,0.31769,0.39394,0.39453,1.1059,0.5549
16.384,0.31867,0.39198,0.40039,1.102,0.55098
16.392,0.31965,0.39003,0.41016,1.0961,0.5451
16.4,0.3216,0.38807,0.41016,1.0961,0.5451
16.408,0.3216,0.38514,0.41016,1.0961,0.5549
16.416,0.32258,0.38319,0.4043,1.102,0.5549
16.424,0.32356,0.38025,0.40039,1.102,0.56078
16.432,0.32454,0.3783,0.40039,1.102,0.56471
16.44,0.32551,0.37537,0.4043,1.102,0.56471
16.448,0.32649,0.37243,0.41016,1.1118,0.56471
16.456,0.32747,0.37048,0.41602,1.1176,0.56078
16.464,0.32942,0.36755,0.41992,1.1216,0.56078
16.472,0.3304,0.36364,0.42969,1.1373,0.56078
16.48,0.33236,0.3607,0.43945,1.151,0.5549
16.488,0.33333,0.35777,0.45508,1.1765,0.5451
16.496,0.33529,0.35484,0.47461,1.1961,0.53529
16.504,0.33822,0.35288,0.49414,1.2275,0.52549
16.512,0.34018,0.34995,0.51562,1.2667,0.51961
16.52,0.34311,0.348,0.53906,1.3118,0.50588
16.528,0.34604,0.34702,0.57031,1.3627,0.4902
16.536,0.34897,0.34604,0.60938,1.4235,0.47059
16.544,0.35093,0.34604,0.65039,1.4784,0.4451
16.552,0.35386,0.34702,0.69922,1.5039,0.41961
16.56,0.35679,0.34897,0.74023,1.5039,0.4
16.568,0.35875,0.35191,0.77539,1.5039,0.38039
16.576,0.36168,0.35484,0.79883,1.5039,0.36471
16.584,0.36364,0.35777,0.81055,1.5039,0.36471
16.592,0.36657,0.3607,0.78516,1.5039,0.38431
16.6,0.36755,0.36168,0.73047,1.3922,0.42549
16.608,0.3695,0.36266,0.64062,1.2275,0.48039
16.616,0.37146,0.36168,0.51953,1.0412,0.5549
16.624,0.37243,0.3607,0.39062,0.87059,0.64118
16.632,0.37243,0.35973,0.26562,0.73137,0.70588
16.64,0.37341,0.3607,0.16992,0.62549,0.76078
16.648,0.37243,0.36168,0.095703,0.5549,0.79608
16.656,0.37243,0.36364,0.044922,0.5098,0.81569
16.664,0.37048,0.36559,0.015625,0.48431,0.83137
16.672,0.3695,0.36755,-0.0039062,0.47451,0.84118
16.68,0.36657,0.36755,-0.013672,0.46471,0.8451
16.688,0.36461,0.36559,-0.013672,0.46471,0.8451
16.696,0.36168,0.36266,-0.013672,0.46471,0.84118
16.704,0.35875,0.35973,-0.013672,0.46471,0.84118
16.712,0.35484,0.35679,-0.0039062,0.47451,0.84118
16.72,0.35093,0.35582,0,0.48039,0.83529
16.728,0.34702,0.35582,0,0.48431,0.83137
16.736,0.34213,0.35679,0.0058594,0.49412,0.82549
16.744,0.33724,0.35777,0.019531,0.50588,0.82157
16.752,0.33236,0.35973,0.025391,0.51961,0.81569
16.76,0.32747,0.35973,0.035156,0.52549,0.80588
16.768,0.32356,0.35973,0.044922,0.53529,0.80588
16.776,0.31965,0.35875,0.044922,0.53922,0.8
16.784,0.31476,0.35777,0.050781,0.5451,0.8
16.792,0.31085,0.35582,0.054688,0.55098,0.79608
16.8,0.30694,0.35484,0.060547,0.5549,0.79608
16.808,0.30205,0.35288,0.060547,0.56078,0.7902
16.816,0.29814,0.35093,0.064453,0.56078,0.78627
16.824,0.29423,0.34995,0.060547,0.56078,0.78627
16.832,0.2913,0.34995,0.060547,0.56078,0.78627
16.84,0.28837,0.35288,0.060547,0.5549,0.78627
16.848,0.28543,0.35777,0.054688,0.55098,0.7902
16.856,0.28348,0.36559,0.050781,0.55098,0.79608
16.864,0.28152,0.37634,0.050781,0.55098,0.8
16.872,0.27957,0.39198,0.050781,0.5451,0.8
16.88,0.27859,0.41447,0.050781,0.5451,0.8
16.888,0.27761,0.44184,0.050781,0.5451,0.8
16.896,0.27566,0.4741,0.044922,0.5451,0.8
16.904,0.27468,0.51026,0.044922,0.5451,0.80588
16.912,0.2737,0.54545,0.050781,0.5451,0.80588
16.92,0.2737,0.57967,0.050781,0.55098,0.80588
16.928,0.27273,0.60899,0.050781,0.5451,0.80588
16.936,0.27175,0.63441,0.050781,0.5451,0.80588
16.944,0.27175,0.65298,0.050781,0.55098,0.80588
16.952,0.27175,0.66569,0.054688,0.55098,0.80588
16.96,0.27175,0.67155,0.054688,0.55098,0.80588
16.968,0.27175,0.67253,0.054688,0.55098,0.80588
16.976,0.27273,0.6696,0.054688,0.5549,0.80588
16.984,0.27273,0.66276,0.054688,0.5549,0.80588
16.992,0.2737,0.652,0.054688,0.56078,0.80588
17,0.2737,0.63734,0.064453,0.57451,0.8
17.008,0.27468,0.62072,0.089844,0.60588,0.79608
17.016,0.2737,0.60313,0.11523,0.6451,0.79608
17.024,0.2737,0.58456,0.125,0.68039,0.79608
17.032,0.27273,0.56696,0.13086,0.69608,0.79608
17.04,0.27175,0.55034,0.12109,0.6549,0.80588
17.048,0.27175,0.53372,0.085938,0.5902,0.83529
17.056,0.27077,0.51906,0.044922,0.5549,0.85098
17.064,0.26979,0.50538,0.019531,0.5451,0.86078
17.072,0.26979,0.49267,0.015625,0.53922,0.85098
17.08,0.26882,0.48094,0.025391,0.5451,0.82549
17.088,0.26784,0.46921,0.041016,0.55098,0.80588
17.096,0.26686,0.45748,0.044922,0.5549,0.8
17.104,0.26491,0.4477,0.041016,0.56078,0.8
17.112,0.26393,0.43695,0.041016,0.56078,0.79608
17.12,0.26295,0.42717,0.041016,0.56471,0.79608
17.128,0.26197,0.4174,0.041016,0.57059,0.79608
17.136,0.261,0.4086,0.041016,0.57451,0.79608
17.144,0.261,0.40176,0.044922,0.58431,0.79608
17.152,0.26002,0.39589,0.044922,0.58431,0.79608
17.16,0.26002,0.39198,0.050781,0.5902,0.79608
17.168,0.25904,0.38807,0.041016,0.60588,0.80588
17.176,0.25904,0.38416,0.041016,0.61569,0.82157
17.184,0.25806,0.38123,-0.019531,0.16863,0.87647
17.192,0.25806,0.3783,-0.33984,-0.50196,1.0922
17.2,0.25806,0.37634,-0.49805,-0.50196,1.5039
17.208,0.25709,0.37439,-0.49805,-0.50196,1.5039
17.216,0.25709,0.37243,-0.49805,-0.50196,1.5039
17.224,0.25709,0.3695,-0.49805,-0.50196,1.5039
17.232,0.25709,0.36657,-0.49805,-0.10588,1.4176
17.24,0.25611,0.36168,0,0.68039,0.85098
17.248,0.25611,0.35777,0.30078,1.0216,0.61961
17.256,0.25611,0.35386,0.36523,1.0863,0.57059
17.264,0.25611,0.35093,0.38086,1.0961,0.56078
17.272,0.25611,0.34897,0.39062,1.102,0.56078
17.28,0.25709,0.34702,0.39453,1.102,0.56078
17.288,0.25709,0.34506,0.39453,1.0961,0.5549
17.296,0.25806,0.34409,0.40039,1.0961,0.5549
17.304,0.26002,0.34311,0.40039,1.0922,0.5549
17.312,0.261,0.34115,0.40039,1.0922,0.56078
17.32,0.26295,0.34018,0.40039,1.0922,0.56078
17.328,0.26393,0.33822,0.40039,1.0961,0.56078
17.336,0.26491,0.33724,0.40039,1.0961,0.56471
17.344,0.26588,0.33627,0.40039,1.102,0.56471
17.352,0.26686,0.33627,0.4043,1.1059,0.56471
17.36,0.26784,0.33627,0.41602,1.1176,0.56471
17.368,0.26979,0.33627,0.41992,1.1314,0.56078
17.376,0.27077,0.33627,0.42969,1.1471,0.56078
17.384,0.27175,0.33529,0.43945,1.1627,0.5549
17.392,0.2737,0.33431,0.45508,1.1863,0.5451
17.4,0.27566,0.33333,0.4707,1.2176,0.53922
17.408,0.27664,0.33236,0.49023,1.2529,0.53529
17.416,0.27859,0.3304,0.51562,1.298,0.51961
17.424,0.28055,0.32942,0.54492,1.3431,0.50588
17.432,0.2825,0.32649,0.57422,1.398,0.4902
17.44,0.28446,0.32356,0.61523,1.4569,0.47059
17.448,0.28641,0.32063,0.66016,1.5039,0.4451
17.456,0.28837,0.31867,0.69922,1.5039,0.42549
17.464,0.29032,0.31672,0.74023,1.5039,0.4
17.472,0.2913,0.31378,0.77539,1.5039,0.38431
17.48,0.29228,0.31085,0.78516,1.5039,0.38039
17.488,0.29423,0.30792,0.76562,1.5039,0.39412
17.496,0.29423,0.30596,0.7207,1.4078,0.42941
17.504,0.29521,0.30401,0.62891,1.2431,0.4902
17.512,0.29619,0.30205,0.51562,1.0608,0.56078
17.52,0.29619,0.30108,0.38477,0.8902,0.64118
17.528,0.29619,0.3001,0.26562,0.7451,0.7098
17.536,0.29521,0.29912,0.16602,0.63529,0.76667
17.544,0.29326,0.29814,0.089844,0.56078,0.8
17.552,0.29228,0.29814,0.044922,0.51569,0.82157
17.56,0.29032,0.29814,0.015625,0.48039,0.83529
17.568,0.28837,0.29814,-0.0039062,0.46471,0.84118
17.576,0.28543,0.29717,-0.013672,0.46078,0.8451
17.584,0.28348,0.29717,-0.019531,0.4549,0.8451
17.592,0.28055,0.29619,-0.019531,0.46078,0.85098
17.6,0.27859,0.29619,-0.019531,0.46078,0.8451
17.608,0.27468,0.29619,-0.013672,0.46471,0.8451
17.616,0.27175,0.29521,-0.013672,0.47059,0.84118
17.624,0.26784,0.29423,-0.0039062,0.48039,0.83529
17.632,0.26295,0.29423,0.0058594,0.4902,0.83137
17.64,0.25806,0.29326,0.015625,0.5,0.82549
17.648,0.25318,0.29228,0.025391,0.50588,0.82157
17.656,0.24927,0.29228,0.035156,0.51569,0.80588
17.664,0.24536,0.29228,0.044922,0.52549,0.8
17.672,0.24145,0.29228,0.050781,0.53529,0.8
17.68,0.23754,0.29228,0.050781,0.5451,0.8
17.688,0.23363,0.29326,0.054688,0.55098,0.79608
17.696,0.22972,0.29423,0.060547,0.55098,0.79608
17.704,0.22581,0.29619,0.060547,0.55098,0.79608
17.712,0.22287,0.29814,0.060547,0.55098,0.79608
17.72,0.21994,0.30108,0.054688,0.55098,0.79608
17.728,0.21701,0.30694,0.050781,0.55098,0.7902
17.736,0.21505,0.31672,0.044922,0.55098,0.7902
17.744,0.2131,0.32845,0.044922,0.5549,0.79608
17.752,0.21212,0.34115,0.041016,0.55098,0.8
17.76,0.21017,0.35777,0.041016,0.55098,0.8
17.768,0.21017,0.37928,0.041016,0.5451,0.8
17.776,0.20919,0.40665,0.041016,0.5451,0.8
17.784,0.20919,0.43695,0.041016,0.5451,0.8
17.792,0.20919,0.46823,0.041016,0.5451,0.80588
17.8,0.21017,0.50049,0.041016,0.53922,0.80588
17.808,0.21114,0.53275,0.041016,0.53922,0.80588
17.816,0.21114,0.56305,0.041016,0.53922,0.80588
17.824,0.21212,0.59042,0.041016,0.5451,0.80588
17.832,0.2131,0.61388,0.041016,0.5451,0.81176
17.84,0.21408,0.63441,0.035156,0.5451,0.81176
17.848,0.21408,0.65103,0.03125,0.55098,0.81569
17.856,0.21505,0.66178,0.03125,0.5549,0.82157
17.864,0.21603,0.66764,0.03125,0.56078,0.82157
17.872,0.21603,0.67351,0.03125,0.56078,0.81569
17.88,0.21701,0.67644,0.035156,0.56078,0.81569
17.888,0.21701,0.67644,0.035156,0.56078,0.81569
17.896,0.21799,0.67449,0.041016,0.56078,0.81569
17.904,0.21799,0.67058,0.044922,0.57059,0.81176
17.912,0.21799,0.66471,0.070312,0.60588,0.80588
17.92,0.21799,0.65689,0.089844,0.6451,0.80588
17.928,0.21799,0.64712,0.10547,0.68039,0.80588
17.936,0.21799,0.63539,0.11133,0.69608,0.80588
17.944,0.21701,0.6217,0.099609,0.65098,0.82157
17.952,0.21603,0.60899,0.064453,0.58431,0.8451
17.96,0.21505,0.59531,0.025391,0.55098,0.86667
17.968,0.21408,0.58065,-0.0039062,0.5451,0.87059
17.976,0.2131,0.56598,-0.0039062,0.53922,0.86078
17.984,0.2131,0.5523,0.015625,0.5451,0.84118
17.992,0.2131,0.53861,0.025391,0.55098,0.82549
18,0.21212,0.52493,0.025391,0.56078,0.81569
18.008,0.21212,0.51222,0.019531,0.56078,0.81176
18.016,0.21212,0.50049,0.019531,0.56078,0.81569
18.024,0.21212,0.48974,0.019531,0.56471,0.81176
18.032,0.21212,0.47898,0.025391,0.57059,0.81176
18.04,0.21212,0.46921,0.03125,0.57451,0.80588
18.048,0.21114,0.46041,0.03125,0.57451,0.80588
18.056,0.21114,0.45357,0.035156,0.58431,0.80588
18.064,0.21017,0.4477,0.041016,0.5902,0.80588
18.072,0.21017,0.44184,0.03125,0.60588,0.82157
18.08,0.21017,0.43695,0.025391,0.6098,0.83137
18.088,0.20919,0.43304,-0.035156,0.11961,0.8902
18.096,0.20919,0.42913,-0.37891,-0.50196,1.1314
18.104,0.20919,0.42424,-0.49805,-0.50196,1.5039
18.112,0.20919,0.42131,-0.49805,-0.50196,1.5039
18.12,0.21017,0.4174,-0.49805,-0.50196,1.5039
18.128,0.21017,0.41349,-0.49805,-0.50196,1.5039
18.136,0.21017,0.4086,-0.49805,-0.041176,1.3882
18.144,0.21017,0.40371,0.019531,0.73137,0.82549
18.152,0.21114,0.3998,0.29492,1.0471,0.61569
18.16,0.21114,0.39589,0.34961,1.0961,0.58039
18.168,0.21212,0.39198,0.35938,1.102,0.57451
18.176,0.2131,0.3871,0.36523,1.1118,0.57059
18.184,0.21505,0.38221,0.375,1.1059,0.57059
18.192,0.21603,0.37928,0.38086,1.102,0.57059
18.2,0.21701,0.37634,0.375,1.102,0.57059
18.208,0.21896,0.37341,0.375,1.102,0.57059
18.216,0.21994,0.37146,0.375,1.0961,0.57059
18.224,0.22092,0.36852,0.38086,1.0961,0.57059
18.232,0.2219,0.36461,0.38086,1.0961,0.57059
18.24,0.22287,0.36168,0.38086,1.0961,0.57451
18.248,0.22483,0.35875,0.38477,1.102,0.58039
18.256,0.22678,0.35582,0.39062,1.1118,0.57451
18.264,0.22874,0.35679,0.39453,1.1216,0.57059
18.272,0.23167,0.35875,0.40039,1.1373,0.57059
18.28,0.2346,0.35875,0.41016,1.1569,0.57059
18.288,0.23754,0.35679,0.42578,1.1725,0.56471
18.296,0.24047,0.35484,0.43945,1.1961,0.56078
18.304,0.2434,0.35191,0.45508,1.2275,0.55098
18.312,0.24536,0.34897,0.48047,1.2667,0.53529
18.32,0.24829,0.34702,0.5,1.3118,0.52549
18.328,0.25122,0.34506,0.53516,1.3627,0.50588
18.336,0.25415,0.34213,0.57422,1.4235,0.4902
18.344,0.25611,0.34018,0.61523,1.4824,0.46471
18.352,0.25904,0.3392,0.66016,1.5039,0.43922
18.36,0.261,0.33724,0.70508,1.5039,0.41961
18.368,0.26393,0.33529,0.74414,1.5039,0.4
18.376,0.26588,0.33236,0.76562,1.5039,0.3902
18.384,0.26882,0.32845,0.76953,1.5039,0.3902
18.392,0.27077,0.32551,0.75391,1.5039,0.40392
18.4,0.27273,0.32356,0.69922,1.402,0.4451
18.408,0.2737,0.32258,0.60938,1.2373,0.50588
18.416,0.27468,0.32258,0.49023,1.051,0.58039
18.424,0.27566,0.32356,0.35938,0.88039,0.6549
18.432,0.27566,0.32454,0.24023,0.73529,0.72157
18.44,0.27566,0.32551,0.14062,0.62549,0.77059
18.448,0.27566,0.32454,0.070312,0.5549,0.80588
18.456,0.27468,0.32454,0.019531,0.51569,0.82549
18.464,0.27468,0.32356,-0.0039062,0.48039,0.83529
18.472,0.27273,0.32063,-0.019531,0.46471,0.8451
18.48,0.27175,0.31769,-0.035156,0.46078,0.85098
18.488,0.26979,0.31378,-0.039062,0.46078,0.85098
18.496,0.26784,0.31085,-0.039062,0.46078,0.85098
18.504,0.26491,0.3089,-0.039062,0.46078,0.85098
18.512,0.26295,0.30792,-0.029297,0.46471,0.85098
18.52,0.26002,0.30694,-0.025391,0.46471,0.84118
18.528,0.25709,0.30499,-0.013672,0.48039,0.84118
18.536,0.25513,0.30401,-0.013672,0.4902,0.83529
18.544,0.2522,0.30401,0,0.5,0.82549
18.552,0.24927,0.30401,0.0097656,0.5098,0.82157
18.56,0.24633,0.30499,0.019531,0.51961,0.81569
18.568,0.2434,0.30499,0.03125,0.52549,0.81176
18.576,0.24047,0.30499,0.03125,0.53922,0.81176
18.584,0.23754,0.30401,0.03125,0.5451,0.80588
18.592,0.2346,0.30303,0.03125,0.55098,0.80588
18.6,0.23167,0.30303,0.041016,0.5549,0.8
18.608,0.22874,0.30303,0.044922,0.5549,0.8
18.616,0.22776,0.30303,0.044922,0.5549,0.79608
18.624,0.22678,0.30499,0.044922,0.56078,0.8
18.632,0.22581,0.3089,0.041016,0.5549,0.80588
18.64,0.22581,0.31769,0.041016,0.55098,0.80588
18.648,0.22581,0.33138,0.041016,0.55098,0.80588
18.656,0.22678,0.34604,0.03125,0.55098,0.80588
18.664,0.22678,0.36266,0.03125,0.5451,0.81176
18.672,0.22776,0.38612,0.025391,0.5451,0.81176
18.68,0.22874,0.41349,0.03125,0.5451,0.81176
18.688,0.22972,0.44379,0.025391,0.5451,0.81176
18.696,0.23069,0.47703,0.019531,0.5451,0.82157
18.704,0.23069,0.51026,0.025391,0.5451,0.81569
18.712,0.23167,0.54252,0.025391,0.5451,0.81176
18.72,0.23363,0.5738,0.019531,0.5451,0.81176
18.728,0.2346,0.60313,0.025391,0.5451,0.81176
18.736,0.23558,0.62952,0.025391,0.5451,0.81176
18.744,0.23656,0.65103,0.025391,0.55098,0.81176
18.752,0.23754,0.66471,0.019531,0.55098,0.81176
18.76,0.23851,0.67351,0.025391,0.55098,0.81569
18.768,0.23949,0.68035,0.03125,0.55098,0.81176
18.776,0.24047,0.68328,0.025391,0.5549,0.81176
18.784,0.24145,0.68328,0.019531,0.56078,0.81569
18.792,0.24145,0.68035,0.019531,0.56078,0.81569
18.8,0.24145,0.67546,0.035156,0.57059,0.81176
18.808,0.24145,0.6696,0.064453,0.58431,0.80588
18.816,0.24145,0.66276,0.095703,0.61961,0.79608
18.824,0.24145,0.65298,0.11133,0.66078,0.79608
18.832,0.24047,0.64223,0.11523,0.68039,0.79608
18.84,0.24047,0.6305,0.12109,0.66471,0.80588
18.848,0.23949,0.61681,0.089844,0.60588,0.82549
18.856,0.23949,0.60411,0.050781,0.56078,0.8451
18.864,0.23949,0.59042,0.0097656,0.5451,0.85686
18.872,0.23949,0.57674,0.0058594,0.53922,0.86078
18.88,0.23851,0.56305,0.015625,0.5451,0.84118
18.888,0.23851,0.55034,0.019531,0.55098,0.82549
18.896,0.23851,0.53666,0.019531,0.56078,0.82157
18.904,0.23851,0.52297,0.015625,0.56078,0.81569
18.912,0.23851,0.51124,0.015625,0.56078,0.81176
18.92,0.23851,0.50049,0.019531,0.56471,0.81176
18.928,0.23949,0.49071,0.025391,0.56471,0.80588
18.936,0.23949,0.48192,0.025391,0.57059,0.80588
18.944,0.24047,0.47312,0.025391,0.58039,0.80588
18.952,0.24145,0.46725,0.025391,0.58431,0.81176
18.96,0.24242,0.46237,0.025391,0.5902,0.81176
18.968,0.24438,0.45748,0.025391,0.6,0.81569
18.976,0.24633,0.45357,0.019531,0.60588,0.82549
18.984,0.24829,0.44966,0.025391,0.27451,0.86078
18.992,0.25122,0.44673,-0.24414,-0.50196,1.0412
19,0.25318,0.44282,-0.49805,-0.50196,1.4824
19.008,0.25611,0.43988,-0.49805,-0.50196,1.5039
19.016,0.25806,0.43597,-0.49805,-0.50196,1.5039
19.024,0.261,0.43109,-0.49805,-0.50196,1.5039
19.032,0.26295,0.42522,-0.49805,-0.28824,1.5039
19.04,0.26588,0.41935,-0.13477,0.56078,0.95098
19.048,0.26784,0.41447,0.25586,0.99216,0.65098
19.056,0.27077,0.41153,0.3457,1.0922,0.58039
19.064,0.2737,0.40958,0.36523,1.102,0.57059
19.072,0.27664,0.40762,0.375,1.1059,0.56471
19.08,0.27957,0.40567,0.38086,1.1118,0.56471
19.088,0.28348,0.40274,0.38086,1.1059,0.56471
19.096,0.28641,0.3998,0.38477,1.102,0.56471
19.104,0.28935,0.39492,0.38477,1.0961,0.56471
19.112,0.29228,0.39101,0.38477,1.0961,0.56471
19.12,0.29521,0.38612,0.38477,1.102,0.57059
19.128,0.29814,0.38025,0.38477,1.102,0.57059
19.136,0.30205,0.37537,0.39062,1.102,0.57059
19.144,0.30596,0.37048,0.40039,1.1118,0.56471
19.152,0.3089,0.36755,0.41016,1.1176,0.56471
19.16,0.31281,0.36559,0.41016,1.1216,0.56078
19.168,0.31574,0.36364,0.41992,1.1373,0.56078
19.176,0.31867,0.36168,0.43555,1.151,0.5549
19.184,0.32258,0.35875,0.44922,1.1725,0.5451
19.192,0.32649,0.35679,0.46484,1.1922,0.53922
19.2,0.3304,0.35386,0.48047,1.2216,0.53529
19.208,0.33529,0.35191,0.5,1.2569,0.51961
19.216,0.34018,0.34995,0.52539,1.302,0.50588
19.224,0.34409,0.34702,0.55469,1.3569,0.4902
19.232,0.34897,0.34604,0.58984,1.4118,0.47451
19.24,0.35386,0.34506,0.62891,1.4725,0.44902
19.248,0.35875,0.34506,0.67578,1.5039,0.42549
19.256,0.36266,0.34604,0.7207,1.5039,0.4
19.264,0.36657,0.34604,0.75977,1.5039,0.38039
19.272,0.37048,0.34604,0.79492,1.5039,0.36471
19.28,0.37439,0.34604,0.81055,1.5039,0.36471
19.288,0.37732,0.34604,0.79492,1.5039,0.37451
19.296,0.38025,0.34506,0.75,1.4569,0.4098
19.304,0.38319,0.34311,0.66406,1.302,0.46471
19.312,0.38612,0.34115,0.55078,1.1176,0.5451
19.32,0.38905,0.3392,0.41602,0.93725,0.61961
19.328,0.39101,0.33822,0.29102,0.78039,0.6902
19.336,0.39198,0.33822,0.18555,0.66471,0.75098
19.344,0.39394,0.33822,0.10547,0.58039,0.79608
19.352,0.39492,0.33822,0.054688,0.52941,0.81569
19.36,0.39492,0.33822,0.015625,0.49412,0.83137
19.368,0.39492,0.33822,-0.0039062,0.48039,0.84118
19.376,0.39492,0.33724,-0.013672,0.47451,0.8451
19.384,0.39296,0.33724,-0.019531,0.46471,0.85098
19.392,0.39101,0.33627,-0.025391,0.46471,0.85098
19.4,0.38807,0.33529,-0.025391,0.47059,0.85098
19.408,0.38514,0.33333,-0.019531,0.47451,0.85098
19.416,0.38123,0.33138,-0.019531,0.48039,0.8451
19.424,0.3783,0.3304,-0.0039062,0.48431,0.84118
19.432,0.37537,0.32942,0,0.49412,0.83137
19.44,0.37146,0.32942,0.015625,0.5,0.82549
19.448,0.36755,0.32942,0.019531,0.5098,0.82157
19.456,0.36364,0.3304,0.03125,0.51961,0.80588
19.464,0.35875,0.3304,0.044922,0.52549,0.8
19.472,0.35386,0.3304,0.050781,0.53922,0.79608
19.48,0.34995,0.3304,0.060547,0.5451,0.79608
19.488,0.34506,0.3304,0.064453,0.55098,0.7902
19.496,0.34115,0.32942,0.064453,0.55098,0.78627
19.504,0.33724,0.32942,0.070312,0.5549,0.78627
19.512,0.33333,0.32942,0.064453,0.56078,0.78627
19.52,0.32942,0.32942,0.064453,0.56078,0.7902
19.528,0.32649,0.33333,0.060547,0.56078,0.7902
19.536,0.32258,0.34018,0.060547,0.56078,0.7902
19.544,0.31965,0.35191,0.060547,0.5549,0.7902
19.552,0.31672,0.36461,0.060547,0.5549,0.7902
19.56,0.31378,0.38025,0.060547,0.5549,0.79608
19.568,0.31085,0.40176,0.060547,0.55098,0.79608
19.576,0.30792,0.42913,0.054688,0.55098,0.79608
19.584,0.30596,0.45943,0.054688,0.5451,0.8
19.592,0.30401,0.49169,0.054688,0.5451,0.79608
19.6,0.30205,0.52395,0.054688,0.5451,0.79608
19.608,0.30108,0.55523,0.054688,0.5451,0.79608
19.616,0.29912,0.58456,0.054688,0.55098,0.79608
19.624,0.29814,0.6129,0.054688,0.55098,0.8
19.632,0.29717,0.64027,0.050781,0.55098,0.8
19.64,0.29619,0.66373,0.050781,0.55098,0.8
19.648,0.29521,0.68035,0.050781,0.5549,0.8
19.656,0.29521,0.69306,0.054688,0.5549,0.8
19.664,0.29423,0.70381,0.054688,0.5549,0.8
19.672,0.29326,0.71163,0.050781,0.56078,0.8
19.68,0.29326,0.71359,0.050781,0.56078,0.8
19.688,0.29228,0.71261,0.060547,0.56471,0.8
19.696,0.29228,0.70674,0.089844,0.58431,0.7902
19.704,0.2913,0.69892,0.12109,0.61961,0.78039
19.712,0.2913,0.68817,0.13477,0.66471,0.78039
19.72,0.2913,0.67742,0.14453,0.6902,0.78627
19.728,0.29032,0.66471,0.14062,0.69608,0.7902
19.736,0.29032,0.65103,0.12109,0.62549,0.80588
19.744,0.29032,0.63832,0.085938,0.57059,0.82549
19.752,0.29032,0.62659,0.054688,0.55098,0.84118
19.76,0.28935,0.61584,0.03125,0.5451,0.8451
19.768,0.28935,0.60508,0.035156,0.5451,0.83137
19.776,0.28935,0.59238,0.044922,0.56078,0.81176
19.784,0.28935,0.57967,0.050781,0.56471,0.8
19.792,0.28837,0.56696,0.044922,0.56471,0.8
19.8,0.28837,0.55327,0.041016,0.56471,0.8
19.808,0.28837,0.53959,0.044922,0.56471,0.79608
19.816,0.28837,0.52786,0.044922,0.56471,0.79608
19.824,0.28837,0.51711,0.050781,0.57059,0.79608
19.832,0.28837,0.50733,0.054688,0.57451,0.7902
19.84,0.28837,0.49853,0.060547,0.58431,0.78627
19.848,0.28935,0.49071,0.064453,0.5902,0.78627
19.856,0.29032,0.48289,0.060547,0.59608,0.78627
19.864,0.2913,0.47605,0.060547,0.61961,0.8
19.872,0.2913,0.47019,0.044922,0.46471,0.82549
19.88,0.29228,0.4653,-0.099609,-0.23137,0.93137
19.888,0.29228,0.46139,-0.49805,-0.50196,1.2765
19.896,0.29326,0.45748,-0.49805,-0.50196,1.5039
19.904,0.29423,0.45455,-0.49805,-0.50196,1.5039
19.912,0.29521,0.45161,-0.49805,-0.50196,1.5039
19.92,0.29717,0.4477,-0.49805,-0.50196,1.5039
19.928,0.29814,0.44477,-0.32422,0.3,1.1118
19.936,0.29912,0.44086,0.20117,0.88627,0.7
19.944,0.29912,0.43695,0.35547,1.0608,0.58431
19.952,0.3001,0.43206,0.38477,1.0922,0.56078
19.96,0.30108,0.42717,0.40039,1.0961,0.5549
19.968,0.30108,0.42131,0.4043,1.102,0.55098
19.976,0.30108,0.41544,0.4043,1.0961,0.5451
19.984,0.30205,0.41056,0.4043,1.0961,0.5451
19.992,0.30303,0.40469,0.4043,1.0961,0.55098
20,0.30401,0.3998,0.4043,1.0961,0.5549
20.008,0.30499,0.39492,0.41016,1.0961,0.5549
20.016,0.30596,0.39101,0.41016,1.0961,0.5549
20.024,0.30694,0.38807,0.41016,1.0961,0.56078
20.032,0.3089,0.38416,0.41016,1.0961,0.56078
20.04,0.30987,0.38025,0.41602,1.102,0.56078
20.048,0.31183,0.37732,0.41602,1.1118,0.56078
20.056,0.31378,0.37537,0.41992,1.1216,0.5549
20.064,0.31476,0.37146,0.43555,1.1314,0.55098
20.072,0.31672,0.36657,0.44531,1.151,0.5451
20.08,0.31867,0.36364,0.46094,1.1725,0.53922
20.088,0.32063,0.35973,0.47461,1.1961,0.53529
20.096,0.32258,0.35777,0.49414,1.2275,0.52549
20.104,0.32454,0.35484,0.51953,1.2667,0.5098
20.112,0.32649,0.35191,0.55078,1.3118,0.49412
20.12,0.32845,0.34995,0.58398,1.3667,0.48039
20.128,0.3304,0.34702,0.61914,1.4235,0.4549
20.136,0.33138,0.34604,0.66406,1.4824,0.43529
20.144,0.33236,0.34506,0.70898,1.5039,0.4098
20.152,0.33333,0.34409,0.75,1.5039,0.38431
20.16,0.33529,0.34409,0.78906,1.5039,0.36471
20.168,0.33627,0.34409,0.81055,1.5039,0.35882
20.176,0.33822,0.34409,0.81445,1.5039,0.35882
20.184,0.33822,0.34311,0.78516,1.4725,0.38431
20.192,0.3392,0.34115,0.71484,1.3373,0.42941
20.2,0.3392,0.3392,0.60547,1.1627,0.5
20.208,0.3392,0.33724,0.47461,0.97647,0.58039
20.216,0.33822,0.33529,0.3457,0.81569,0.66078
20.224,0.33822,0.33333,0.22461,0.68627,0.72549
20.232,0.33822,0.33138,0.13477,0.5902,0.77647
20.24,0.33724,0.3304,0.070312,0.52941,0.80588
20.248,0.33627,0.3304,0.035156,0.4902,0.82157
20.256,0.33529,0.3304,0.0097656,0.46471,0.83137
20.264,0.33333,0.3304,-0.0039062,0.4549,0.84118
20.272,0.33138,0.3304,-0.0097656,0.44902,0.84118
20.28,0.32845,0.3304,-0.013672,0.44902,0.8451
20.288,0.32649,0.3304,-0.013672,0.44902,0.8451
20.296,0.32356,0.3304,-0.0097656,0.4549,0.84118
20.304,0.32063,0.32942,-0.0039062,0.46078,0.83529
20.312,0.31672,0.32649,0,0.47451,0.83137
20.32,0.31281,0.32258,0.0058594,0.48431,0.83137
20.328,0.30694,0.32063,0.015625,0.49412,0.82549
20.336,0.30205,0.31867,0.019531,0.50588,0.82157
20.344,0.29619,0.31574,0.03125,0.51569,0.81176
20.352,0.29032,0.31378,0.041016,0.51961,0.80588
20.36,0.28348,0.31183,0.050781,0.52941,0.8
20.368,0.27761,0.3089,0.054688,0.53922,0.79608
20.376,0.27273,0.30596,0.060547,0.5451,0.78627
20.384,0.26686,0.30205,0.064453,0.55098,0.78627
20.392,0.26197,0.3001,0.064453,0.55098,0.78627
20.4,0.25806,0.29912,0.064453,0.55098,0.78627
20.408,0.25415,0.30108,0.064453,0.55098,0.78627
20.416,0.25024,0.30499,0.064453,0.55098,0.78627
20.424,0.24633,0.31378,0.060547,0.55098,0.7902
20.432,0.2434,0.32649,0.060547,0.5451,0.79608
20.44,0.24047,0.34311,0.054688,0.5451,0.79608
20.448,0.23754,0.3607,0.054688,0.53922,0.79608
20.456,0.23558,0.3783,0.050781,0.53922,0.79608
20.464,0.2346,0.40176,0.050781,0.53922,0.79608
20.472,0.23265,0.42815,0.054688,0.53922,0.8
20.48,0.23167,0.45748,0.050781,0.53922,0.8
20.488,0.23069,0.48876,0.050781,0.53922,0.8
20.496,0.22972,0.52004,0.050781,0.53922,0.80588
20.504,0.22874,0.55034,0.054688,0.53922,0.8
20.512,0.22874,0.57869,0.050781,0.53922,0.8
20.52,0.22776,0.60508,0.050781,0.53922,0.8
20.528,0.22776,0.62757,0.050781,0.53922,0.8
20.536,0.22776,0.64614,0.050781,0.5451,0.8
20.544,0.22776,0.66178,0.054688,0.5451,0.8
20.552,0.22776,0.67253,0.060547,0.5451,0.8
20.56,0.22776,0.67937,0.060547,0.5451,0.8
20.568,0.22776,0.68524,0.060547,0.55098,0.8
20.576,0.22776,0.68915,0.064453,0.55098,0.8
20.584,0.22776,0.69013,0.060547,0.55098,0.79608
20.592,0.22776,0.68817,0.060547,0.56078,0.79608
20.6,0.22776,0.68328,0.076172,0.57059,0.79608
20.608,0.22874,0.67546,0.10547,0.60588,0.78627
20.616,0.22874,0.66569,0.125,0.6451,0.78627
20.624,0.22874,0.65396,0.13477,0.68627,0.78627
20.632,0.22874,0.64223,0.14062,0.69608,0.7902
20.64,0.22972,0.62952,0.13086,0.6549,0.8
20.648,0.22972,0.61681,0.099609,0.5902,0.82157
20.656,0.22972,0.60508,0.060547,0.5549,0.84118
20.664,0.22972,0.5914,0.03125,0.5451,0.85098
20.672,0.23069,0.57674,0.025391,0.53922,0.84118
20.68,0.23069,0.56109,0.041016,0.5451,0.82157
20.688,0.23069,0.54448,0.044922,0.55098,0.8
20.696,0.23069,0.52884,0.050781,0.5549,0.79608
20.704,0.23167,0.51417,0.050781,0.5549,0.79608
20.712,0.23167,0.50147,0.050781,0.56078,0.7902
20.72,0.23167,0.48974,0.050781,0.56471,0.7902
20.728,0.23167,0.47996,0.054688,0.57059,0.78627
20.736,0.23265,0.47019,0.054688,0.57059,0.78627
20.744,0.23265,0.46237,0.054688,0.57451,0.78627
20.752,0.23265,0.45748,0.060547,0.58431,0.78627
20.76,0.23265,0.45259,0.060547,0.58431,0.7902
20.768,0.23363,0.44868,0.050781,0.60588,0.79608
20.776,0.23363,0.44477,0.050781,0.6098,0.80588
20.784,0.23363,0.44086,-0.0039062,0.18431,0.86078
20.792,0.23363,0.43695,-0.33008,-0.50196,1.0863
20.8,0.2346,0.43304,-0.49805,-0.50196,1.5039
20.808,0.2346,0.42815,-0.49805,-0.50196,1.5039
20.816,0.2346,0.42326,-0.49805,-0.50196,1.5039
20.824,0.2346,0.41642,-0.49805,-0.50196,1.5039
20.832,0.23558,0.41056,-0.49805,-0.13137,1.4275
20.84,0.23558,0.40469,0,0.67647,0.84118
20.848,0.23558,0.3998,0.30469,1.0216,0.6098
20.856,0.23558,0.39687,0.37109,1.0863,0.56471
20.864,0.23656,0.39394,0.38477,1.0961,0.56078
20.872,0.23656,0.39101,0.39062,1.102,0.5549
20.88,0.23656,0.38807,0.39062,1.102,0.5549
20.888,0.23656,0.38514,0.39062,1.102,0.5549
20.896,0.23754,0.38123,0.39453,1.0961,0.5549
20.904,0.23754,0.37634,0.39453,1.0961,0.56078
20.912,0.23754,0.37146,0.39453,1.0961,0.56078
20.92,0.23754,0.36559,0.39453,1.102,0.56078
20.928,0.23851,0.3607,0.39453,1.102,0.56078
20.936,0.23851,0.35582,0.39453,1.102,0.56078
20.944,0.23851,0.35191,0.40039,1.1059,0.56078
20.952,0.24047,0.34897,0.40039,1.1118,0.56471
20.96,0.24145,0.34702,0.41016,1.1216,0.56078
20.968,0.2434,0.34409,0.41602,1.1314,0.5549
20.976,0.24536,0.34115,0.42969,1.1471,0.5549
20.984,0.24731,0.34018,0.43945,1.1627,0.5451
20.992,0.25024,0.3392,0.45508,1.1922,0.53922
21,0.2522,0.33822,0.4707,1.2216,0.53529
21.008,0.25415,0.33724,0.49023,1.2569,0.52549
21.016,0.25611,0.33627,0.51953,1.302,0.51569
21.024,0.25904,0.33529,0.55078,1.3471,0.5
21.032,0.261,0.33333,0.58984,1.402,0.47451
21.04,0.26295,0.33236,0.62891,1.4627,0.4549
21.048,0.26491,0.33236,0.66992,1.5039,0.42941
21.056,0.26784,0.33236,0.71484,1.5039,0.4098
21.064,0.26979,0.33236,0.75391,1.5039,0.3902
21.072,0.27175,0.33138,0.7793,1.5039,0.38039
21.08,0.2737,0.32845,0.78906,1.5039,0.38039
21.088,0.27566,0.32551,0.77539,1.5039,0.3902
21.096,0.27664,0.32258,0.72461,1.4078,0.42941
21.104,0.27859,0.32063,0.64062,1.2471,0.48431
21.112,0.27957,0.31867,0.51953,1.0667,0.56078
21.12,0.28055,0.31769,0.39062,0.8902,0.64118
