Time [s], RESP, PLETH, II, V, AVR
0,-0.08802,0.60508,0.015625,0.73529,0.86523
0.008,-0.085575,0.60117,0.025391,0.74118,0.85547
0.016,-0.08313,0.59629,0.050781,0.7451,0.83984
0.024,-0.080685,0.59042,0.080078,0.7549,0.81445
0.032,-0.07824,0.58358,0.099609,0.76078,0.79883
0.04,-0.075795,0.57576,0.13477,0.77059,0.7793
0.048,-0.07335,0.56794,0.15625,0.78039,0.76562
0.056,-0.06846,0.55914,0.18945,0.78039,0.74414
0.064,-0.066015,0.55132,0.21094,0.7902,0.73047
0.072,-0.061125,0.5435,0.23047,0.7902,0.72461
0.08,-0.05868,0.5347,0.23047,0.78039,0.7207
0.088,-0.056235,0.52493,0.23438,0.77059,0.72461
0.096,-0.051345,0.51613,0.21484,0.7549,0.73047
0.104,-0.0489,0.50733,0.18945,0.73529,0.74414
0.112,-0.046455,0.49853,0.16992,0.71569,0.76562
0.12,-0.04401,0.48974,0.14062,0.69608,0.78906
0.128,-0.03912,0.48192,0.099609,0.68039,0.82031
0.136,-0.036675,0.4741,0.064453,0.66471,0.83984
0.144,-0.03423,0.46628,0.025391,0.6549,0.86523
0.152,-0.03423,0.45846,-0.0039062,0.65098,0.88477
0.16,-0.031785,0.45259,-0.013672,0.6451,0.89453
0.168,-0.02934,0.44673,-0.029297,0.65098,0.90039
0.176,-0.02934,0.44086,-0.044922,0.6549,0.91016
0.184,-0.02934,0.435,-0.054688,0.66078,0.91016
0.192,-0.02934,0.42913,-0.058594,0.66471,0.91016
0.2,-0.031785,0.42424,-0.064453,0.67059,0.91992
0.208,-0.03423,0.41838,-0.058594,0.66471,0.91992
0.216,-0.03912,0.41349,-0.070312,0.67647,0.91406
0.224,-0.041565,0.40958,-0.070312,0.68039,0.91406
0.232,-0.0489,0.40469,-0.074219,0.68627,0.92969
0.24,-0.05379,0.40078,-0.074219,0.6902,0.92969
0.248,-0.05868,0.39687,-0.070312,0.6902,0.91992
0.256,-0.06357,0.39394,-0.074219,0.6902,0.92383
0.264,-0.06846,0.39198,-0.074219,0.6902,0.92383
0.272,-0.070905,0.39003,-0.054688,0.68627,0.91016
0.28,-0.075795,0.38807,-0.044922,0.69608,0.9043
0.288,-0.080685,0.38514,-0.0097656,0.6902,0.87891
0.296,-0.085575,0.38319,0,0.7,0.86914
0.304,-0.090465,0.38025,0.019531,0.7,0.85938
0.312,-0.09291,0.3783,0.041016,0.70588,0.84961
0.32,-0.0978,0.37537,0.064453,0.6902,0.83984
0.328,-0.10024,0.37341,0.085938,0.67647,0.83008
0.336,-0.10269,0.37146,0.095703,0.67647,0.81445
0.344,-0.10513,0.3695,0.11133,0.67647,0.79883
0.352,-0.10513,0.36852,0.089844,0.68627,0.81055
0.36,-0.10758,0.36755,0.054688,0.68627,0.83398
0.368,-0.10758,0.36755,0.015625,0.68039,0.85547
0.376,-0.10758,0.36755,-0.039062,0.68039,0.88867
0.384,-0.10758,0.36755,-0.074219,0.68627,0.91016
0.392,-0.10758,0.3695,-0.080078,0.68039,0.91016
0.4,-0.10513,0.37341,-0.074219,0.67647,0.91016
0.408,-0.10513,0.3783,-0.070312,0.67059,0.91016
0.416,-0.10513,0.38612,-0.074219,0.68039,0.91016
0.424,-0.10269,0.39589,-0.080078,0.68627,0.91016
0.432,-0.10269,0.40762,-0.048828,0.71569,0.88867
0.44,-0.10024,0.42131,0.095703,0.61569,0.82031
0.448,-0.0978,0.43597,0.39062,0.4098,0.66992
0.456,-0.095355,0.45161,0.7207,0.38039,0.43945
0.464,-0.09291,0.4653,0.78516,0.53922,0.35938
0.472,-0.090465,0.47898,0.44531,0.62941,0.55078
0.48,-0.08802,0.49365,0.11523,0.68039,0.76953
0.488,-0.085575,0.50831,-0.025391,0.64118,0.87891
0.496,-0.08313,0.52297,-0.070312,0.67647,0.91016
0.504,-0.080685,0.53666,-0.074219,0.7,0.91016
0.512,-0.07824,0.54936,-0.09375,0.7098,0.91016
0.52,-0.075795,0.56109,-0.083984,0.71569,0.90039
0.528,-0.07335,0.57185,-0.080078,0.71569,0.9043
0.536,-0.070905,0.58162,-0.083984,0.72157,0.9043
0.544,-0.06846,0.58944,-0.083984,0.72157,0.90039
0.552,-0.066015,0.59629,-0.074219,0.71569,0.89453
0.56,-0.06357,0.60215,-0.064453,0.72157,0.88867
0.568,-0.061125,0.60508,-0.048828,0.7098,0.88477
0.576,-0.05868,0.60802,-0.054688,0.7098,0.88867
0.584,-0.05868,0.61095,-0.058594,0.71569,0.88477
0.592,-0.056235,0.61193,-0.035156,0.7098,0.875
0.6,-0.056235,0.61193,-0.035156,0.7098,0.875
0.608,-0.05379,0.61095,-0.025391,0.71569,0.86914
0.616,-0.05379,0.60899,-0.019531,0.71569,0.86523
0.624,-0.051345,0.60606,-0.0039062,0.71569,0.86523
0.632,-0.0489,0.60215,0.0058594,0.73137,0.84961
0.64,-0.046455,0.59726,0.03125,0.73137,0.83984
0.648,-0.046455,0.61779,0.044922,0.73529,0.83008
0.656,-0.04401,0.65103,0.064453,0.74118,0.81445
0.664,-0.041565,0.66178,0.095703,0.76078,0.79492
0.672,-0.03912,0.6608,0.13086,0.76078,0.77539
0.68,-0.03912,0.65298,0.14453,0.77059,0.75977
0.688,-0.036675,0.64125,0.16602,0.78039,0.74414
0.696,-0.031785,0.62757,0.18945,0.78039,0.72461
0.704,-0.02934,0.6129,0.21094,0.78627,0.7207
0.712,-0.02445,0.59824,0.2207,0.77647,0.71484
0.72,-0.022005,0.5826,0.21094,0.76078,0.7207
0.728,-0.017115,0.56696,0.21484,0.73529,0.72461
0.736,-0.01467,0.55132,0.18945,0.73137,0.74414
0.744,-0.012225,0.53568,0.15625,0.71569,0.76562
0.752,-0.007335,0.52102,0.12109,0.7,0.78906
0.76,-0.00489,0.50831,0.099609,0.68627,0.81055
0.768,0,0.49658,0.070312,0.66471,0.83008
0.776,0.002445,0.48485,0.035156,0.66078,0.84961
0.784,0.007335,0.47214,0.0058594,0.65098,0.86914
0.792,0.00978,0.46041,-0.019531,0.6451,0.88867
0.8,0.012225,0.44966,-0.029297,0.65098,0.90039
0.808,0.01467,0.44086,-0.044922,0.6549,0.9043
0.816,0.017115,0.43109,-0.064453,0.66078,0.91016
0.824,0.017115,0.42229,-0.074219,0.66471,0.91016
0.832,0.01956,0.41349,-0.058594,0.66471,0.91016
0.84,0.01956,0.40469,-0.058594,0.66471,0.91016
0.848,0.01956,0.39687,-0.074219,0.66471,0.91406
0.856,0.017115,0.38807,-0.080078,0.67059,0.91992
0.864,0.017115,0.38221,-0.074219,0.67647,0.91016
0.872,0.017115,0.37732,-0.074219,0.67059,0.91406
0.88,0.01467,0.37146,-0.074219,0.67647,0.91992
0.888,0.012225,0.36559,-0.080078,0.68039,0.91406
0.896,0.012225,0.3607,-0.074219,0.68627,0.91406
0.904,0.00978,0.35582,-0.064453,0.68627,0.9043
0.912,0.007335,0.35191,-0.064453,0.68627,0.9043
0.92,0.007335,0.34702,-0.044922,0.68039,0.89453
0.928,0.00489,0.34213,-0.019531,0.6902,0.87891
0.936,0.002445,0.33822,-0.0039062,0.69608,0.86523
0.944,0,0.33431,0.0097656,0.7,0.85938
0.952,-0.002445,0.33236,0.050781,0.6902,0.83984
0.96,-0.002445,0.3304,0.064453,0.68039,0.83008
0.968,-0.00489,0.3304,0.060547,0.68039,0.82031
0.976,-0.00489,0.32942,0.11133,0.67059,0.79492
0.984,-0.007335,0.32845,0.076172,0.6902,0.81055
0.992,-0.007335,0.32747,0.041016,0.68039,0.83008
1,-0.00489,0.32551,0.0097656,0.67647,0.84961
1.008,-0.00489,0.32551,-0.035156,0.66471,0.88477
1.016,-0.002445,0.32649,-0.074219,0.66471,0.91016
1.024,0,0.32942,-0.09375,0.66471,0.91992
1.032,0.002445,0.33529,-0.10352,0.66471,0.92969
1.04,0.00489,0.34409,-0.099609,0.66471,0.92383
1.048,0.007335,0.35679,-0.099609,0.66471,0.92969
1.056,0.00978,0.37048,-0.09375,0.66471,0.91992
1.064,0.012225,0.3871,-0.09375,0.68627,0.91016
1.072,0.01467,0.40665,-0.019531,0.7098,0.875
1.08,0.017115,0.43011,0.2207,0.47451,0.76953
1.088,0.01956,0.4565,0.55078,0.37059,0.56055
1.096,0.022005,0.48387,0.72461,0.5,0.4043
1.104,0.02445,0.51124,0.58398,0.57451,0.4707
1.112,0.02934,0.53861,0.18945,0.66471,0.70898
1.12,0.031785,0.565,-0.013672,0.62941,0.875
1.128,0.03423,0.5914,-0.09375,0.6451,0.92969
1.136,0.036675,0.61584,-0.13477,0.68039,0.94531
1.144,0.041565,0.6393,-0.11914,0.6902,0.93555
1.152,0.04401,0.65982,-0.11523,0.69608,0.92969
1.16,0.046455,0.67644,-0.125,0.69608,0.93555
1.168,0.0489,0.68915,-0.11914,0.7,0.93555
1.176,0.05379,0.70088,-0.11914,0.6902,0.93555
1.184,0.056235,0.71163,-0.11523,0.6902,0.92969
1.192,0.05868,0.72043,-0.09375,0.6902,0.91406
1.2,0.061125,0.72727,-0.09375,0.6902,0.91406
1.208,0.06357,0.73118,-0.080078,0.6902,0.91016
1.216,0.066015,0.73412,-0.074219,0.69608,0.91016
1.224,0.066015,0.73509,-0.074219,0.69608,0.9043
1.232,0.06846,0.73509,-0.080078,0.6902,0.90039
1.24,0.070905,0.73216,-0.054688,0.69608,0.89453
1.248,0.07335,0.72825,-0.054688,0.70588,0.89453
1.256,0.07335,0.72239,-0.044922,0.70588,0.88867
1.264,0.075795,0.71554,-0.029297,0.71569,0.88867
1.272,0.07824,0.70674,-0.013672,0.72549,0.86914
1.28,0.080685,0.69599,-0.0039062,0.73529,0.86523
1.288,0.080685,0.68524,0.015625,0.73529,0.84375
1.296,0.08313,0.67253,0.041016,0.7451,0.83008
1.304,0.085575,0.65885,0.080078,0.76078,0.80469
1.312,0.08802,0.64418,0.099609,0.77059,0.78906
1.32,0.08802,0.62952,0.14062,0.77647,0.76562
1.328,0.090465,0.61486,0.16016,0.78039,0.75
1.336,0.09291,0.59922,0.17578,0.78627,0.74023
1.344,0.095355,0.58456,0.19531,0.78039,0.72461
1.352,0.0978,0.56989,0.20508,0.76667,0.72461
1.36,0.10024,0.55621,0.18945,0.7549,0.73438
1.368,0.10269,0.5435,0.16992,0.73137,0.75
1.376,0.10513,0.52981,0.16016,0.7098,0.75977
1.384,0.10758,0.51613,0.12109,0.6902,0.78906
1.392,0.11002,0.50147,0.085938,0.66471,0.81445
1.4,0.11247,0.48876,0.044922,0.65098,0.83984
1.408,0.11491,0.47507,0.025391,0.63529,0.85938
1.416,0.11736,0.46237,-0.0097656,0.64118,0.88477
1.424,0.1198,0.45064,-0.025391,0.61961,0.88867
1.432,0.12225,0.43988,-0.054688,0.62549,0.91016
1.44,0.12225,0.43011,-0.064453,0.62549,0.91406
1.448,0.12469,0.42033,-0.080078,0.63529,0.91016
1.456,0.12469,0.41251,-0.080078,0.64118,0.91992
1.464,0.12469,0.40665,-0.09375,0.64118,0.92969
1.472,0.12469,0.3998,-0.083984,0.64118,0.91992
1.48,0.12225,0.39296,-0.09375,0.64118,0.92969
1.488,0.1198,0.38514,-0.089844,0.64118,0.92383
1.496,0.11736,0.3783,-0.09375,0.6451,0.92969
1.504,0.11491,0.37243,-0.09375,0.65098,0.92383
1.512,0.11002,0.36657,-0.10938,0.66471,0.93555
1.52,0.10513,0.3607,-0.080078,0.6549,0.91992
1.528,0.10269,0.35582,-0.074219,0.6549,0.91406
1.536,0.0978,0.35191,-0.089844,0.66471,0.91406
1.544,0.095355,0.34702,-0.083984,0.66471,0.91992
1.552,0.090465,0.34409,-0.074219,0.67647,0.91016
1.56,0.08802,0.34115,-0.048828,0.67059,0.90039
1.568,0.08313,0.3392,-0.019531,0.68039,0.87891
1.576,0.080685,0.33724,-0.013672,0.6902,0.86914
1.584,0.075795,0.33431,0.015625,0.68627,0.85547
1.592,0.07335,0.33138,0.041016,0.67647,0.83984
1.6,0.070905,0.32845,0.044922,0.66471,0.83984
1.608,0.06846,0.32649,0.070312,0.66078,0.82422
1.616,0.06846,0.32454,0.080078,0.66471,0.80469
1.624,0.066015,0.32258,0.070312,0.66471,0.80469
1.632,0.066015,0.32258,0.035156,0.66471,0.82422
1.64,0.06357,0.32258,0,0.66471,0.85547
1.648,0.06357,0.32356,-0.058594,0.66078,0.88867
1.656,0.066015,0.32649,-0.080078,0.66471,0.91016
1.664,0.066015,0.33138,-0.099609,0.6549,0.91992
1.672,0.066015,0.33724,-0.10938,0.65098,0.92969
1.68,0.06846,0.34702,-0.11914,0.6549,0.93555
1.688,0.070905,0.35973,-0.10938,0.6549,0.92383
1.696,0.07335,0.37634,-0.11523,0.6549,0.92969
1.704,0.07335,0.39589,-0.099609,0.67647,0.91992
1.712,0.075795,0.41838,-0.0097656,0.7,0.86914
1.72,0.07824,0.44379,0.23047,0.4549,0.75
1.728,0.080685,0.47116,0.53516,0.38039,0.56055
1.736,0.085575,0.49853,0.69922,0.51569,0.4043
1.744,0.08802,0.5259,0.53906,0.57451,0.49414
1.752,0.09291,0.5523,0.15039,0.6451,0.74414
1.76,0.095355,0.57478,-0.044922,0.6098,0.90039
1.768,0.0978,0.59433,-0.11523,0.6451,0.93555
1.776,0.10269,0.61388,-0.13477,0.67059,0.94922
1.784,0.10513,0.63441,-0.12891,0.68627,0.93945
1.792,0.10758,0.652,-0.12891,0.6902,0.93555
1.8,0.11247,0.66862,-0.13477,0.6902,0.93945
1.808,0.11491,0.68328,-0.11914,0.6902,0.93555
1.816,0.1198,0.69599,-0.11914,0.6902,0.93555
1.824,0.12225,0.70772,-0.11914,0.6902,0.92969
1.832,0.12469,0.71652,-0.125,0.6902,0.93555
1.84,0.12714,0.72336,-0.11523,0.6902,0.92383
1.848,0.12958,0.72825,-0.09375,0.68039,0.91992
1.856,0.13203,0.73021,-0.09375,0.68627,0.91406
1.864,0.13447,0.72923,-0.09375,0.6902,0.91992
1.872,0.13692,0.7263,-0.080078,0.6902,0.91016
1.88,0.13936,0.72141,-0.074219,0.6902,0.9043
1.888,0.14181,0.71554,-0.070312,0.6902,0.90039
1.896,0.14425,0.70772,-0.058594,0.69608,0.89453
1.904,0.14425,0.69697,-0.039062,0.69608,0.87891
1.912,0.1467,0.68622,-0.025391,0.70588,0.875
1.92,0.14914,0.67449,-0.0097656,0.7,0.86523
1.928,0.15159,0.66276,0,0.71569,0.84961
1.936,0.15159,0.65005,0.035156,0.73137,0.83008
1.944,0.15403,0.63636,0.064453,0.74118,0.81055
1.952,0.15892,0.62268,0.095703,0.7451,0.78906
1.96,0.16137,0.60899,0.11523,0.7549,0.77539
1.968,0.16381,0.59629,0.14062,0.76078,0.75977
1.976,0.1687,0.58065,0.16016,0.76078,0.74414
1.984,0.17359,0.565,0.15625,0.76078,0.75
1.992,0.17848,0.55034,0.16992,0.74118,0.74414
2,0.18093,0.5347,0.16016,0.73529,0.75
2.008,0.18582,0.52004,0.15039,0.7098,0.76562
2.016,0.18826,0.50635,0.12109,0.69608,0.78906
2.024,0.19315,0.49365,0.11133,0.66471,0.79492
2.032,0.1956,0.47996,0.076172,0.65098,0.82031
2.04,0.19804,0.46725,0.044922,0.62941,0.84375
2.048,0.20049,0.45552,0.015625,0.61961,0.86523
2.056,0.20049,0.44673,-0.0097656,0.61569,0.88477
2.064,0.20293,0.43793,-0.044922,0.61569,0.90039
2.072,0.20293,0.43011,-0.058594,0.61569,0.91016
2.08,0.20293,0.42131,-0.080078,0.61569,0.92383
2.088,0.20293,0.41251,-0.089844,0.61961,0.93555
2.096,0.20293,0.40469,-0.09375,0.62549,0.93555
2.104,0.20049,0.39589,-0.099609,0.63529,0.93555
2.112,0.20049,0.38807,-0.09375,0.64118,0.93555
2.12,0.1956,0.38025,-0.11523,0.64118,0.93555
2.128,0.19315,0.37243,-0.10352,0.6451,0.93555
2.136,0.18826,0.36657,-0.099609,0.6451,0.92969
2.144,0.18582,0.36168,-0.099609,0.65098,0.92969
2.152,0.18093,0.35679,-0.09375,0.6549,0.92383
2.16,0.17604,0.35288,-0.09375,0.6549,0.92969
2.168,0.17115,0.34995,-0.09375,0.6549,0.92383
2.176,0.16626,0.34702,-0.083984,0.65098,0.91992
2.184,0.16137,0.34311,-0.089844,0.6549,0.92383
2.192,0.15648,0.34018,-0.080078,0.66078,0.91016
2.2,0.15159,0.33627,-0.064453,0.66471,0.9043
2.208,0.1467,0.33333,-0.044922,0.66078,0.88867
2.216,0.14181,0.3304,-0.025391,0.66471,0.875
2.224,0.13692,0.32747,0,0.66471,0.85938
2.232,0.13447,0.32454,0.03125,0.66471,0.83984
2.24,0.12958,0.3216,0.044922,0.65098,0.83398
2.248,0.12714,0.31867,0.050781,0.65098,0.83008
2.256,0.12469,0.31769,0.070312,0.6549,0.81445
2.264,0.12225,0.31769,0.060547,0.66078,0.81445
2.272,0.1198,0.31672,0.025391,0.66078,0.83398
2.28,0.11736,0.31574,-0.0097656,0.6451,0.86523
2.288,0.11736,0.31672,-0.054688,0.64118,0.89453
2.296,0.11736,0.31965,-0.099609,0.6451,0.92383
2.304,0.11736,0.32454,-0.125,0.65098,0.93555
2.312,0.11736,0.33236,-0.11523,0.64118,0.93555
2.32,0.1198,0.34311,-0.11523,0.64118,0.93555
2.328,0.1198,0.35777,-0.11914,0.65098,0.93945
2.336,0.12225,0.37537,-0.11914,0.65098,0.92969
2.344,0.12225,0.39687,-0.10938,0.67059,0.92383
2.352,0.12469,0.42033,-0.054688,0.7,0.87891
2.36,0.12469,0.44184,0.16602,0.4902,0.78516
2.368,0.12714,0.46334,0.49414,0.35882,0.58398
2.376,0.12714,0.48778,0.70508,0.46471,0.41602
2.384,0.12958,0.51222,0.57422,0.53922,0.41016
2.392,0.12958,0.53763,0.17969,0.62941,0.7207
2.4,0.13203,0.56207,-0.025391,0.6,0.87891
2.408,0.13203,0.58553,-0.11914,0.62549,0.94531
2.416,0.13447,0.60802,-0.14453,0.6549,0.95508
2.424,0.13447,0.62854,-0.13867,0.67059,0.93945
2.432,0.13692,0.64614,-0.1543,0.68039,0.95508
2.44,0.13692,0.66178,-0.14844,0.68039,0.94922
2.448,0.13936,0.67546,-0.13867,0.68627,0.94531
2.456,0.13936,0.68426,-0.13867,0.6902,0.93945
2.464,0.13936,0.6911,-0.13867,0.6902,0.93945
2.472,0.13936,0.69795,-0.14453,0.6902,0.93945
2.48,0.13936,0.70283,-0.125,0.6902,0.93555
2.488,0.13936,0.70674,-0.11914,0.6902,0.92969
2.496,0.13936,0.70772,-0.11523,0.68627,0.92969
2.504,0.13936,0.70772,-0.10938,0.68627,0.92969
2.512,0.13936,0.70479,-0.099609,0.68039,0.92383
2.52,0.13936,0.69892,-0.10352,0.6902,0.91992
2.528,0.13936,0.69208,-0.089844,0.6902,0.91016
2.536,0.13936,0.68426,-0.074219,0.6902,0.9043
2.544,0.13936,0.67449,-0.058594,0.69608,0.90039
2.552,0.13936,0.66373,-0.048828,0.7,0.88867
2.56,0.13936,0.65298,-0.029297,0.7098,0.87891
2.568,0.13936,0.64223,-0.019531,0.7098,0.86914
2.576,0.13936,0.62952,0.0058594,0.72157,0.84961
2.584,0.13936,0.61681,0.041016,0.72549,0.83398
2.592,0.14181,0.60313,0.070312,0.73529,0.80469
2.6,0.14425,0.58847,0.095703,0.74118,0.78516
2.608,0.1467,0.57478,0.11523,0.75098,0.76953
2.616,0.14914,0.56109,0.14062,0.7549,0.75977
2.624,0.15403,0.54643,0.14453,0.7451,0.75391
2.632,0.15648,0.53275,0.14062,0.73529,0.75977
2.64,0.16137,0.51808,0.15039,0.72157,0.75977
2.648,0.16381,0.50342,0.13477,0.7,0.76953
2.656,0.16626,0.49169,0.11133,0.68627,0.78906
2.664,0.1687,0.47996,0.085938,0.66471,0.81055
2.672,0.17359,0.46823,0.064453,0.64118,0.83008
2.68,0.17604,0.4565,0.03125,0.62549,0.84961
2.688,0.17848,0.44477,0.0058594,0.61569,0.86523
2.696,0.17848,0.42229,-0.013672,0.6,0.88477
2.704,0.18093,0.39492,-0.035156,0.59608,0.89453
2.712,0.18337,0.37634,-0.054688,0.6,0.91016
2.72,0.18337,0.36168,-0.064453,0.60588,0.91406
2.728,0.18337,0.34897,-0.074219,0.60588,0.91992
2.736,0.18582,0.33822,-0.09375,0.61569,0.92969
2.744,0.18337,0.32845,-0.09375,0.61569,0.93555
2.752,0.18337,0.32063,-0.09375,0.61961,0.93555
2.76,0.18093,0.31574,-0.10352,0.61961,0.93555
2.768,0.17848,0.30987,-0.099609,0.62549,0.93555
2.776,0.17604,0.30499,-0.10938,0.64118,0.93555
2.784,0.17359,0.29912,-0.11523,0.64118,0.93945
2.792,0.1687,0.29326,-0.080078,0.64118,0.91016
2.8,0.16626,0.28739,-0.074219,0.64118,0.91016
2.808,0.16137,0.28152,-0.080078,0.6451,0.91016
2.816,0.15648,0.27566,-0.089844,0.64118,0.91406
2.824,0.15159,0.27077,-0.074219,0.64118,0.91016
2.832,0.1467,0.26588,-0.074219,0.6451,0.91016
2.84,0.14181,0.26197,-0.070312,0.65098,0.9043
2.848,0.13692,0.26002,-0.044922,0.6549,0.88867
2.856,0.13203,0.25904,-0.019531,0.6549,0.875
2.864,0.12714,0.25904,-0.019531,0.66471,0.875
2.872,0.12225,0.25806,0.0058594,0.66471,0.85938
2.88,0.1198,0.25709,0.03125,0.65098,0.84375
2.888,0.11491,0.25611,0.076172,0.63529,0.82031
2.896,0.11247,0.25415,0.11133,0.62549,0.79492
2.904,0.10758,0.25122,0.11523,0.63529,0.78906
2.912,0.10513,0.24927,0.060547,0.64118,0.81055
2.92,0.10024,0.24829,0.015625,0.63529,0.84375
2.928,0.095355,0.24829,-0.035156,0.64118,0.87891
2.936,0.08802,0.25122,-0.083984,0.62549,0.91406
2.944,0.08313,0.25611,-0.10938,0.61961,0.92969
2.952,0.075795,0.26393,-0.11914,0.61961,0.93945
2.96,0.070905,0.27273,-0.125,0.62549,0.93555
2.968,0.06357,0.28641,-0.125,0.62941,0.93945
2.976,0.056235,0.30303,-0.11914,0.61569,0.93555
2.984,0.0489,0.32551,-0.09375,0.62549,0.92383
2.992,0.04401,0.35093,-0.044922,0.68039,0.87891
3,0.03423,0.37928,0.13086,0.5549,0.79492
3.008,0.02445,0.40958,0.41602,0.38431,0.64453
3.016,0.012225,0.44086,0.7207,0.3549,0.43555
3.024,0,0.47116,0.74414,0.46078,0.40039
3.032,-0.012225,0.50147,0.31055,0.5549,0.64453
3.04,-0.02445,0.53079,0.019531,0.58039,0.85547
3.048,-0.036675,0.55914,-0.089844,0.57059,0.93945
3.056,-0.0489,0.58065,-0.12891,0.62941,0.95898
3.064,-0.06357,0.59922,-0.14844,0.6549,0.95898
3.072,-0.07824,0.61681,-0.14844,0.66078,0.95898
3.08,-0.095355,0.63441,-0.14453,0.6549,0.95508
3.088,-0.11247,0.65005,-0.16016,0.66471,0.95898
3.096,-0.12714,0.66276,-0.14844,0.66078,0.95508
3.104,-0.14425,0.67351,-0.16406,0.66471,0.95898
3.112,-0.16137,0.68133,-0.14453,0.6549,0.94922
3.12,-0.17604,0.68622,-0.11914,0.6549,0.93555
3.128,-0.18826,0.68915,-0.125,0.66078,0.93555
3.136,-0.20293,0.68915,-0.14844,0.67647,0.94922
3.144,-0.21271,0.68817,-0.13867,0.67059,0.94531
3.152,-0.22494,0.68524,-0.10352,0.66471,0.91992
3.16,-0.23227,0.68035,-0.083984,0.66471,0.91016
3.168,-0.24205,0.67449,-0.074219,0.66471,0.9043
3.176,-0.24694,0.66667,-0.064453,0.66471,0.90039
3.184,-0.25428,0.65787,-0.070312,0.67647,0.88867
3.192,-0.25672,0.64614,-0.054688,0.67647,0.88867
3.2,-0.26161,0.63343,-0.048828,0.68627,0.88477
3.208,-0.26406,0.61877,-0.013672,0.6902,0.86523
3.216,-0.26406,0.60411,0.015625,0.6902,0.83984
3.224,-0.26406,0.58749,0.044922,0.68627,0.83008
3.232,-0.26406,0.57087,0.064453,0.7098,0.81445
3.24,-0.26161,0.55425,0.089844,0.7098,0.79492
3.248,-0.26161,0.53666,0.12109,0.7098,0.7793
3.256,-0.25672,0.52102,0.15039,0.7098,0.75977
3.264,-0.25428,0.50635,0.16016,0.7098,0.75391
3.272,-0.24939,0.48974,0.16016,0.7098,0.75
3.28,-0.2445,0.47214,0.16992,0.6902,0.74414
3.288,-0.23961,0.45455,0.14062,0.68039,0.76562
3.296,-0.23472,0.43793,0.11523,0.66078,0.79492
3.304,-0.23227,0.42131,0.11133,0.63529,0.80469
3.312,-0.22738,0.40567,0.089844,0.61569,0.81445
3.32,-0.22494,0.39101,0.041016,0.61569,0.84375
3.328,-0.22249,0.37634,-0.019531,0.60588,0.88477
3.336,-0.22005,0.36266,-0.029297,0.59608,0.89453
3.344,-0.22005,0.34995,-0.019531,0.57059,0.89453
3.352,-0.22005,0.34018,-0.058594,0.5902,0.91406
3.36,-0.22005,0.33138,-0.09375,0.6,0.93555
3.368,-0.22249,0.32258,-0.10938,0.60588,0.93555
3.376,-0.22494,0.31378,-0.11523,0.60588,0.94531
3.384,-0.22738,0.30499,-0.11523,0.6098,0.94531
3.392,-0.23227,0.29521,-0.11914,0.61569,0.94922
3.4,-0.23961,0.28641,-0.1543,0.62549,0.96484
3.408,-0.2445,0.27761,-0.16406,0.61961,0.96484
3.416,-0.25183,0.26882,-0.11914,0.61569,0.94531
3.424,-0.25672,0.261,-0.14453,0.62941,0.95508
3.432,-0.26406,0.25415,-0.10938,0.61569,0.95898
3.44,-0.27139,0.24633,-0.074219,0.61569,0.91992
3.448,-0.27873,0.23949,-0.125,0.64118,0.93945
3.456,-0.28606,0.2346,-0.14453,0.65098,0.94922
3.464,-0.29095,0.23167,-0.09375,0.62941,0.93555
3.472,-0.29829,0.22776,-0.074219,0.62549,0.91016
3.48,-0.30318,0.22483,-0.10352,0.6451,0.92969
3.488,-0.30807,0.2219,-0.10938,0.65098,0.92383
3.496,-0.31296,0.21896,-0.054688,0.6451,0.9043
3.504,-0.31785,0.21603,-0.039062,0.66078,0.88867
3.512,-0.32029,0.21408,-0.029297,0.6549,0.88867
3.52,-0.32274,0.21114,0.0097656,0.6451,0.86523
3.528,-0.32518,0.20821,0.035156,0.63529,0.84961
3.536,-0.32763,0.20528,0.099609,0.61569,0.81055
3.544,-0.32763,0.20235,0.11523,0.62549,0.79883
3.552,-0.32763,0.20039,0.070312,0.64118,0.81055
3.56,-0.32763,0.19941,0.0058594,0.62941,0.85547
3.568,-0.32518,0.19844,-0.039062,0.64118,0.88477
3.576,-0.32518,0.19746,-0.074219,0.62549,0.91016
3.584,-0.32274,0.19746,-0.09375,0.61961,0.91992
3.592,-0.31785,0.20039,-0.125,0.61569,0.93555
3.6,-0.3154,0.20723,-0.16016,0.63529,0.95508
3.608,-0.31051,0.21701,-0.14453,0.62549,0.95898
3.616,-0.30807,0.23069,-0.11914,0.61961,0.93945
3.624,-0.30318,0.24731,-0.125,0.62549,0.92969
3.632,-0.29829,0.26882,-0.099609,0.65098,0.91992
3.64,-0.2934,0.29423,-0.048828,0.69608,0.87891
3.648,-0.28851,0.3216,0.24609,0.48039,0.74414
3.656,-0.28117,0.348,0.60547,0.3451,0.53516
3.664,-0.27384,0.37243,0.82422,0.32353,0.39062
3.672,-0.26895,0.3998,0.64062,0.39412,0.49023
3.68,-0.26161,0.42815,0.2207,0.49412,0.73047
3.688,-0.25428,0.45455,-0.035156,0.5451,0.90039
3.696,-0.24939,0.48094,-0.14453,0.60588,0.95898
3.704,-0.2445,0.50538,-0.16406,0.64118,0.96484
3.712,-0.23716,0.52884,-0.14844,0.65098,0.94922
3.72,-0.23227,0.55034,-0.18945,0.66471,0.96484
3.728,-0.22494,0.56891,-0.19922,0.67647,0.97461
3.736,-0.22005,0.58456,-0.17969,0.66471,0.95898
3.744,-0.21516,0.59824,-0.16992,0.66078,0.95898
3.752,-0.21027,0.60802,-0.18945,0.66471,0.96875
3.76,-0.20538,0.61584,-0.13867,0.6549,0.93945
3.768,-0.20049,0.62268,-0.14844,0.66078,0.94531
3.776,-0.19804,0.62757,-0.16406,0.66471,0.95898
3.784,-0.19315,0.63148,-0.16406,0.66471,0.95508
3.792,-0.18826,0.63245,-0.10938,0.6549,0.92969
3.8,-0.18582,0.62952,-0.11914,0.67059,0.91992
3.808,-0.18337,0.62463,-0.13867,0.68627,0.93555
3.816,-0.18093,0.61681,-0.080078,0.66471,0.9043
3.824,-0.17604,0.60704,-0.099609,0.68039,0.91016
3.832,-0.17359,0.59531,-0.048828,0.67647,0.88477
3.84,-0.17115,0.58162,-0.074219,0.6902,0.89453
3.848,-0.1687,0.56794,-0.09375,0.69608,0.91016
3.856,-0.16626,0.55523,0.015625,0.67059,0.84961
3.864,-0.16381,0.5435,0.044922,0.68627,0.82031
3.872,-0.15892,0.52884,0.025391,0.7098,0.83008
3.88,-0.15648,0.51417,0.095703,0.6902,0.79492
3.888,-0.15159,0.49853,0.11523,0.7098,0.77539
3.896,-0.1467,0.48289,0.089844,0.71569,0.78906
3.904,-0.14425,0.46628,0.16602,0.7,0.74414
3.912,-0.13936,0.45064,0.21094,0.6902,0.7207
3.92,-0.13447,0.435,0.16602,0.6902,0.74414
3.928,-0.12958,0.41838,0.17969,0.6549,0.75
3.936,-0.12469,0.40176,0.18555,0.6451,0.74414
3.944,-0.12225,0.38514,0.125,0.64118,0.78516
3.952,-0.11736,0.37243,0.050781,0.63529,0.83008
3.96,-0.11247,0.3607,0.041016,0.6098,0.83984
3.968,-0.11002,0.348,0.044922,0.59608,0.84961
3.976,-0.10758,0.33627,-0.035156,0.5902,0.89453
3.984,-0.10269,0.32454,-0.0039062,0.57059,0.87891
3.992,-0.10024,0.31281,-0.039062,0.58431,0.89453
4,-0.0978,0.30205,-0.083984,0.5902,0.91992
4.008,-0.0978,0.2913,-0.080078,0.58039,0.91406
4.016,-0.095355,0.28055,-0.13867,0.6,0.94531
4.024,-0.095355,0.27077,-0.14453,0.6098,0.95508
4.032,-0.09291,0.261,-0.14453,0.6098,0.94531
4.04,-0.09291,0.2522,-0.1543,0.61569,0.94922
4.048,-0.09291,0.24438,-0.14453,0.61569,0.94922
4.056,-0.095355,0.23949,-0.14844,0.61569,0.94922
4.064,-0.095355,0.2346,-0.13867,0.6098,0.93945
4.072,-0.0978,0.22972,-0.11914,0.61569,0.92969
4.08,-0.10024,0.22385,-0.11523,0.61961,0.92383
4.088,-0.10269,0.21896,-0.11914,0.63529,0.92383
4.096,-0.10513,0.21505,-0.11914,0.63529,0.92969
4.104,-0.10758,0.21017,-0.10938,0.62941,0.91992
4.112,-0.11002,0.20626,-0.10352,0.62941,0.91406
4.12,-0.11002,0.20235,-0.10938,0.63529,0.91406
4.128,-0.11247,0.19941,-0.089844,0.64118,0.9043
4.136,-0.11491,0.19648,-0.064453,0.64118,0.88867
4.144,-0.11491,0.19355,-0.044922,0.64118,0.87891
4.152,-0.11491,0.19257,-0.035156,0.64118,0.86914
4.16,-0.11736,0.19159,-0.0097656,0.64118,0.85938
4.168,-0.11736,0.18964,0.019531,0.63529,0.83984
4.176,-0.11491,0.18671,0.019531,0.62941,0.83008
4.184,-0.11491,0.18475,0.054688,0.62941,0.81055
4.192,-0.11491,0.1828,0.064453,0.64118,0.79883
4.2,-0.11247,0.18084,0.025391,0.64118,0.82031
4.208,-0.11002,0.17986,-0.0097656,0.64118,0.84375
4.216,-0.10758,0.17889,-0.064453,0.64118,0.875
4.224,-0.10269,0.17889,-0.099609,0.63529,0.89453
4.232,-0.0978,0.18084,-0.125,0.6451,0.91016
4.24,-0.095355,0.18377,-0.14453,0.6451,0.91992
4.248,-0.090465,0.19062,-0.14453,0.64118,0.92383
4.256,-0.085575,0.19941,-0.13867,0.64118,0.91406
4.264,-0.080685,0.21017,-0.12891,0.65098,0.91406
4.272,-0.075795,0.22581,-0.13867,0.66078,0.91016
4.28,-0.070905,0.24438,-0.10938,0.7,0.88867
4.288,-0.066015,0.26588,0.054688,0.58039,0.81055
4.296,-0.05868,0.29032,0.37109,0.38431,0.6543
4.304,-0.05379,0.31769,0.73047,0.33529,0.42969
4.312,-0.0489,0.34702,0.79883,0.40392,0.35938
4.32,-0.041565,0.37732,0.46484,0.48039,0.55078
4.328,-0.036675,0.40665,0.095703,0.57451,0.78516
4.336,-0.031785,0.43597,-0.083984,0.5902,0.90039
4.344,-0.026895,0.46432,-0.13867,0.63529,0.92383
4.352,-0.022005,0.48778,-0.14453,0.6549,0.92969
4.36,-0.01956,0.50733,-0.14844,0.66471,0.92383
4.368,-0.01467,0.52688,-0.14844,0.66471,0.92969
4.376,-0.00978,0.54643,-0.1543,0.66471,0.91992
4.384,-0.007335,0.565,-0.14844,0.66471,0.92383
4.392,-0.00489,0.58065,-0.14453,0.66471,0.92383
4.4,-0.002445,0.59433,-0.13477,0.65098,0.91992
4.408,0,0.60508,-0.125,0.65098,0.91016
4.416,0.002445,0.61388,-0.11914,0.66078,0.9043
4.424,0.002445,0.62072,-0.11914,0.66471,0.9043
4.432,0.002445,0.62463,-0.10352,0.66471,0.90039
4.44,0.002445,0.62659,-0.09375,0.66078,0.88867
4.448,0.002445,0.62659,-0.083984,0.66078,0.88867
4.456,0,0.62463,-0.080078,0.66078,0.87891
4.464,0,0.62072,-0.074219,0.66471,0.87891
4.472,0,0.61584,-0.074219,0.66471,0.87891
4.48,-0.002445,0.60899,-0.048828,0.66078,0.86523
4.488,-0.002445,0.60215,-0.039062,0.66471,0.85547
4.496,-0.002445,0.59238,-0.019531,0.67647,0.84375
4.504,-0.002445,0.58162,0.0097656,0.68039,0.83008
4.512,-0.002445,0.56891,0.041016,0.6902,0.79883
4.52,-0.002445,0.55523,0.070312,0.7,0.78516
4.528,-0.002445,0.54057,0.099609,0.7098,0.76562
4.536,0,0.52395,0.13086,0.71569,0.74414
4.544,0,0.50733,0.15625,0.7098,0.73047
4.552,0.002445,0.49267,0.16992,0.71569,0.7207
4.56,0.00489,0.47996,0.18555,0.7098,0.71484
4.568,0.007335,0.46628,0.18555,0.6902,0.70898
4.576,0.00978,0.45161,0.17969,0.67647,0.7207
4.584,0.00978,0.43793,0.15625,0.66078,0.74023
4.592,0.012225,0.42424,0.12109,0.64118,0.76562
4.6,0.01467,0.41153,0.089844,0.62941,0.78516
4.608,0.01467,0.3998,0.060547,0.61569,0.80469
4.616,0.017115,0.38807,0.035156,0.6,0.82422
4.624,0.017115,0.3783,-0.0039062,0.59608,0.84961
4.632,0.017115,0.36852,-0.039062,0.59608,0.86523
4.64,0.01956,0.3607,-0.070312,0.59608,0.88477
4.648,0.017115,0.35386,-0.080078,0.59608,0.88867
4.656,0.017115,0.34897,-0.089844,0.59608,0.89453
4.664,0.01467,0.34311,-0.099609,0.59608,0.9043
4.672,0.012225,0.33724,-0.09375,0.59608,0.91016
4.68,0.007335,0.3304,-0.10938,0.60588,0.91016
4.688,0.002445,0.32454,-0.11523,0.61569,0.91016
4.696,-0.00489,0.31867,-0.11914,0.61569,0.91016
4.704,-0.00978,0.31476,-0.11914,0.61961,0.91016
4.712,-0.017115,0.31085,-0.11914,0.62549,0.91016
4.72,-0.02445,0.30792,-0.11914,0.62549,0.91406
4.728,-0.03423,0.30499,-0.11914,0.62549,0.91016
4.736,-0.041565,0.30205,-0.11523,0.63529,0.9043
4.744,-0.0489,0.31672,-0.11914,0.64118,0.9043
4.752,-0.056235,0.34213,-0.11523,0.64118,0.9043
4.76,-0.06357,0.35484,-0.099609,0.64118,0.88867
4.768,-0.070905,0.3607,-0.080078,0.64118,0.87891
4.776,-0.07824,0.36266,-0.054688,0.65098,0.86914
4.784,-0.085575,0.36364,-0.048828,0.66078,0.86914
4.792,-0.09291,0.36266,-0.035156,0.6549,0.85938
4.8,-0.10024,0.36168,0.019531,0.64118,0.83008
4.808,-0.10513,0.35973,0.03125,0.62941,0.81445
4.816,-0.11002,0.35777,0.054688,0.61961,0.80469
4.824,-0.11491,0.35484,0.076172,0.62549,0.78516
4.832,-0.1198,0.35288,0.064453,0.63529,0.78906
4.84,-0.12225,0.35093,0.025391,0.64118,0.80469
4.848,-0.12714,0.34995,-0.0097656,0.63529,0.83398
4.856,-0.12958,0.35093,-0.058594,0.62941,0.86523
4.864,-0.13203,0.35288,-0.09375,0.64118,0.88867
4.872,-0.13203,0.35582,-0.11914,0.64118,0.89453
4.88,-0.13447,0.36168,-0.11914,0.64118,0.90039
4.888,-0.13447,0.37048,-0.11523,0.63529,0.88867
4.896,-0.13203,0.38319,-0.10352,0.62941,0.88867
4.904,-0.13203,0.3998,-0.11914,0.62941,0.89453
4.912,-0.12958,0.42033,-0.11914,0.65098,0.89453
4.92,-0.12958,0.44379,-0.064453,0.67647,0.85938
4.928,-0.12714,0.47116,0.17969,0.43529,0.75391
4.936,-0.12469,0.50049,0.51953,0.30392,0.56055
4.944,-0.12225,0.52981,0.76953,0.41569,0.36523
4.952,-0.1198,0.55621,0.7793,0.4902,0.33984
4.96,-0.11736,0.57967,0.23047,0.62549,0.6543
4.968,-0.11491,0.60508,-0.039062,0.64118,0.84961
4.976,-0.11247,0.63148,-0.12891,0.60588,0.91406
4.984,-0.11002,0.65591,-0.16016,0.6451,0.92969
4.992,-0.10758,0.67937,-0.16406,0.67059,0.92969
5,-0.10513,0.70186,-0.16406,0.68039,0.92383
5.008,-0.10269,0.72141,-0.16406,0.68627,0.91992
5.016,-0.10024,0.739,-0.16406,0.6902,0.92383
5.024,-0.0978,0.75367,-0.16406,0.6902,0.92383
5.032,-0.0978,0.76735,-0.14844,0.67647,0.91992
5.04,-0.095355,0.77908,-0.14453,0.67647,0.91016
5.048,-0.095355,0.78788,-0.12891,0.67059,0.90039
5.056,-0.09291,0.79277,-0.11914,0.67059,0.88867
5.064,-0.090465,0.79961,-0.10352,0.68039,0.88867
5.072,-0.08802,0.8045,-0.099609,0.68039,0.88477
5.08,-0.08802,0.80743,-0.089844,0.68627,0.87891
5.088,-0.085575,0.80841,-0.074219,0.68627,0.86523
5.096,-0.085575,0.80645,-0.064453,0.68627,0.85938
5.104,-0.08313,0.80156,-0.039062,0.6902,0.83984
5.112,-0.08313,0.79374,-0.019531,0.69608,0.82031
5.12,-0.080685,0.78397,0,0.7,0.81055
5.128,-0.080685,0.77224,0.015625,0.7098,0.79492
5.136,-0.07824,0.75953,0.041016,0.71569,0.7793
5.144,-0.075795,0.74585,0.080078,0.72549,0.75977
5.152,-0.07335,0.73314,0.10547,0.73529,0.74023
5.16,-0.070905,0.72043,0.13086,0.7451,0.7207
5.168,-0.06846,0.70577,0.15625,0.75098,0.69922
5.176,-0.066015,0.69013,0.18945,0.76078,0.68555
5.184,-0.061125,0.67449,0.21484,0.76078,0.66992
5.192,-0.056235,0.65787,0.23047,0.75098,0.66016
5.2,-0.051345,0.64125,0.23047,0.7451,0.66406
5.208,-0.046455,0.62561,0.21484,0.73137,0.67578
5.216,-0.041565,0.60899,0.20117,0.7098,0.68945
5.224,-0.03912,0.59238,0.17578,0.69608,0.70508
5.232,-0.03423,0.57478,0.13477,0.68039,0.73047
5.24,-0.02934,0.55816,0.11133,0.66078,0.75391
5.248,-0.02445,0.54448,0.085938,0.6451,0.77539
5.256,-0.01956,0.53177,0.041016,0.64118,0.79883
5.264,-0.01467,0.51906,0.019531,0.61961,0.81445
5.272,-0.012225,0.50635,-0.0039062,0.62549,0.83008
5.28,-0.007335,0.49462,-0.029297,0.62549,0.84375
5.288,-0.00489,0.48289,-0.044922,0.62941,0.85547
5.296,-0.002445,0.47312,-0.070312,0.63529,0.86914
5.304,-0.002445,0.46334,-0.074219,0.63529,0.875
5.312,-0.002445,0.45455,-0.080078,0.64118,0.875
5.32,-0.002445,0.44477,-0.089844,0.65098,0.88477
5.328,-0.002445,0.43597,-0.083984,0.6451,0.87891
5.336,-0.00489,0.42815,-0.074219,0.6451,0.875
5.344,-0.00489,0.42131,-0.083984,0.65098,0.87891
5.352,-0.007335,0.41544,-0.089844,0.6451,0.88867
5.36,-0.00978,0.41153,-0.083984,0.6549,0.88867
5.368,-0.01467,0.40567,-0.080078,0.65098,0.88477
5.376,-0.017115,0.3998,-0.074219,0.6549,0.88477
5.384,-0.01956,0.39394,-0.083984,0.66078,0.88477
5.392,-0.02445,0.38807,-0.089844,0.66471,0.87891
5.4,-0.02934,0.38221,-0.080078,0.66471,0.875
5.408,-0.031785,0.3783,-0.058594,0.66471,0.86523
5.416,-0.036675,0.37537,-0.035156,0.66471,0.85547
5.424,-0.041565,0.37146,-0.019531,0.67059,0.83984
5.432,-0.04401,0.36755,-0.0039062,0.66471,0.83398
5.44,-0.046455,0.36364,0.015625,0.66471,0.82422
5.448,-0.0489,0.3607,0.035156,0.6549,0.81445
5.456,-0.051345,0.35875,0.03125,0.65098,0.80469
5.464,-0.05379,0.35679,0.080078,0.6451,0.78516
5.472,-0.05379,0.35386,0.085938,0.66078,0.76953
5.48,-0.05379,0.35191,0.050781,0.66471,0.79492
5.488,-0.05379,0.34995,0.0097656,0.6549,0.82422
5.496,-0.051345,0.34995,-0.035156,0.65098,0.85547
5.504,-0.051345,0.35191,-0.080078,0.6451,0.875
5.512,-0.0489,0.35679,-0.10352,0.65098,0.88867
5.52,-0.046455,0.36559,-0.11914,0.6451,0.9043
5.528,-0.04401,0.37732,-0.125,0.6451,0.90039
5.536,-0.041565,0.39296,-0.12891,0.65098,0.91016
5.544,-0.03912,0.41349,-0.11914,0.65098,0.9043
5.552,-0.036675,0.43402,-0.11523,0.66078,0.90039
5.56,-0.03423,0.45552,-0.11914,0.69608,0.88477
5.568,-0.031785,0.48094,0.060547,0.5549,0.81445
5.576,-0.026895,0.50929,0.375,0.37059,0.64453
5.584,-0.022005,0.53861,0.68555,0.34902,0.42578
5.592,-0.01956,0.56891,0.74023,0.52549,0.36523
5.6,-0.01467,0.59922,0.34961,0.61961,0.58008
5.608,-0.012225,0.62952,0.03125,0.65098,0.79883
5.616,-0.007335,0.65787,-0.089844,0.6098,0.89453
5.624,-0.00489,0.68426,-0.13867,0.6549,0.92383
5.632,-0.002445,0.70968,-0.16406,0.67647,0.93945
5.64,0,0.73216,-0.16016,0.68627,0.93555
5.648,0.002445,0.74878,-0.16992,0.6902,0.93945
5.656,0.00489,0.76246,-0.16992,0.68627,0.93945
5.664,0.007335,0.77615,-0.16406,0.68627,0.93555
5.672,0.00978,0.78886,-0.14844,0.68627,0.93555
5.68,0.012225,0.80156,-0.14844,0.68039,0.93555
5.688,0.01467,0.81036,-0.14453,0.68039,0.92383
5.696,0.017115,0.8172,-0.11914,0.68039,0.91016
5.704,0.017115,0.82111,-0.11523,0.68039,0.91016
5.712,0.01956,0.82307,-0.11914,0.68627,0.91016
5.72,0.022005,0.82307,-0.09375,0.68039,0.89453
5.728,0.02445,0.82014,-0.089844,0.68627,0.89453
5.736,0.026895,0.81525,-0.09375,0.6902,0.88867
5.744,0.02934,0.80938,-0.074219,0.69608,0.88867
5.752,0.031785,0.80156,-0.070312,0.69608,0.87891
5.76,0.03423,0.79179,-0.044922,0.69608,0.86523
5.768,0.036675,0.78201,-0.039062,0.7,0.85938
5.776,0.03912,0.77028,-0.0097656,0.7098,0.83984
5.784,0.041565,0.75758,0.015625,0.72157,0.82422
5.792,0.04401,0.74487,0.041016,0.72549,0.80469
5.8,0.046455,0.73021,0.064453,0.73529,0.78906
5.808,0.051345,0.71457,0.089844,0.74118,0.76953
5.816,0.05379,0.69892,0.125,0.7549,0.75
5.824,0.05868,0.68133,0.15625,0.7549,0.74023
5.832,0.06357,0.66471,0.16016,0.76078,0.73438
5.84,0.06846,0.64809,0.16016,0.7549,0.73047
5.848,0.070905,0.63245,0.17969,0.73529,0.72461
5.856,0.075795,0.61779,0.16016,0.71569,0.73438
5.864,0.080685,0.60215,0.13477,0.70588,0.75391
5.872,0.08313,0.58553,0.099609,0.6902,0.7793
5.88,0.08802,0.56989,0.080078,0.66078,0.79492
5.888,0.090465,0.55425,0.044922,0.6451,0.82031
5.896,0.095355,0.53959,0.015625,0.62941,0.84375
5.904,0.0978,0.5259,-0.013672,0.61569,0.86523
5.912,0.10024,0.5132,-0.035156,0.61569,0.87891
5.92,0.10269,0.50147,-0.058594,0.61569,0.89453
5.928,0.10513,0.48974,-0.083984,0.61961,0.91016
5.936,0.10758,0.47996,-0.089844,0.61569,0.91016
5.944,0.10758,0.47116,-0.10352,0.61961,0.91406
5.952,0.11002,0.46334,-0.10352,0.62941,0.91992
5.96,0.11002,0.45748,-0.11523,0.64118,0.92383
5.968,0.11002,0.45064,-0.10352,0.64118,0.91406
5.976,0.10758,0.44282,-0.11914,0.65098,0.91992
5.984,0.10513,0.43597,-0.10352,0.6451,0.91406
5.992,0.10269,0.42815,-0.11523,0.65098,0.91992
6,0.10024,0.42131,-0.11523,0.66078,0.91406
6.008,0.095355,0.41447,-0.10352,0.6549,0.91406
6.016,0.09291,0.40762,-0.10938,0.66471,0.91992
6.024,0.090465,0.40176,-0.125,0.67059,0.92383
6.032,0.08802,0.39492,-0.11914,0.66471,0.92969
6.04,0.08313,0.38905,-0.09375,0.66471,0.91016
6.048,0.080685,0.38416,-0.080078,0.66471,0.90039
6.056,0.075795,0.38123,-0.089844,0.68039,0.89453
6.064,0.070905,0.3783,-0.054688,0.68039,0.87891
6.072,0.06846,0.37634,-0.044922,0.68039,0.875
6.08,0.066015,0.37341,-0.048828,0.68627,0.86523
6.088,0.061125,0.37048,0.015625,0.67647,0.83984
6.096,0.05868,0.36852,0.019531,0.66471,0.83984
6.104,0.05868,0.36559,0.050781,0.6549,0.82031
6.112,0.056235,0.36266,0.060547,0.66078,0.81055
6.12,0.056235,0.3607,0.041016,0.67059,0.81445
6.128,0.056235,0.35875,0.0097656,0.66471,0.83398
6.136,0.056235,0.35875,-0.044922,0.66471,0.86914
6.144,0.056235,0.35973,-0.09375,0.66078,0.9043
6.152,0.056235,0.36266,-0.11914,0.6549,0.91406
6.16,0.05868,0.36852,-0.13867,0.6451,0.93555
6.168,0.061125,0.37634,-0.14453,0.65098,0.93555
6.176,0.061125,0.38905,-0.14453,0.6549,0.93555
6.184,0.06357,0.40665,-0.13477,0.6451,0.92969
6.192,0.066015,0.42717,-0.13867,0.6549,0.93555
6.2,0.06846,0.45064,-0.12891,0.67647,0.92383
6.208,0.070905,0.47801,-0.048828,0.7,0.87891
6.216,0.075795,0.50831,0.17969,0.44902,0.7793
6.224,0.07824,0.53861,0.5,0.3549,0.58008
6.232,0.080685,0.56989,0.67969,0.50588,0.41602
6.24,0.085575,0.6002,0.53906,0.56078,0.49023
6.248,0.08802,0.62659,0.14453,0.6451,0.73047
6.256,0.090465,0.64907,-0.054688,0.60588,0.89453
6.264,0.09291,0.67253,-0.14453,0.6451,0.95508
6.272,0.0978,0.69501,-0.16406,0.66471,0.95898
6.28,0.10024,0.71652,-0.16406,0.68039,0.95898
6.288,0.10269,0.73509,-0.16406,0.68627,0.95508
6.296,0.10513,0.75269,-0.16992,0.6902,0.95898
6.304,0.10758,0.76833,-0.16406,0.6902,0.95898
6.312,0.11002,0.78201,-0.18359,0.6902,0.95898
6.32,0.11247,0.79374,-0.16992,0.6902,0.96484
6.328,0.11247,0.80352,-0.14844,0.68627,0.93945
6.336,0.11491,0.81134,-0.13867,0.68039,0.93555
6.344,0.11736,0.81525,-0.13477,0.68627,0.93945
6.352,0.1198,0.81623,-0.13867,0.6902,0.93555
6.36,0.12225,0.81525,-0.125,0.6902,0.92969
6.368,0.12225,0.81232,-0.11914,0.6902,0.92969
6.376,0.12469,0.80841,-0.10352,0.69608,0.91406
6.384,0.12714,0.80156,-0.09375,0.69608,0.91016
6.392,0.12714,0.79374,-0.083984,0.7,0.91016
6.4,0.12958,0.78299,-0.070312,0.7,0.89453
6.408,0.13203,0.77126,-0.058594,0.7098,0.88867
6.416,0.13203,0.75855,-0.048828,0.71569,0.87891
6.424,0.13447,0.74487,-0.0039062,0.71569,0.85938
6.432,0.13447,0.73021,0,0.72549,0.84375
6.44,0.13692,0.71457,0.035156,0.74118,0.82422
6.448,0.13692,0.70088,0.070312,0.7549,0.79492
6.456,0.13936,0.68622,0.085938,0.76078,0.78906
6.464,0.14181,0.67058,0.11523,0.76667,0.76953
6.472,0.14425,0.65396,0.14062,0.77059,0.75391
6.48,0.1467,0.63734,0.14062,0.77059,0.75
6.488,0.14914,0.61975,0.14062,0.76078,0.75391
6.496,0.15159,0.60313,0.14453,0.74118,0.75
6.504,0.15403,0.58749,0.125,0.72157,0.76953
6.512,0.15648,0.57185,0.10547,0.69608,0.78516
6.52,0.15892,0.55621,0.080078,0.68039,0.80469
6.528,0.15892,0.54154,0.054688,0.6549,0.83008
6.536,0.16137,0.52688,0.019531,0.64118,0.85547
6.544,0.16381,0.51515,0,0.62941,0.86914
6.552,0.16381,0.50342,-0.035156,0.61961,0.89453
6.56,0.16626,0.49267,-0.058594,0.61569,0.91016
6.568,0.16626,0.47996,-0.089844,0.61569,0.91992
6.576,0.1687,0.46823,-0.099609,0.62549,0.92969
6.584,0.1687,0.45748,-0.11914,0.63529,0.93555
6.592,0.1687,0.44673,-0.10938,0.64118,0.93555
6.6,0.16626,0.43695,-0.11523,0.64118,0.92969
6.608,0.16626,0.42913,-0.11914,0.6549,0.93555
6.616,0.16381,0.42131,-0.13867,0.66471,0.93945
6.624,0.16381,0.41447,-0.13867,0.66471,0.93945
6.632,0.16137,0.4086,-0.11914,0.66471,0.93555
6.64,0.15892,0.40274,-0.11914,0.66471,0.93555
6.648,0.15648,0.39687,-0.11523,0.66471,0.92969
6.656,0.15159,0.39296,-0.12891,0.66471,0.93945
6.664,0.14914,0.38807,-0.11914,0.67059,0.93555
6.672,0.1467,0.38319,-0.11914,0.67647,0.92969
6.68,0.14425,0.37928,-0.11523,0.67059,0.92969
6.688,0.13936,0.37537,-0.099609,0.67647,0.91992
6.696,0.13692,0.37146,-0.089844,0.68039,0.91406
6.704,0.13447,0.36755,-0.074219,0.68627,0.90039
6.712,0.13203,0.36266,-0.054688,0.6902,0.88867
6.72,0.12958,0.35777,-0.039062,0.6902,0.875
6.728,0.12714,0.35386,-0.0039062,0.68039,0.85938
6.736,0.12714,0.34995,0.025391,0.66471,0.84375
6.744,0.12469,0.34702,0.019531,0.66078,0.83984
6.752,0.12225,0.34506,0.044922,0.66078,0.82422
6.76,0.12225,0.34311,0.054688,0.66471,0.82031
6.768,0.1198,0.34115,0.03125,0.66471,0.83008
6.776,0.1198,0.3392,-0.0039062,0.66078,0.85547
6.784,0.1198,0.33822,-0.064453,0.66078,0.88867
6.792,0.1198,0.31769,-0.09375,0.6549,0.91016
6.8,0.12225,0.28935,-0.11523,0.66078,0.92383
6.808,0.12225,0.28055,-0.13867,0.6549,0.93555
6.816,0.12225,0.28348,-0.14453,0.6451,0.94531
6.824,0.12469,0.29423,-0.14453,0.6549,0.93945
6.832,0.12469,0.31183,-0.14453,0.65098,0.94531
6.84,0.12469,0.33236,-0.12891,0.6549,0.93945
6.848,0.12714,0.35484,-0.11523,0.6902,0.91992
6.856,0.12958,0.37732,0.0058594,0.69608,0.85938
6.864,0.12958,0.40371,0.27539,0.40392,0.73047
6.872,0.13203,0.43304,0.58398,0.36471,0.51562
6.88,0.13447,0.46334,0.66992,0.52549,0.41602
6.888,0.13692,0.49462,0.38086,0.6,0.58398
6.896,0.13692,0.52395,0.070312,0.63529,0.79883
6.904,0.13936,0.5523,-0.10352,0.60588,0.92969
6.912,0.14181,0.57967,-0.16406,0.6451,0.96875
6.92,0.14425,0.60606,-0.16406,0.67059,0.96484
6.928,0.14425,0.62952,-0.18359,0.6902,0.96484
6.936,0.1467,0.65005,-0.16406,0.6902,0.95898
6.944,0.14914,0.66471,-0.16406,0.6902,0.94922
6.952,0.15159,0.67644,-0.14844,0.6902,0.93945
6.96,0.15159,0.68719,-0.16016,0.6902,0.94922
6.968,0.15403,0.69697,-0.1543,0.6902,0.95508
6.976,0.15403,0.70479,-0.14844,0.6902,0.94922
6.984,0.15648,0.70968,-0.14453,0.68627,0.95508
6.992,0.15648,0.71359,-0.14453,0.68039,0.94922
7,0.15648,0.71457,-0.13867,0.68627,0.94531
7.008,0.15892,0.71261,-0.12891,0.68627,0.94531
7.016,0.15892,0.7087,-0.11914,0.6902,0.93555
7.024,0.15892,0.70381,-0.10352,0.69608,0.92383
7.032,0.15892,0.69599,-0.09375,0.7,0.91992
7.04,0.15892,0.68622,-0.083984,0.7,0.91406
7.048,0.15892,0.67546,-0.074219,0.70588,0.9043
7.056,0.15892,0.66471,-0.048828,0.7098,0.88867
7.064,0.16137,0.65298,-0.035156,0.7098,0.875
7.072,0.16137,0.63832,-0.013672,0.72157,0.85938
7.08,0.16137,0.62366,0.0097656,0.73529,0.84375
7.088,0.16381,0.60802,0.041016,0.73529,0.82422
7.096,0.16381,0.59042,0.070312,0.75098,0.81055
7.104,0.16626,0.57283,0.095703,0.76078,0.78516
7.112,0.1687,0.55523,0.11523,0.76078,0.77539
7.12,0.1687,0.53763,0.13086,0.76078,0.76562
7.128,0.17115,0.52004,0.14062,0.7549,0.75977
7.136,0.17359,0.50342,0.15039,0.74118,0.75391
7.144,0.17604,0.48778,0.14453,0.72157,0.76953
7.152,0.17604,0.47507,0.13086,0.7,0.7793
7.16,0.17848,0.46041,0.11133,0.67647,0.79492
7.168,0.18093,0.44575,0.085938,0.6549,0.81445
7.176,0.18337,0.43109,0.054688,0.64118,0.83984
7.184,0.18582,0.4174,0.03125,0.62549,0.85938
7.192,0.18582,0.40469,0.0058594,0.6098,0.875
7.2,0.18826,0.39198,-0.013672,0.60588,0.88867
7.208,0.18826,0.38025,-0.035156,0.6,0.91016
7.216,0.19071,0.36852,-0.048828,0.60588,0.91016
7.224,0.18826,0.35777,-0.064453,0.6,0.91016
7.232,0.18826,0.348,-0.089844,0.61569,0.92383
7.24,0.18826,0.3392,-0.09375,0.61961,0.92969
7.248,0.18582,0.33236,-0.089844,0.61569,0.92383
7.256,0.18093,0.32747,-0.09375,0.61961,0.92383
7.264,0.17848,0.3216,-0.089844,0.61961,0.92383
7.272,0.17115,0.31378,-0.09375,0.62941,0.92969
7.28,0.16626,0.30694,-0.09375,0.62941,0.92383
7.288,0.15892,0.3001,-0.09375,0.63529,0.91992
7.296,0.15403,0.29423,-0.09375,0.65098,0.92383
7.304,0.14425,0.28837,-0.089844,0.6549,0.92383
7.312,0.13692,0.28348,-0.083984,0.65098,0.91992
7.32,0.12714,0.27761,-0.083984,0.6549,0.91016
7.328,0.11736,0.27273,-0.099609,0.66078,0.92383
7.336,0.10758,0.26784,-0.080078,0.6549,0.91406
7.344,0.095355,0.26393,-0.035156,0.6451,0.88867
7.352,0.085575,0.26197,-0.0097656,0.65098,0.875
7.36,0.07335,0.25904,0,0.66078,0.86914
7.368,0.06357,0.25611,0,0.66471,0.86914
7.376,0.05379,0.25318,0.015625,0.67059,0.85547
7.384,0.041565,0.25024,0.050781,0.6549,0.83398
7.392,0.02934,0.24731,0.070312,0.65098,0.82422
7.4,0.017115,0.24438,0.089844,0.6451,0.80469
7.408,0.002445,0.24242,0.095703,0.6549,0.79492
7.416,-0.012225,0.24047,0.050781,0.6549,0.81445
7.424,-0.02445,0.23949,-0.0039062,0.6451,0.85938
7.432,-0.03912,0.24047,-0.058594,0.64118,0.89453
7.44,-0.05379,0.24242,-0.089844,0.64118,0.91406
7.448,-0.066015,0.24731,-0.10938,0.64118,0.92383
7.456,-0.07824,0.25415,-0.13867,0.6451,0.93945
7.464,-0.090465,0.26491,-0.12891,0.64118,0.94531
7.472,-0.10024,0.27859,-0.089844,0.62549,0.91992
7.48,-0.11002,0.29619,-0.070312,0.61961,0.91016
7.488,-0.1198,0.31769,-0.074219,0.6451,0.91016
7.496,-0.12958,0.34311,-0.048828,0.70588,0.88477
7.504,-0.13936,0.37146,0.13086,0.58431,0.79883
7.512,-0.1467,0.40176,0.41992,0.40392,0.64062
7.52,-0.15403,0.43206,0.73438,0.37059,0.42578
7.528,-0.15892,0.46334,0.76953,0.46471,0.38477
7.536,-0.16381,0.49365,0.32031,0.5549,0.64062
7.544,-0.1687,0.51906,0.03125,0.58431,0.84375
7.552,-0.17359,0.54057,-0.080078,0.57059,0.92383
7.56,-0.17604,0.56403,-0.12891,0.64118,0.94531
7.568,-0.17848,0.58749,-0.14844,0.66471,0.95508
7.576,-0.18093,0.60899,-0.16406,0.67647,0.95898
7.584,-0.18337,0.62854,-0.14453,0.66471,0.94531
7.592,-0.18337,0.64614,-0.13867,0.67647,0.93945
7.6,-0.18337,0.6608,-0.14453,0.67647,0.93945
7.608,-0.18582,0.67351,-0.1543,0.68039,0.95508
7.616,-0.18582,0.68328,-0.13867,0.67647,0.93555
7.624,-0.18582,0.69208,-0.11914,0.67647,0.92969
7.632,-0.18582,0.69795,-0.14453,0.68039,0.93555
7.64,-0.18582,0.70088,-0.16406,0.6902,0.94922
7.648,-0.18337,0.70088,-0.13477,0.68039,0.93555
7.656,-0.18337,0.69795,-0.09375,0.67647,0.91406
7.664,-0.18337,0.69306,-0.083984,0.67647,0.91016
7.672,-0.18337,0.68524,-0.089844,0.68627,0.9043
7.68,-0.18093,0.67644,-0.070312,0.6902,0.89453
7.688,-0.18093,0.66471,-0.054688,0.68627,0.88867
7.696,-0.17848,0.65298,-0.048828,0.6902,0.88477
7.704,-0.17604,0.63832,-0.035156,0.69608,0.875
7.712,-0.17604,0.62366,-0.029297,0.70588,0.86523
7.72,-0.17359,0.60704,0.025391,0.6902,0.83398
7.728,-0.17359,0.58944,0.044922,0.7098,0.81445
7.736,-0.17359,0.57185,0.041016,0.73137,0.82031
7.744,-0.17115,0.55621,0.089844,0.73529,0.79492
7.752,-0.17115,0.54057,0.16016,0.7098,0.74414
7.76,-0.17115,0.52297,0.17969,0.71569,0.73438
7.768,-0.17115,0.50538,0.15039,0.72549,0.75
7.776,-0.17115,0.48778,0.14062,0.71569,0.75977
7.784,-0.17115,0.47019,0.17969,0.6902,0.74023
7.792,-0.17115,0.45259,0.18555,0.68039,0.74414
7.8,-0.17115,0.43597,0.099609,0.67059,0.79492
7.808,-0.17359,0.42033,0.085938,0.64118,0.80469
7.816,-0.17359,0.40567,0.16016,0.6,0.76953
7.824,-0.17604,0.39101,0.076172,0.6098,0.82422
7.832,-0.17604,0.37634,-0.029297,0.61961,0.88477
7.84,-0.17848,0.36266,-0.029297,0.6,0.88867
7.848,-0.17848,0.35191,-0.025391,0.5902,0.88477
7.856,-0.18093,0.34115,-0.054688,0.58431,0.9043
7.864,-0.18337,0.3304,-0.089844,0.59608,0.92383
7.872,-0.18826,0.31769,-0.11523,0.6,0.93555
7.88,-0.19315,0.30596,-0.10938,0.60588,0.93555
7.888,-0.19804,0.29423,-0.10352,0.6098,0.92969
7.896,-0.20538,0.28348,-0.099609,0.61569,0.93555
7.904,-0.21027,0.27273,-0.09375,0.6098,0.92969
7.912,-0.2176,0.26295,-0.16016,0.61961,0.95898
7.92,-0.22494,0.25513,-0.16406,0.62549,0.96484
7.928,-0.22983,0.24731,-0.09375,0.6098,0.92383
7.936,-0.23716,0.24047,-0.11523,0.62549,0.93555
7.944,-0.24205,0.23558,-0.11914,0.63529,0.93945
7.952,-0.24694,0.23265,-0.12891,0.64118,0.93555
7.96,-0.25183,0.22874,-0.13477,0.6451,0.92969
7.968,-0.25672,0.22385,-0.074219,0.64118,0.91016
7.976,-0.26161,0.21896,-0.10938,0.64118,0.92969
7.984,-0.2665,0.21505,-0.12891,0.6451,0.93945
7.992,-0.26895,0.20919,-0.074219,0.64118,0.91016
8,-0.27139,0.2043,-0.029297,0.64118,0.87891
8.008,-0.27384,0.20039,-0.048828,0.6451,0.88867
8.016,-0.27628,0.19648,-0.058594,0.65098,0.89453
8.024,-0.27628,0.19257,0.015625,0.63529,0.85938
8.032,-0.27873,0.18866,0.050781,0.62549,0.83398
8.04,-0.27873,0.18475,0.035156,0.62941,0.83984
8.048,-0.27628,0.18377,0.064453,0.62549,0.81445
8.056,-0.27628,0.1828,0.070312,0.62941,0.80469
8.064,-0.27384,0.18084,0.015625,0.63529,0.83984
8.072,-0.27139,0.17889,-0.054688,0.64118,0.88477
8.08,-0.26895,0.17693,-0.09375,0.61569,0.91016
8.088,-0.2665,0.17693,-0.09375,0.60588,0.91016
8.096,-0.26161,0.17791,-0.089844,0.6098,0.92383
8.104,-0.25917,0.18182,-0.125,0.61569,0.92969
8.112,-0.25428,0.18866,-0.1543,0.61961,0.93945
8.12,-0.25183,0.19941,-0.14453,0.62549,0.93555
8.128,-0.24694,0.21408,-0.10938,0.6098,0.92383
8.136,-0.24205,0.23265,-0.11914,0.64118,0.92969
8.144,-0.23716,0.25318,-0.064453,0.6902,0.87891
8.152,-0.23227,0.27468,0.17969,0.51961,0.76953
8.16,-0.22983,0.3001,0.56445,0.3451,0.55469
8.168,-0.22494,0.32942,0.81445,0.32353,0.38477
8.176,-0.22005,0.35875,0.70898,0.38431,0.375
8.184,-0.21516,0.38905,0.24609,0.49412,0.70508
8.192,-0.21027,0.41838,-0.0039062,0.53922,0.86914
8.2,-0.20538,0.44673,-0.12891,0.58431,0.93945
8.208,-0.20049,0.4741,-0.16406,0.62941,0.95508
8.216,-0.19804,0.50049,-0.18945,0.65098,0.95898
8.224,-0.19315,0.52493,-0.21484,0.66471,0.96875
8.232,-0.18826,0.54643,-0.18359,0.65098,0.95508
8.24,-0.18582,0.56403,-0.16406,0.6549,0.93945
8.248,-0.18093,0.57771,-0.17969,0.66471,0.94531
8.256,-0.17848,0.5914,-0.17383,0.67059,0.94922
8.264,-0.17604,0.60411,-0.16016,0.66078,0.93945
8.272,-0.17359,0.61388,-0.1543,0.66471,0.93555
8.28,-0.17115,0.6217,-0.17969,0.67059,0.94531
8.288,-0.1687,0.62561,-0.13867,0.66078,0.92383
8.296,-0.16626,0.62757,-0.12891,0.66078,0.91406
8.304,-0.16626,0.62561,-0.14844,0.66471,0.91992
8.312,-0.16381,0.62268,-0.1543,0.67059,0.92383
8.32,-0.16137,0.61681,-0.11914,0.66471,0.91016
8.328,-0.15892,0.60997,-0.11914,0.67059,0.91016
8.336,-0.15648,0.60117,-0.083984,0.66471,0.88867
8.344,-0.15403,0.59238,-0.058594,0.66078,0.875
8.352,-0.15159,0.5826,-0.039062,0.66471,0.85938
8.36,-0.14914,0.57185,-0.025391,0.66078,0.84961
8.368,-0.14425,0.55914,-0.035156,0.6902,0.83398
8.376,-0.14181,0.54448,0.025391,0.6902,0.81055
8.384,-0.13692,0.52884,0.054688,0.6902,0.78906
8.392,-0.13203,0.5132,0.085938,0.7,0.76953
8.4,-0.12714,0.4956,0.14453,0.6902,0.73047
8.408,-0.12225,0.47898,0.16016,0.6902,0.7207
8.416,-0.11736,0.46237,0.15625,0.69608,0.72461
8.424,-0.11491,0.44575,0.15039,0.68039,0.72461
8.432,-0.11002,0.42815,0.16992,0.66078,0.7207
8.44,-0.10758,0.41349,0.16016,0.6451,0.73047
8.448,-0.10269,0.3998,0.12109,0.63529,0.75391
8.456,-0.0978,0.38514,0.085938,0.61961,0.7793
8.464,-0.095355,0.3695,0.054688,0.6098,0.79492
8.472,-0.090465,0.35484,0.03125,0.59608,0.81445
8.48,-0.08802,0.34018,0.0058594,0.5902,0.83008
8.488,-0.08313,0.32649,-0.025391,0.58039,0.84375
8.496,-0.080685,0.31281,-0.054688,0.58431,0.85938
8.504,-0.07824,0.30108,-0.074219,0.5902,0.86914
8.512,-0.075795,0.28935,-0.089844,0.59608,0.87891
8.52,-0.075795,0.27859,-0.099609,0.59608,0.88477
8.528,-0.07335,0.26882,-0.11523,0.59608,0.88867
8.536,-0.07335,0.25904,-0.125,0.60588,0.90039
8.544,-0.07335,0.2522,-0.13867,0.6098,0.9043
8.552,-0.07335,0.24633,-0.125,0.60588,0.89453
8.56,-0.075795,0.23851,-0.11914,0.60588,0.88867
8.568,-0.075795,0.23069,-0.11914,0.61569,0.88867
8.576,-0.075795,0.22287,-0.12891,0.61961,0.88477
8.584,-0.07824,0.21701,-0.11914,0.61961,0.875
8.592,-0.07824,0.21017,-0.10938,0.62549,0.86914
8.6,-0.080685,0.20528,-0.10938,0.62941,0.86914
8.608,-0.08313,0.20137,-0.099609,0.63529,0.86523
8.616,-0.085575,0.19844,-0.09375,0.63529,0.85938
8.624,-0.085575,0.1955,-0.09375,0.64118,0.85547
8.632,-0.08802,0.19257,-0.074219,0.64118,0.83984
8.64,-0.090465,0.19159,-0.054688,0.64118,0.82422
8.648,-0.090465,0.19062,-0.035156,0.6451,0.81445
8.656,-0.09291,0.18866,-0.0097656,0.64118,0.80469
8.664,-0.09291,0.18671,0.015625,0.63529,0.79492
8.672,-0.09291,0.18377,0.041016,0.62549,0.7793
8.68,-0.095355,0.17986,0.044922,0.61961,0.77539
8.688,-0.095355,0.17693,0.070312,0.61569,0.75391
8.696,-0.095355,0.174,0.080078,0.62549,0.74414
8.704,-0.095355,0.17107,0.060547,0.62941,0.74414
8.712,-0.095355,0.16911,0.03125,0.62549,0.76562
8.72,-0.095355,0.16716,-0.019531,0.62549,0.79492
8.728,-0.09291,0.16716,-0.064453,0.61961,0.82422
8.736,-0.09291,0.16716,-0.09375,0.62549,0.83984
8.744,-0.090465,0.16911,-0.099609,0.61961,0.84375
8.752,-0.090465,0.17302,-0.11523,0.62549,0.85547
8.76,-0.08802,0.17791,-0.11523,0.61961,0.84961
8.768,-0.08802,0.18671,-0.10938,0.62549,0.84375
8.776,-0.085575,0.19941,-0.099609,0.62941,0.83984
8.784,-0.08313,0.21701,-0.09375,0.66471,0.83398
8.792,-0.080685,0.23754,0.041016,0.58431,0.76953
8.8,-0.080685,0.26197,0.32031,0.38431,0.62891
8.808,-0.07824,0.28837,0.66992,0.32941,0.40039
8.816,-0.075795,0.31769,0.81445,0.43529,0.2793
8.824,-0.07335,0.348,0.57422,0.48039,0.41992
8.832,-0.070905,0.3783,0.15039,0.5902,0.66406
8.84,-0.06846,0.42033,-0.048828,0.59608,0.81055
8.848,-0.066015,0.46628,-0.12891,0.62941,0.85938
8.856,-0.06357,0.50244,-0.13867,0.65098,0.86523
8.864,-0.05868,0.53275,-0.13867,0.66471,0.84961
8.872,-0.056235,0.55914,-0.14453,0.66471,0.84961
8.88,-0.05379,0.58358,-0.13867,0.67059,0.84961
8.888,-0.05379,0.60606,-0.13477,0.67647,0.83984
8.896,-0.051345,0.62561,-0.125,0.67059,0.83984
8.904,-0.0489,0.64418,-0.11914,0.66471,0.83984
8.912,-0.046455,0.65982,-0.12891,0.66471,0.83984
8.92,-0.046455,0.67253,-0.11914,0.66078,0.83984
8.928,-0.04401,0.68328,-0.10352,0.66078,0.83008
8.936,-0.041565,0.6911,-0.099609,0.66471,0.82422
8.944,-0.041565,0.69501,-0.080078,0.66471,0.81055
8.952,-0.03912,0.69697,-0.074219,0.66471,0.79883
8.96,-0.03912,0.69697,-0.070312,0.66471,0.80469
8.968,-0.036675,0.69599,-0.048828,0.67059,0.78906
8.976,-0.036675,0.69306,-0.029297,0.66471,0.7793
8.984,-0.036675,0.68915,-0.025391,0.67059,0.7793
8.992,-0.03423,0.68328,-0.0097656,0.68039,0.75977
9,-0.03423,0.67644,0.015625,0.68039,0.74414
9.008,-0.03423,0.66764,0.035156,0.6902,0.73047
9.016,-0.03423,0.65787,0.060547,0.69608,0.71484
9.024,-0.03423,0.64712,0.085938,0.7098,0.69531
9.032,-0.036675,0.63539,0.125,0.7098,0.67578
9.04,-0.036675,0.62463,0.16016,0.72157,0.65039
9.048,-0.036675,0.6129,0.18945,0.73137,0.62891
9.056,-0.036675,0.60117,0.20508,0.73137,0.61914
9.064,-0.03912,0.58944,0.21484,0.71569,0.60938
9.072,-0.03912,0.57674,0.21094,0.7098,0.61523
9.08,-0.03912,0.565,0.20117,0.69608,0.625
9.088,-0.03912,0.5523,0.18555,0.68039,0.64062
9.096,-0.041565,0.53959,0.16992,0.66078,0.65039
9.104,-0.041565,0.52688,0.14062,0.6451,0.66992
9.112,-0.041565,0.51515,0.10547,0.62941,0.69922
9.12,-0.041565,0.50244,0.064453,0.61569,0.72461
9.128,-0.04401,0.49071,0.044922,0.6098,0.73438
9.136,-0.04401,0.47996,0.025391,0.59608,0.74414
9.144,-0.04401,0.47116,-0.0097656,0.6,0.76953
9.152,-0.046455,0.46432,-0.044922,0.6098,0.78516
9.16,-0.046455,0.4565,-0.044922,0.6098,0.78906
9.168,-0.0489,0.44868,-0.035156,0.6098,0.78516
9.176,-0.051345,0.44086,-0.058594,0.61569,0.79492
9.184,-0.05379,0.43304,-0.070312,0.61961,0.79883
9.192,-0.05868,0.42424,-0.080078,0.62941,0.79883
9.2,-0.061125,0.4174,-0.070312,0.62941,0.79492
9.208,-0.066015,0.40958,-0.064453,0.63529,0.79492
9.216,-0.06846,0.40371,-0.074219,0.63529,0.80469
9.224,-0.07335,0.39687,-0.080078,0.63529,0.79883
9.232,-0.075795,0.39101,-0.074219,0.64118,0.81055
9.24,-0.080685,0.38612,-0.083984,0.6451,0.79883
9.248,-0.08313,0.38221,-0.074219,0.65098,0.79492
9.256,-0.08802,0.37732,-0.058594,0.6451,0.78906
9.264,-0.090465,0.37341,-0.048828,0.65098,0.78516
9.272,-0.095355,0.36852,-0.039062,0.66078,0.77539
9.28,-0.0978,0.36559,-0.0039062,0.66078,0.75391
9.288,-0.10024,0.36266,0.015625,0.66471,0.74414
9.296,-0.10269,0.35973,0.019531,0.67059,0.74023
9.304,-0.10513,0.35679,0.044922,0.67647,0.72461
9.312,-0.10513,0.35288,0.070312,0.66471,0.71484
9.32,-0.10758,0.34995,0.095703,0.65098,0.69922
9.328,-0.11002,0.34604,0.11133,0.6549,0.68555
9.336,-0.11002,0.34311,0.089844,0.66471,0.68555
9.344,-0.11002,0.34213,0.064453,0.67059,0.70508
9.352,-0.11002,0.34018,0.035156,0.66471,0.72461
9.36,-0.11002,0.3392,-0.013672,0.6549,0.76562
9.368,-0.11002,0.3392,-0.064453,0.65098,0.78906
9.376,-0.10758,0.34018,-0.080078,0.66078,0.79492
9.384,-0.10758,0.34311,-0.09375,0.66078,0.80469
9.392,-0.10513,0.34897,-0.074219,0.6549,0.79492
9.4,-0.10269,0.35777,-0.080078,0.65098,0.79492
9.408,-0.0978,0.37048,-0.074219,0.65098,0.79492
9.416,-0.095355,0.38807,-0.074219,0.66471,0.79492
9.424,-0.09291,0.4086,-0.035156,0.6902,0.76953
9.432,-0.090465,0.43304,0.17578,0.48431,0.67969
9.44,-0.085575,0.4565,0.5,0.33922,0.5
9.448,-0.08313,0.47898,0.76562,0.4451,0.29102
9.456,-0.07824,0.50538,0.78516,0.52941,0.25586
9.464,-0.075795,0.53372,0.30078,0.65098,0.52539
9.472,-0.070905,0.56207,0.025391,0.66471,0.72461
9.48,-0.06846,0.59042,-0.080078,0.62549,0.81445
9.488,-0.066015,0.61779,-0.10938,0.67059,0.83398
9.496,-0.06357,0.64321,-0.11523,0.6902,0.82422
9.504,-0.05868,0.66764,-0.125,0.7,0.83008
9.512,-0.056235,0.68915,-0.11914,0.6902,0.82422
9.52,-0.05379,0.70968,-0.125,0.69608,0.83008
9.528,-0.051345,0.72727,-0.11914,0.6902,0.83008
9.536,-0.0489,0.74194,-0.11914,0.69608,0.82031
9.544,-0.046455,0.75269,-0.099609,0.69608,0.81445
9.552,-0.04401,0.76051,-0.09375,0.6902,0.81445
9.56,-0.041565,0.76833,-0.089844,0.6902,0.81445
9.568,-0.03912,0.77322,-0.083984,0.69608,0.81055
9.576,-0.036675,0.77713,-0.074219,0.6902,0.80469
9.584,-0.03423,0.7781,-0.080078,0.69608,0.80469
9.592,-0.031785,0.7781,-0.064453,0.6902,0.79883
9.6,-0.031785,0.77517,-0.048828,0.69608,0.79492
9.608,-0.02934,0.77126,-0.035156,0.7,0.78516
9.616,-0.02934,0.7654,-0.019531,0.7,0.76953
9.624,-0.026895,0.75758,-0.013672,0.7098,0.76953
9.632,-0.02445,0.7478,0.0058594,0.71569,0.75391
9.64,-0.022005,0.739,0.025391,0.7098,0.74414
9.648,-0.01956,0.72923,0.054688,0.73137,0.73047
9.656,-0.01467,0.7175,0.076172,0.73529,0.71484
9.664,-0.012225,0.70479,0.11523,0.7451,0.68945
9.672,-0.007335,0.69013,0.14062,0.75098,0.66992
9.68,-0.002445,0.67449,0.16016,0.76078,0.66016
9.688,0,0.65885,0.17969,0.76078,0.65039
9.696,0.00489,0.64223,0.19531,0.76667,0.63477
9.704,0.00978,0.62659,0.21094,0.7549,0.63477
9.712,0.01467,0.60997,0.18555,0.7451,0.65039
9.72,0.01956,0.59433,0.18555,0.72549,0.6543
9.728,0.02445,0.57869,0.16602,0.70588,0.66992
9.736,0.031785,0.56305,0.13086,0.68627,0.69922
9.744,0.036675,0.55034,0.11133,0.66078,0.71484
9.752,0.03912,0.53763,0.076172,0.64118,0.74414
9.76,0.04401,0.52395,0.035156,0.62941,0.76953
9.768,0.046455,0.51124,0.019531,0.61961,0.78516
9.776,0.051345,0.49853,-0.019531,0.62549,0.80469
9.784,0.051345,0.48583,-0.054688,0.62549,0.82031
9.792,0.05379,0.47507,-0.064453,0.62549,0.83008
9.8,0.056235,0.46334,-0.074219,0.62549,0.83984
9.808,0.05868,0.45259,-0.074219,0.63529,0.83984
9.816,0.05868,0.44379,-0.074219,0.64118,0.83984
9.824,0.05868,0.435,-0.070312,0.6451,0.83398
9.832,0.056235,0.4262,-0.099609,0.6549,0.84375
9.84,0.056235,0.41935,-0.089844,0.65098,0.84375
9.848,0.05379,0.41349,-0.080078,0.66078,0.83984
9.856,0.051345,0.40665,-0.089844,0.66471,0.83984
9.864,0.0489,0.40078,-0.083984,0.66471,0.83984
9.872,0.046455,0.39492,-0.09375,0.66471,0.84961
9.88,0.041565,0.39003,-0.080078,0.66471,0.83984
9.888,0.03912,0.38514,-0.074219,0.66471,0.83984
9.896,0.03423,0.38123,-0.089844,0.67059,0.84961
9.904,0.031785,0.37634,-0.070312,0.67059,0.83008
9.912,0.02934,0.37146,-0.048828,0.67647,0.82031
9.92,0.02445,0.36657,-0.029297,0.68039,0.81445
9.928,0.022005,0.36266,-0.0097656,0.68627,0.79883
9.936,0.01956,0.35973,-0.013672,0.6902,0.80469
9.944,0.01956,0.35777,0.035156,0.68039,0.77539
9.952,0.017115,0.35679,0.050781,0.66471,0.76953
9.96,0.017115,0.35484,0.044922,0.66471,0.76562
9.968,0.017115,0.35191,0.085938,0.66471,0.74414
9.976,0.017115,0.34995,0.050781,0.67647,0.75977
9.984,0.01956,0.348,0.035156,0.67647,0.76953
9.992,0.022005,0.34702,0,0.67059,0.79883
10,0.02445,0.34604,-0.029297,0.66471,0.82031
10.008,0.026895,0.34604,-0.089844,0.67059,0.85547
10.016,0.02934,0.34995,-0.099609,0.66471,0.86523
10.024,0.031785,0.35484,-0.10938,0.66471,0.86523
10.032,0.03423,0.36461,-0.099609,0.66471,0.86523
10.04,0.03912,0.37537,-0.10352,0.66471,0.86523
10.048,0.041565,0.38807,-0.11523,0.66471,0.86523
10.056,0.046455,0.40567,-0.09375,0.67647,0.86523
10.064,0.051345,0.42717,-0.019531,0.70588,0.81445
10.072,0.056235,0.45161,0.18945,0.4902,0.72461
10.08,0.061125,0.47801,0.51562,0.37451,0.5293
10.088,0.066015,0.50635,0.73047,0.49412,0.3457
10.096,0.070905,0.5347,0.60938,0.57451,0.33008
10.104,0.07335,0.56403,0.20508,0.67059,0.64453
10.112,0.07824,0.5914,-0.029297,0.64118,0.82422
10.12,0.08313,0.61877,-0.099609,0.63529,0.87891
10.128,0.08802,0.64516,-0.11914,0.68039,0.88867
10.136,0.09291,0.66667,-0.13867,0.7,0.88867
10.144,0.0978,0.68426,-0.1543,0.7098,0.90039
10.152,0.10024,0.70283,-0.11914,0.7,0.88867
10.16,0.10513,0.71945,-0.13477,0.7098,0.88867
10.168,0.10758,0.73509,-0.125,0.7098,0.88477
10.176,0.11247,0.7478,-0.11914,0.70588,0.88867
10.184,0.11491,0.75953,-0.11523,0.70588,0.87891
10.192,0.11736,0.76833,-0.11523,0.7098,0.87891
10.2,0.1198,0.77517,-0.10352,0.70588,0.87891
10.208,0.12469,0.77908,-0.09375,0.70588,0.86914
10.216,0.12714,0.78104,-0.089844,0.70588,0.86914
10.224,0.13203,0.78104,-0.080078,0.7098,0.86523
10.232,0.13447,0.77908,-0.058594,0.7,0.85938
10.24,0.13692,0.77517,-0.054688,0.70588,0.85547
10.248,0.14181,0.77028,-0.058594,0.7098,0.84375
10.256,0.14425,0.76344,-0.025391,0.7098,0.83398
10.264,0.1467,0.75562,-0.019531,0.73137,0.82031
10.272,0.14914,0.74585,0.015625,0.72157,0.81055
10.28,0.15403,0.73412,0.025391,0.73137,0.79492
10.288,0.15648,0.72141,0.054688,0.74118,0.7793
10.296,0.16137,0.70772,0.070312,0.75098,0.76953
10.304,0.16626,0.69208,0.10547,0.76078,0.74414
10.312,0.1687,0.67644,0.12109,0.77647,0.73438
10.32,0.17359,0.65982,0.15625,0.77647,0.70898
10.328,0.17848,0.64321,0.17969,0.77647,0.69922
10.336,0.18337,0.62854,0.18945,0.77647,0.68945
10.344,0.18582,0.61388,0.20117,0.76667,0.68555
10.352,0.19071,0.59922,0.19531,0.75098,0.69531
10.36,0.19315,0.58358,0.17578,0.72549,0.71484
10.368,0.19804,0.56794,0.15039,0.7098,0.72461
10.376,0.20293,0.55327,0.13086,0.6902,0.75
10.384,0.20782,0.53959,0.085938,0.67059,0.77539
10.392,0.21271,0.5259,0.076172,0.6451,0.79492
10.4,0.21516,0.5132,0.035156,0.64118,0.81445
10.408,0.22005,0.50049,0.0097656,0.62941,0.83398
10.416,0.22249,0.48876,-0.0097656,0.62941,0.84961
10.424,0.22494,0.47703,-0.039062,0.62941,0.86523
10.432,0.22738,0.46628,-0.035156,0.62549,0.85938
10.44,0.22983,0.4565,-0.048828,0.62941,0.86523
10.448,0.23227,0.44868,-0.058594,0.63529,0.875
10.456,0.23227,0.43988,-0.070312,0.64118,0.87891
10.464,0.23227,0.43304,-0.074219,0.65098,0.875
10.472,0.22983,0.42522,-0.064453,0.65098,0.875
10.48,0.22738,0.41838,-0.064453,0.6549,0.875
10.488,0.22494,0.41056,-0.074219,0.66078,0.87891
10.496,0.22494,0.40469,-0.054688,0.66078,0.86914
10.504,0.22249,0.39785,-0.048828,0.66471,0.86523
10.512,0.22005,0.39198,-0.054688,0.66471,0.86523
10.52,0.21516,0.38612,-0.048828,0.67059,0.85938
10.528,0.21271,0.38123,-0.048828,0.67059,0.85938
10.536,0.20782,0.37732,-0.048828,0.67647,0.85938
10.544,0.20538,0.37537,-0.039062,0.67647,0.85547
10.552,0.20049,0.37146,-0.019531,0.67647,0.83984
10.56,0.19804,0.36852,0.015625,0.68039,0.82031
10.568,0.19315,0.36559,0.03125,0.67647,0.81445
10.576,0.19071,0.36266,0.019531,0.68627,0.81055
10.584,0.18582,0.35875,0.080078,0.67647,0.78516
10.592,0.18337,0.35582,0.095703,0.66471,0.77539
10.6,0.18093,0.35191,0.12109,0.66078,0.75391
10.608,0.17848,0.34897,0.13477,0.6549,0.74414
10.616,0.17604,0.34604,0.12109,0.66471,0.74414
10.624,0.17359,0.34311,0.080078,0.66471,0.76953
10.632,0.17115,0.34115,0.041016,0.6549,0.79492
10.64,0.1687,0.34018,0,0.65098,0.83008
10.648,0.16626,0.34115,-0.035156,0.66078,0.84375
10.656,0.16626,0.34311,-0.058594,0.65098,0.86523
10.664,0.16381,0.34897,-0.074219,0.6451,0.875
10.672,0.16381,0.35679,-0.070312,0.6451,0.875
10.68,0.16381,0.36755,-0.048828,0.64118,0.86523
10.688,0.16381,0.38221,-0.054688,0.65098,0.86523
10.696,0.16626,0.40078,-0.039062,0.66471,0.85938
10.704,0.16626,0.42229,0.044922,0.69608,0.80469
10.712,0.16626,0.44673,0.27539,0.4451,0.69531
10.72,0.1687,0.47312,0.5957,0.3549,0.49414
10.728,0.1687,0.50147,0.76562,0.4902,0.33594
10.736,0.1687,0.5259,0.5957,0.56471,0.42578
10.744,0.1687,0.54936,0.21484,0.64118,0.66406
10.752,0.1687,0.57478,0.025391,0.59608,0.82031
10.76,0.1687,0.60117,-0.054688,0.63529,0.86523
10.768,0.17115,0.62659,-0.070312,0.66078,0.875
10.776,0.17115,0.65005,-0.070312,0.67059,0.86914
10.784,0.17115,0.67058,-0.064453,0.67059,0.86523
10.792,0.17115,0.69013,-0.074219,0.67059,0.86523
10.8,0.17115,0.70674,-0.074219,0.67059,0.875
10.808,0.17115,0.72141,-0.064453,0.67647,0.86523
10.816,0.17115,0.73412,-0.054688,0.67059,0.85938
10.824,0.17115,0.74487,-0.044922,0.67059,0.85547
10.832,0.17115,0.75367,-0.048828,0.66471,0.84961
10.84,0.17115,0.75855,-0.025391,0.66471,0.83984
10.848,0.17115,0.76051,-0.019531,0.66471,0.83984
10.856,0.17115,0.76246,-0.019531,0.66471,0.83984
10.864,0.17115,0.76149,-0.0039062,0.66471,0.83398
10.872,0.1687,0.75855,-0.0039062,0.66471,0.83984
10.88,0.1687,0.75269,0.015625,0.67059,0.81445
10.888,0.1687,0.73412,0.03125,0.67647,0.81055
10.896,0.1687,0.70968,0.041016,0.68039,0.79883
10.904,0.1687,0.69013,0.054688,0.68627,0.78906
10.912,0.1687,0.67351,0.080078,0.68627,0.77539
10.92,0.1687,0.65787,0.099609,0.6902,0.75977
10.928,0.1687,0.64223,0.125,0.69608,0.74414
10.936,0.1687,0.62659,0.15039,0.70588,0.72461
10.944,0.1687,0.61193,0.16016,0.7098,0.7207
10.952,0.17115,0.59726,0.20508,0.71569,0.68945
10.96,0.17115,0.58162,0.23047,0.72157,0.66992
10.968,0.17359,0.565,0.24023,0.72157,0.66406
10.976,0.17359,0.54839,0.23438,0.72549,0.66406
10.984,0.17604,0.53177,0.25586,0.7,0.6543
10.992,0.17604,0.51417,0.23438,0.6902,0.66992
11,0.17848,0.49658,0.23047,0.66471,0.67578
11.008,0.17848,0.47898,0.20508,0.64118,0.69531
11.016,0.18093,0.46237,0.17578,0.61961,0.7207
11.024,0.18093,0.44477,0.15625,0.59608,0.74023
11.032,0.18337,0.42913,0.11133,0.58431,0.76562
11.04,0.18337,0.41447,0.095703,0.57059,0.77539
11.048,0.18582,0.40274,0.085938,0.5549,0.78906
11.056,0.18582,0.39101,0.041016,0.5549,0.81055
11.064,0.18582,0.37928,0.019531,0.55098,0.81445
11.072,0.18582,0.36852,0.0058594,0.55098,0.82422
11.08,0.18337,0.35679,0,0.5549,0.83398
11.088,0.18093,0.34604,-0.0097656,0.56078,0.83984
11.096,0.17848,0.33529,-0.019531,0.56471,0.83398
11.104,0.17604,0.32551,-0.013672,0.57059,0.83398
11.112,0.17115,0.31672,-0.029297,0.57451,0.83984
11.12,0.16626,0.3089,-0.013672,0.57451,0.83008
11.128,0.16137,0.30108,-0.025391,0.58039,0.83398
11.136,0.15648,0.29521,-0.019531,0.58431,0.83008
11.144,0.15159,0.28935,-0.0039062,0.58431,0.81445
11.152,0.1467,0.28348,0,0.58431,0.81445
11.16,0.13936,0.27761,-0.0039062,0.58039,0.81055
11.168,0.13447,0.27175,0.0058594,0.5902,0.80469
11.176,0.12714,0.26588,0,0.59608,0.79883
11.184,0.12225,0.261,0.015625,0.59608,0.78906
11.192,0.11491,0.25611,0.035156,0.59608,0.77539
11.2,0.11002,0.25318,0.070312,0.59608,0.75
11.208,0.10513,0.25024,0.080078,0.6,0.74414
11.216,0.10024,0.24731,0.076172,0.6,0.73438
11.224,0.095355,0.2434,0.13477,0.58431,0.70898
11.232,0.090465,0.24047,0.14062,0.57451,0.70898
11.24,0.085575,0.23851,0.15625,0.57451,0.69922
11.248,0.080685,0.23656,0.16602,0.57451,0.67969
11.256,0.07824,0.2346,0.14453,0.58039,0.68945
11.264,0.075795,0.23265,0.11133,0.57059,0.70898
11.272,0.070905,0.23167,0.060547,0.56471,0.74414
11.28,0.06846,0.23069,0.0058594,0.56078,0.7793
11.288,0.066015,0.23167,-0.035156,0.56471,0.79492
11.296,0.06357,0.2346,-0.035156,0.5549,0.80469
11.304,0.061125,0.24047,-0.044922,0.55098,0.81055
11.312,0.061125,0.24927,-0.039062,0.5549,0.79883
11.32,0.05868,0.26197,-0.039062,0.55098,0.79492
11.328,0.05868,0.27859,-0.044922,0.56078,0.79883
11.336,0.05868,0.29619,-0.029297,0.59608,0.78906
11.344,0.061125,0.31476,0.080078,0.6098,0.73047
11.352,0.061125,0.3392,0.31445,0.33922,0.60938
11.36,0.061125,0.36657,0.64453,0.27843,0.39453
11.368,0.06357,0.39785,0.75977,0.41569,0.27539
11.376,0.06357,0.43011,0.51562,0.48431,0.41602
11.384,0.066015,0.46334,0.15625,0.53922,0.65039
11.392,0.066015,0.4956,-0.0097656,0.5098,0.78516
11.4,0.06846,0.52688,-0.064453,0.55098,0.81445
11.408,0.06846,0.55523,-0.080078,0.57059,0.81445
11.416,0.06846,0.58162,-0.080078,0.58431,0.81055
11.424,0.070905,0.60508,-0.09375,0.58431,0.81445
11.432,0.070905,0.62463,-0.09375,0.59608,0.81445
11.44,0.070905,0.64027,-0.089844,0.59608,0.81055
11.448,0.070905,0.65103,-0.089844,0.5902,0.81445
11.456,0.070905,0.66276,-0.089844,0.59608,0.81445
11.464,0.070905,0.67253,-0.083984,0.5902,0.80469
11.472,0.070905,0.68133,-0.074219,0.58431,0.79883
11.48,0.06846,0.68817,-0.080078,0.59608,0.80469
11.488,0.06846,0.69306,-0.074219,0.58431,0.79492
11.496,0.06846,0.69599,-0.074219,0.59608,0.79492
11.504,0.06846,0.69599,-0.064453,0.59608,0.78906
11.512,0.066015,0.69404,-0.070312,0.59608,0.79492
11.52,0.066015,0.68915,-0.054688,0.60588,0.78516
11.528,0.066015,0.68133,-0.058594,0.60588,0.78906
11.536,0.066015,0.67253,-0.029297,0.6,0.76562
11.544,0.06357,0.6608,-0.0097656,0.6098,0.75391
11.552,0.06357,0.64809,0,0.61961,0.74023
11.56,0.06357,0.63441,0.019531,0.62941,0.72461
11.568,0.06357,0.61877,0.041016,0.64118,0.71484
11.576,0.06357,0.60313,0.054688,0.6451,0.69922
11.584,0.06357,0.58651,0.076172,0.6549,0.68555
11.592,0.06357,0.57087,0.11133,0.6549,0.66406
11.6,0.06357,0.55327,0.13477,0.66471,0.65039
11.608,0.06357,0.53763,0.14062,0.66471,0.64062
11.616,0.06357,0.52004,0.15039,0.66078,0.63477
11.624,0.066015,0.50244,0.14453,0.6549,0.64062
11.632,0.066015,0.48485,0.13477,0.64118,0.6543
11.64,0.06846,0.46921,0.11523,0.61961,0.66992
11.648,0.06846,0.45455,0.085938,0.6,0.68945
11.656,0.070905,0.43988,0.060547,0.58039,0.70898
11.664,0.07335,0.4262,0.03125,0.56471,0.73438
11.672,0.07335,0.41153,-0.0039062,0.5451,0.75977
11.68,0.075795,0.39785,-0.039062,0.52941,0.78516
11.688,0.075795,0.38416,-0.070312,0.52549,0.79883
11.696,0.07824,0.37048,-0.099609,0.52549,0.81445
11.704,0.07824,0.35875,-0.11523,0.52549,0.82422
11.712,0.07824,0.34702,-0.12891,0.52549,0.83398
11.72,0.07824,0.33529,-0.14453,0.52941,0.83984
11.728,0.07824,0.32551,-0.14844,0.53922,0.84375
11.736,0.075795,0.31769,-0.1543,0.5451,0.84375
11.744,0.07335,0.31085,-0.14844,0.5451,0.84375
11.752,0.070905,0.30205,-0.14844,0.55098,0.84375
11.76,0.06846,0.29423,-0.1543,0.5549,0.83984
11.768,0.066015,0.28641,-0.14453,0.55098,0.83984
11.776,0.061125,0.28055,-0.14453,0.56471,0.83984
11.784,0.05868,0.27468,-0.14453,0.56471,0.83984
11.792,0.05379,0.26882,-0.1543,0.57059,0.84375
11.8,0.0489,0.26295,-0.16016,0.57059,0.84375
11.808,0.046455,0.25806,-0.16016,0.58039,0.84375
11.816,0.041565,0.2522,-0.16016,0.58039,0.83984
11.824,0.036675,0.24731,-0.14453,0.58431,0.83008
11.832,0.031785,0.2434,-0.11914,0.58431,0.82031
11.84,0.026895,0.24047,-0.09375,0.58431,0.81055
11.848,0.022005,0.23754,-0.09375,0.59608,0.80469
11.856,0.017115,0.23558,-0.083984,0.59608,0.79883
11.864,0.012225,0.23265,-0.048828,0.58039,0.78516
11.872,0.00978,0.22972,-0.035156,0.57451,0.76953
11.88,0.00489,0.22678,-0.019531,0.57059,0.75977
11.888,0.002445,0.22483,-0.013672,0.58431,0.75391
11.896,-0.002445,0.2219,-0.048828,0.5902,0.76953
11.904,-0.00489,0.21994,-0.083984,0.58039,0.79492
11.912,-0.00978,0.21799,-0.14453,0.57059,0.83008
11.92,-0.012225,0.21701,-0.20898,0.57059,0.88477
11.928,-0.01467,0.21896,-0.24414,0.56471,0.91016
11.936,-0.017115,0.2219,-0.26367,0.56078,0.91992
11.944,-0.022005,0.22776,-0.28516,0.57059,0.93555
11.952,-0.02445,0.23754,-0.28906,0.57059,0.93555
11.96,-0.02934,0.25024,-0.25977,0.56471,0.91992
11.968,-0.031785,0.26588,-0.23438,0.56078,0.91016
11.976,-0.036675,0.28641,-0.22852,0.62941,0.89453
11.984,-0.041565,0.31085,-0.083984,0.5549,0.82422
11.992,-0.046455,0.33822,0.20117,0.3451,0.67969
12,-0.051345,0.36755,0.53516,0.2902,0.45508
12.008,-0.056235,0.39785,0.58984,0.41961,0.39453
12.016,-0.061125,0.42913,0.20117,0.5098,0.61523
12.024,-0.070905,0.46139,-0.11914,0.5451,0.83398
12.032,-0.07824,0.48778,-0.26367,0.52549,0.93945
12.04,-0.08802,0.51222,-0.32422,0.58431,0.96875
12.048,-0.10024,0.53763,-0.33984,0.60588,0.98047
12.056,-0.11247,0.56403,-0.34375,0.61569,0.97461
12.064,-0.12469,0.58847,-0.33398,0.61569,0.98047
12.072,-0.13692,0.60997,-0.34375,0.61569,0.98047
12.08,-0.14914,0.62854,-0.35352,0.61961,0.98047
12.088,-0.16137,0.64614,-0.36914,0.62941,0.99023
12.096,-0.17359,0.65982,-0.34961,0.61961,0.98438
12.104,-0.18337,0.67058,-0.30469,0.60588,0.96484
12.112,-0.19315,0.67937,-0.28906,0.6098,0.95898
12.12,-0.20293,0.68524,-0.30859,0.61569,0.96484
12.128,-0.21271,0.68817,-0.33398,0.62941,0.98047
12.136,-0.22249,0.68817,-0.34375,0.63529,0.98438
12.144,-0.23227,0.68524,-0.30469,0.61961,0.96875
12.152,-0.23961,0.68035,-0.30469,0.62941,0.96484
12.16,-0.24694,0.67449,-0.29883,0.62941,0.96484
12.168,-0.25183,0.66667,-0.28906,0.64118,0.95508
12.176,-0.25428,0.65689,-0.27344,0.6549,0.94531
12.184,-0.25672,0.64614,-0.25391,0.6549,0.93555
12.192,-0.25917,0.63343,-0.24414,0.66471,0.93555
12.2,-0.25917,0.61975,-0.25,0.67059,0.91992
12.208,-0.25917,0.60606,-0.20508,0.67059,0.9043
12.216,-0.25672,0.59042,-0.17969,0.68627,0.88867
12.224,-0.25183,0.5738,-0.1543,0.6902,0.86914
12.232,-0.24939,0.55816,-0.10352,0.6902,0.84375
12.24,-0.2445,0.5435,-0.080078,0.6902,0.83008
12.248,-0.23961,0.52688,-0.058594,0.6902,0.81445
12.256,-0.23227,0.51026,-0.048828,0.68627,0.81055
12.264,-0.22738,0.49267,-0.070312,0.67647,0.83008
12.272,-0.22249,0.47507,-0.09375,0.66471,0.83984
12.28,-0.2176,0.45748,-0.12891,0.65098,0.86914
12.288,-0.21027,0.44086,-0.13867,0.62549,0.88867
12.296,-0.20538,0.42424,-0.13477,0.60588,0.90039
12.304,-0.20049,0.4086,-0.19922,0.59608,0.93555
12.312,-0.1956,0.39296,-0.23438,0.58039,0.95898
12.32,-0.19315,0.3783,-0.27344,0.57451,0.98438
12.328,-0.18826,0.36461,-0.28516,0.57059,0.99414
12.336,-0.18582,0.35288,-0.30859,0.57059,1.0039
12.344,-0.18337,0.34213,-0.33984,0.58039,1.0293
12.352,-0.18337,0.3304,-0.33984,0.57451,1.0293
12.36,-0.18337,0.31769,-0.34375,0.58431,1.0293
12.368,-0.18337,0.30596,-0.37891,0.59608,1.0488
12.376,-0.18826,0.29521,-0.375,0.5902,1.0547
12.384,-0.19071,0.28446,-0.38477,0.6098,1.0488
12.392,-0.1956,0.27468,-0.41992,0.61569,1.0742
12.4,-0.20049,0.26686,-0.39453,0.6098,1.0645
12.408,-0.20538,0.25806,-0.36328,0.61569,1.0488
12.416,-0.21027,0.25024,-0.35938,0.61961,1.0449
12.424,-0.2176,0.2434,-0.39453,0.62941,1.0586
12.432,-0.22249,0.23949,-0.37891,0.62941,1.0488
12.44,-0.22983,0.23558,-0.38867,0.63529,1.0586
12.448,-0.23716,0.23069,-0.39844,0.64118,1.0703
12.456,-0.2445,0.22581,-0.37891,0.63529,1.0586
12.464,-0.24939,0.21994,-0.37891,0.64118,1.0586
12.472,-0.25672,0.21408,-0.38477,0.64118,1.0703
12.48,-0.26161,0.20723,-0.36328,0.64118,1.0586
12.488,-0.2665,0.20137,-0.34961,0.64118,1.0488
12.496,-0.27139,0.19746,-0.31836,0.63529,1.0449
12.504,-0.27384,0.19355,-0.30469,0.62941,1.0352
12.512,-0.27873,0.18964,-0.29492,0.61961,1.0293
12.52,-0.28117,0.18573,-0.25391,0.61961,1
12.528,-0.28362,0.18182,-0.25,0.63529,0.99414
12.536,-0.28606,0.17889,-0.31445,0.64118,1.0254
12.544,-0.28606,0.17791,-0.33398,0.62549,1.0449
12.552,-0.28851,0.17595,-0.375,0.62941,1.0703
12.56,-0.28851,0.17498,-0.41406,0.62549,1.0938
12.568,-0.28851,0.17498,-0.45898,0.64118,1.1191
12.576,-0.28851,0.17693,-0.48438,0.63529,1.1445
12.584,-0.28606,0.18182,-0.45898,0.62549,1.125
12.592,-0.28362,0.18866,-0.46484,0.63529,1.1289
12.6,-0.28117,0.19844,-0.41992,0.61569,1.0996
12.608,-0.27873,0.21114,-0.41406,0.63529,1.0996
12.616,-0.27628,0.22776,-0.42383,0.70588,1.0898
12.624,-0.27139,0.24731,-0.25,0.61961,1.0039
12.632,-0.26895,0.26784,0.11133,0.41569,0.81445
12.64,-0.26406,0.28935,0.44922,0.3451,0.61523
12.648,-0.25917,0.31574,0.51953,0.38431,0.56055
12.656,-0.25428,0.34506,0.080078,0.47059,0.81055
12.664,-0.25183,0.37634,-0.25,0.5549,1.0195
12.672,-0.24694,0.40762,-0.4043,0.5902,1.1152
12.68,-0.24205,0.43891,-0.47852,0.65098,1.1445
12.688,-0.23716,0.46921,-0.49414,0.67647,1.1543
12.696,-0.23227,0.49756,-0.47461,0.68627,1.1348
12.704,-0.22738,0.52395,-0.46875,0.68039,1.1484
12.712,-0.22249,0.54741,-0.49414,0.6902,1.1445
12.72,-0.22005,0.56794,-0.45898,0.6902,1.1289
12.728,-0.21516,0.58553,-0.49805,0.7,1.1602
12.736,-0.21027,0.59824,-0.46484,0.68039,1.1387
12.744,-0.20782,0.60802,-0.45312,0.67647,1.1348
12.752,-0.20293,0.61584,-0.49805,0.70588,1.1602
12.76,-0.19804,0.62268,-0.48438,0.6902,1.1484
12.768,-0.1956,0.62659,-0.45312,0.6902,1.125
12.776,-0.19071,0.62854,-0.41406,0.68627,1.1094
12.784,-0.18826,0.62854,-0.39844,0.69608,1.0996
12.792,-0.18582,0.62659,-0.42969,0.70588,1.1191
12.8,-0.18093,0.6217,-0.36914,0.6902,1.0801
12.808,-0.17848,0.61584,-0.39844,0.7098,1.0996
12.816,-0.17359,0.60802,-0.41992,0.71569,1.1035
12.824,-0.17115,0.59824,-0.375,0.7098,1.084
12.832,-0.16626,0.58749,-0.31445,0.7098,1.0449
12.84,-0.16381,0.57674,-0.27344,0.71569,1.0195
12.848,-0.15892,0.56403,-0.23438,0.72549,0.99023
12.856,-0.15648,0.54936,-0.21875,0.73529,0.98047
12.864,-0.15159,0.53372,-0.19336,0.7451,0.95898
12.872,-0.14914,0.51711,-0.1543,0.74118,0.93945
12.88,-0.14425,0.49951,-0.13477,0.7451,0.92383
12.888,-0.14181,0.48094,-0.099609,0.74118,0.91016
12.896,-0.13692,0.46237,-0.080078,0.72549,0.90039
12.904,-0.13447,0.44477,-0.089844,0.71569,0.9043
12.912,-0.12958,0.42717,-0.11523,0.7098,0.91992
12.92,-0.12714,0.41056,-0.13477,0.6902,0.93945
12.928,-0.12225,0.39492,-0.16016,0.68039,0.95898
12.936,-0.1198,0.39785,-0.18359,0.66471,0.98047
12.944,-0.11736,0.41153,-0.21484,0.6549,1
12.952,-0.11491,0.41251,-0.24023,0.6451,1.0195
12.96,-0.11247,0.40567,-0.26953,0.64118,1.0391
12.968,-0.11002,0.39687,-0.29883,0.63529,1.0547
12.976,-0.11002,0.38612,-0.31445,0.64118,1.0645
12.984,-0.11002,0.37537,-0.33008,0.64118,1.0703
12.992,-0.10758,0.36461,-0.34961,0.65098,1.084
13,-0.11002,0.35386,-0.35352,0.6549,1.084
13.008,-0.11002,0.34311,-0.35352,0.66078,1.0801
13.016,-0.11247,0.33236,-0.35352,0.66078,1.0801
13.024,-0.11491,0.32258,-0.35352,0.66471,1.084
13.032,-0.11736,0.31476,-0.34961,0.66471,1.0801
13.04,-0.1198,0.3089,-0.34375,0.67059,1.0742
13.048,-0.1198,0.30108,-0.33984,0.68039,1.0742
13.056,-0.12225,0.29423,-0.33008,0.6902,1.0645
13.064,-0.12469,0.28739,-0.33008,0.69608,1.0586
13.072,-0.12469,0.28055,-0.32422,0.70588,1.0547
13.08,-0.12714,0.2737,-0.31836,0.70588,1.0586
13.088,-0.12958,0.26882,-0.30469,0.7098,1.0488
13.096,-0.13203,0.26491,-0.29492,0.71569,1.0449
13.104,-0.13447,0.26197,-0.28516,0.7098,1.0449
13.112,-0.13692,0.25904,-0.26953,0.7098,1.0352
13.12,-0.13936,0.25611,-0.24414,0.7098,1.0195
13.128,-0.13936,0.25318,-0.22461,0.71569,1.0039
13.136,-0.14181,0.2522,-0.18359,0.70588,0.98047
13.144,-0.14181,0.25122,-0.14453,0.69608,0.96484
13.152,-0.14425,0.25024,-0.13867,0.7098,0.94922
13.16,-0.14425,0.24829,-0.099609,0.7098,0.93555
13.168,-0.14425,0.24536,-0.10938,0.71569,0.92969
13.176,-0.14425,0.24145,-0.13477,0.71569,0.94531
13.184,-0.14425,0.23851,-0.16992,0.71569,0.96484
13.192,-0.14425,0.23558,-0.21484,0.7098,1
13.2,-0.14181,0.23363,-0.25977,0.7098,1.0254
13.208,-0.14181,0.23167,-0.28516,0.73529,1.0391
13.216,-0.14181,0.23265,-0.29492,0.76078,1.0449
13.224,-0.14181,0.23558,-0.29492,0.76667,1.0488
13.232,-0.13936,0.24047,-0.28516,0.77059,1.0352
13.24,-0.13936,0.24829,-0.27344,0.77059,1.0293
13.248,-0.13692,0.25904,-0.26367,0.79608,1.0293
13.256,-0.13447,0.27273,-0.24023,0.82549,1.0039
13.264,-0.13447,0.28935,-0.039062,0.66078,0.91992
13.272,-0.13203,0.30987,0.26953,0.49412,0.75
13.28,-0.12958,0.33431,0.58008,0.48039,0.53516
13.288,-0.12958,0.3607,0.62891,0.59608,0.48438
13.296,-0.12714,0.39003,0.20508,0.69608,0.7207
13.304,-0.12469,0.41935,-0.11914,0.7451,0.93555
13.312,-0.12225,0.45064,-0.24414,0.73529,1.0254
13.32,-0.11736,0.48094,-0.2793,0.78627,1.0391
13.328,-0.11491,0.50929,-0.28906,0.81569,1.0449
13.336,-0.11002,0.53275,-0.28906,0.82157,1.0391
13.344,-0.10513,0.55425,-0.29492,0.82157,1.0488
13.352,-0.10269,0.57771,-0.28516,0.81569,1.0391
13.36,-0.0978,0.6002,-0.2793,0.82157,1.0391
13.368,-0.095355,0.6217,-0.28516,0.82549,1.0391
13.376,-0.090465,0.64223,-0.26367,0.81569,1.0352
13.384,-0.08802,0.65982,-0.25977,0.81176,1.0293
13.392,-0.08313,0.67449,-0.25,0.80588,1.0293
13.4,-0.080685,0.68622,-0.24023,0.80588,1.0293
13.408,-0.07824,0.69599,-0.22852,0.81176,1.0137
13.416,-0.075795,0.70283,-0.21484,0.80588,1.0098
13.424,-0.070905,0.70674,-0.20508,0.80588,1.0039
13.432,-0.070905,0.70772,-0.19922,0.80588,1.0039
13.44,-0.06846,0.70674,-0.18945,0.81176,0.99414
13.448,-0.066015,0.70479,-0.16992,0.81176,0.98438
13.456,-0.06357,0.70088,-0.14453,0.81176,0.96875
13.464,-0.061125,0.69501,-0.12891,0.82157,0.95898
13.472,-0.061125,0.68817,-0.11914,0.83137,0.95508
13.48,-0.05868,0.67937,-0.089844,0.83137,0.93555
13.488,-0.056235,0.6696,-0.070312,0.83529,0.91992
13.496,-0.05379,0.65787,-0.029297,0.8451,0.9043
13.504,-0.05379,0.64614,0,0.85098,0.88477
13.512,-0.051345,0.63245,0.015625,0.85686,0.86914
13.52,-0.0489,0.61975,0.041016,0.85686,0.86523
13.528,-0.0489,0.60606,0.044922,0.86667,0.85938
13.536,-0.046455,0.59335,0.060547,0.86078,0.84375
13.544,-0.04401,0.58162,0.070312,0.8451,0.84961
13.552,-0.04401,0.56794,0.054688,0.83137,0.85938
13.56,-0.04401,0.55425,0.035156,0.80588,0.875
13.568,-0.041565,0.54057,0.015625,0.7902,0.89453
13.576,-0.041565,0.52688,-0.0097656,0.77647,0.91016
13.584,-0.041565,0.5132,-0.048828,0.76078,0.93555
13.592,-0.041565,0.50049,-0.080078,0.7451,0.95898
13.6,-0.041565,0.48778,-0.10938,0.73529,0.98047
13.608,-0.041565,0.47605,-0.12891,0.73529,0.99414
13.616,-0.041565,0.46432,-0.16406,0.73529,1.0098
13.624,-0.041565,0.45259,-0.16992,0.73529,1.0195
13.632,-0.041565,0.44282,-0.18359,0.74118,1.0293
13.64,-0.04401,0.435,-0.18945,0.74118,1.0293
13.648,-0.04401,0.4262,-0.19922,0.7451,1.0352
13.656,-0.0489,0.41838,-0.21484,0.7549,1.0449
13.664,-0.051345,0.41056,-0.21875,0.76078,1.0488
13.672,-0.056235,0.40274,-0.19922,0.76078,1.0391
13.68,-0.061125,0.39492,-0.19336,0.76078,1.0352
13.688,-0.066015,0.38807,-0.19922,0.76078,1.0293
13.696,-0.070905,0.38123,-0.19922,0.76667,1.0352
13.704,-0.075795,0.37439,-0.18945,0.76078,1.0293
13.712,-0.080685,0.36852,-0.18359,0.77647,1.0293
13.72,-0.085575,0.36364,-0.18359,0.78039,1.0254
13.728,-0.090465,0.35875,-0.17383,0.78039,1.0293
13.736,-0.095355,0.35582,-0.1543,0.78627,1.0098
13.744,-0.10024,0.35093,-0.125,0.78039,0.99023
13.752,-0.10269,0.34604,-0.10352,0.79608,0.97461
13.76,-0.10758,0.34115,-0.083984,0.7902,0.96484
13.768,-0.11247,0.33627,-0.064453,0.7902,0.95898
13.776,-0.11491,0.33138,-0.035156,0.77647,0.94531
13.784,-0.11736,0.32845,-0.025391,0.77059,0.93555
13.792,-0.12225,0.32551,0.0058594,0.77059,0.91406
13.8,-0.12469,0.32258,0.015625,0.77647,0.91016
13.808,-0.12714,0.31965,-0.025391,0.78039,0.92969
13.816,-0.12958,0.31672,-0.074219,0.76667,0.96484
13.824,-0.12958,0.31476,-0.13477,0.76078,1.0098
13.832,-0.13203,0.31281,-0.18359,0.76078,1.0391
13.84,-0.13203,0.31281,-0.20508,0.76078,1.0488
13.848,-0.13203,0.31378,-0.21484,0.75098,1.0586
13.856,-0.13203,0.31672,-0.21484,0.75098,1.0645
13.864,-0.13203,0.32356,-0.21484,0.7451,1.0703
13.872,-0.12958,0.33333,-0.19922,0.75098,1.0547
13.88,-0.12958,0.34702,-0.20508,0.7451,1.0586
13.888,-0.12714,0.36461,-0.17383,0.7902,1.0391
13.896,-0.12469,0.38514,-0.0097656,0.63529,0.96875
13.904,-0.12225,0.41056,0.31055,0.44902,0.79883
13.912,-0.1198,0.43793,0.62891,0.43922,0.57031
13.92,-0.11736,0.46725,0.67578,0.6,0.51562
13.928,-0.11491,0.49365,0.24023,0.71569,0.75977
13.936,-0.11247,0.51808,-0.054688,0.7451,0.95898
13.944,-0.11247,0.54643,-0.17969,0.7098,1.0547
13.952,-0.11002,0.57478,-0.21875,0.7451,1.0801
13.96,-0.10758,0.60411,-0.23438,0.77059,1.084
13.968,-0.10513,0.63148,-0.25,0.78627,1.0898
13.976,-0.10269,0.65689,-0.23438,0.78039,1.084
13.984,-0.10024,0.68035,-0.23438,0.78039,1.0801
13.992,-0.0978,0.70283,-0.22461,0.78627,1.0742
14,-0.095355,0.72239,-0.22852,0.78627,1.0742
14.008,-0.09291,0.73998,-0.21484,0.78039,1.0742
14.016,-0.090465,0.75464,-0.19922,0.78039,1.0645
14.024,-0.08802,0.76637,-0.19336,0.78039,1.0586
14.032,-0.085575,0.77419,-0.18359,0.78039,1.0547
14.04,-0.08313,0.7781,-0.16406,0.77647,1.0488
14.048,-0.080685,0.78201,-0.16992,0.78039,1.0449
14.056,-0.080685,0.78397,-0.14844,0.78039,1.0352
14.064,-0.07824,0.78397,-0.12891,0.78039,1.0254
14.072,-0.075795,0.78201,-0.11523,0.78627,1.0098
14.08,-0.07335,0.7781,-0.10352,0.7902,1.0039
14.088,-0.07335,0.77224,-0.080078,0.7902,0.99023
14.096,-0.070905,0.76344,-0.064453,0.8,0.98438
14.104,-0.06846,0.75367,-0.048828,0.80588,0.97461
14.112,-0.066015,0.74194,-0.025391,0.80588,0.95508
14.12,-0.061125,0.72923,-0.0039062,0.82549,0.94531
14.128,-0.05868,0.7175,0.03125,0.83137,0.91992
14.136,-0.05379,0.70479,0.060547,0.84118,0.89453
14.144,-0.046455,0.69013,0.085938,0.85098,0.875
14.152,-0.041565,0.67449,0.11133,0.85098,0.86523
14.16,-0.03423,0.65787,0.13477,0.8451,0.84961
14.168,-0.02934,0.64027,0.125,0.85098,0.85547
14.176,-0.02445,0.6217,0.14062,0.83137,0.84961
14.184,-0.01956,0.60411,0.13086,0.81176,0.85938
14.192,-0.012225,0.58651,0.11523,0.79608,0.86914
14.2,-0.007335,0.57087,0.085938,0.77647,0.88867
14.208,-0.002445,0.55523,0.060547,0.76078,0.91016
14.216,0.00489,0.53959,0.035156,0.74118,0.92969
14.224,0.00978,0.52493,0.0058594,0.73529,0.95898
14.232,0.01467,0.51222,-0.025391,0.72157,0.97461
14.24,0.022005,0.50049,-0.054688,0.71569,0.99414
14.248,0.02445,0.48876,-0.064453,0.71569,1
14.256,0.02934,0.47605,-0.089844,0.72157,1.0098
14.264,0.031785,0.46432,-0.099609,0.72549,1.0195
14.272,0.03423,0.45259,-0.09375,0.72157,1.0137
14.28,0.036675,0.44086,-0.11914,0.72549,1.0254
14.288,0.036675,0.43109,-0.11914,0.73529,1.0293
14.296,0.036675,0.42229,-0.11914,0.73529,1.0293
14.304,0.036675,0.41447,-0.11914,0.75098,1.0293
14.312,0.03423,0.40665,-0.10352,0.7451,1.0137
14.32,0.031785,0.39883,-0.099609,0.7451,1.0195
14.328,0.02934,0.39296,-0.11523,0.75098,1.0137
14.336,0.026895,0.38807,-0.10352,0.75098,1.0195
14.344,0.02445,0.38221,-0.09375,0.75098,1.0039
14.352,0.022005,0.37634,-0.089844,0.7549,1.0039
14.36,0.01956,0.37048,-0.09375,0.7549,1
14.368,0.017115,0.36461,-0.070312,0.76078,0.99023
14.376,0.01467,0.35973,-0.054688,0.76078,0.98438
14.384,0.012225,0.35582,-0.025391,0.76078,0.95898
14.392,0.00978,0.35191,-0.0097656,0.76667,0.95508
14.4,0.007335,0.34897,0.0058594,0.76667,0.94531
14.408,0.002445,0.34506,0.044922,0.7549,0.92383
14.416,0,0.34213,0.044922,0.7451,0.92383
14.424,0,0.33822,0.070312,0.74118,0.91016
14.432,-0.002445,0.33529,0.085938,0.7451,0.88867
14.44,-0.002445,0.33333,0.070312,0.75098,0.89453
14.448,-0.00489,0.3304,0.03125,0.7451,0.92383
14.456,-0.00489,0.32747,-0.013672,0.73529,0.95508
14.464,-0.002445,0.32551,-0.044922,0.73529,0.97461
14.472,-0.002445,0.32551,-0.083984,0.74118,0.99414
14.48,0,0.32649,-0.099609,0.73529,1
14.488,0.002445,0.33138,-0.10938,0.73137,1.0039
14.496,0.002445,0.3392,-0.09375,0.73137,1.0039
14.504,0.00489,0.34995,-0.09375,0.73137,1.0039
14.512,0.007335,0.36461,-0.099609,0.73529,1
14.52,0.00978,0.38319,-0.089844,0.76078,0.99023
14.528,0.012225,0.40274,-0.0097656,0.78039,0.94922
14.536,0.017115,0.42326,0.25586,0.50588,0.82031
14.544,0.01956,0.4477,0.625,0.43922,0.5957
14.552,0.02445,0.47605,0.75977,0.58039,0.45508
14.56,0.026895,0.50733,0.52539,0.66078,0.58398
14.568,0.02934,0.53861,0.14062,0.72157,0.83398
14.576,0.03423,0.57087,-0.044922,0.68039,0.98047
14.584,0.036675,0.60117,-0.11523,0.7098,1.0137
14.592,0.041565,0.62952,-0.13867,0.73137,1.0293
14.6,0.04401,0.65591,-0.14453,0.7451,1.0254
14.608,0.0489,0.68133,-0.13477,0.7451,1.0195
14.616,0.051345,0.70381,-0.13867,0.74118,1.0195
14.624,0.056235,0.72434,-0.14453,0.75098,1.0254
14.632,0.05868,0.739,-0.13867,0.7451,1.0195
14.64,0.06357,0.75073,-0.11914,0.7451,1.0039
14.648,0.066015,0.76344,-0.11523,0.74118,1.0039
14.656,0.070905,0.77419,-0.11914,0.7451,1.0039
14.664,0.07335,0.78299,-0.10938,0.7451,1
14.672,0.075795,0.78886,-0.089844,0.73529,0.98438
14.68,0.080685,0.79179,-0.080078,0.73529,0.98047
14.688,0.08313,0.79277,-0.083984,0.73529,0.98047
14.696,0.08802,0.79179,-0.080078,0.74118,0.98047
14.704,0.090465,0.78886,-0.064453,0.74118,0.95898
14.712,0.095355,0.78397,-0.048828,0.74118,0.95508
14.72,0.0978,0.7781,-0.035156,0.74118,0.94531
14.728,0.10024,0.76931,-0.025391,0.75098,0.93555
14.736,0.10269,0.76051,-0.0039062,0.7451,0.91992
14.744,0.10758,0.74976,0.025391,0.75098,0.9043
14.752,0.11002,0.73803,0.041016,0.76078,0.88477
14.76,0.11247,0.72336,0.070312,0.76078,0.86523
14.768,0.11736,0.7087,0.089844,0.77647,0.84375
14.776,0.12225,0.69306,0.11523,0.78039,0.83008
14.784,0.12469,0.67644,0.13477,0.7902,0.81055
14.792,0.12958,0.65982,0.15039,0.7902,0.79883
14.8,0.13447,0.64223,0.17578,0.78039,0.78906
14.808,0.13936,0.62463,0.17969,0.77059,0.79492
14.816,0.14425,0.60802,0.16602,0.7549,0.78906
14.824,0.14914,0.59042,0.15039,0.73137,0.80469
14.832,0.15403,0.57576,0.13477,0.7098,0.81445
14.84,0.15892,0.56207,0.099609,0.68627,0.83984
14.848,0.16137,0.54839,0.085938,0.6549,0.85547
14.856,0.16626,0.5347,0.041016,0.64118,0.88477
14.864,0.17115,0.52102,0.0097656,0.62549,0.89453
14.872,0.17359,0.50733,-0.019531,0.61961,0.91992
14.88,0.17848,0.49365,-0.044922,0.61569,0.93555
14.888,0.17848,0.48094,-0.080078,0.61569,0.95508
14.896,0.18093,0.46921,-0.083984,0.61569,0.95898
14.904,0.18337,0.45846,-0.09375,0.61961,0.95898
14.912,0.18337,0.4477,-0.10352,0.62549,0.95898
14.92,0.18337,0.43793,-0.10352,0.62549,0.96484
14.928,0.18337,0.43011,-0.10938,0.62941,0.95898
14.936,0.18093,0.42424,-0.11523,0.62549,0.95898
14.944,0.17848,0.4174,-0.13477,0.64118,0.96875
14.952,0.17604,0.40958,-0.11523,0.63529,0.95898
14.96,0.17359,0.40176,-0.11914,0.63529,0.95898
14.968,0.17115,0.39492,-0.11914,0.64118,0.95898
14.976,0.16626,0.38807,-0.10938,0.64118,0.94922
14.984,0.16381,0.38221,-0.10352,0.64118,0.93945
14.992,0.16137,0.37928,-0.09375,0.64118,0.93555
15,0.15648,0.37537,-0.083984,0.64118,0.91992
15.008,0.15403,0.37243,-0.074219,0.6451,0.91016
15.016,0.14914,0.36852,-0.064453,0.65098,0.91016
15.024,0.14425,0.36461,-0.035156,0.65098,0.88477
15.032,0.14181,0.36168,-0.0039062,0.6451,0.86523
15.04,0.13692,0.35973,0.015625,0.64118,0.85547
15.048,0.13447,0.35679,0.03125,0.63529,0.83984
15.056,0.13203,0.35386,0.019531,0.62549,0.84375
15.064,0.12958,0.35093,0.060547,0.62549,0.82031
15.072,0.12714,0.348,0.064453,0.62941,0.81445
15.08,0.12714,0.34604,0.015625,0.63529,0.83398
15.088,0.12469,0.34409,-0.025391,0.61961,0.86523
15.096,0.12225,0.34213,-0.074219,0.61569,0.89453
15.104,0.12225,0.34115,-0.11523,0.61569,0.91406
15.112,0.12225,0.34115,-0.14453,0.61569,0.93555
15.12,0.12225,0.34311,-0.14844,0.6098,0.93555
15.128,0.12225,0.348,-0.1543,0.61569,0.93555
15.136,0.12469,0.35386,-0.14453,0.61569,0.92383
15.144,0.12469,0.36461,-0.14453,0.61569,0.92969
15.152,0.12714,0.3783,-0.13477,0.61961,0.91992
15.16,0.12958,0.39589,-0.14844,0.67059,0.90039
15.168,0.13203,0.41544,0.080078,0.50588,0.81055
15.176,0.13447,0.43793,0.375,0.33922,0.64062
15.184,0.13692,0.46139,0.64062,0.40392,0.43945
15.192,0.13692,0.4868,0.6543,0.5098,0.4043
15.2,0.13936,0.51222,0.20508,0.6098,0.66406
15.208,0.14181,0.53861,-0.029297,0.61569,0.84375
15.216,0.14181,0.56403,-0.14453,0.57059,0.92383
15.224,0.14425,0.58944,-0.19922,0.62549,0.95508
15.232,0.1467,0.60899,-0.18945,0.64118,0.94531
15.24,0.14914,0.62659,-0.18945,0.64118,0.93945
15.248,0.15159,0.64516,-0.18945,0.6451,0.93945
15.256,0.15403,0.66276,-0.19922,0.65098,0.93555
15.264,0.15648,0.6784,-0.19922,0.6451,0.94531
15.272,0.15648,0.69208,-0.18945,0.65098,0.93555
15.28,0.15892,0.70381,-0.16992,0.65098,0.92383
15.288,0.15892,0.71359,-0.18359,0.6549,0.92969
15.296,0.16137,0.72043,-0.16992,0.6549,0.91992
15.304,0.16137,0.7263,-0.16406,0.66078,0.91016
15.312,0.16381,0.73021,-0.16016,0.6549,0.91016
15.32,0.16626,0.73216,-0.1543,0.66078,0.9043
15.328,0.1687,0.73216,-0.14453,0.66471,0.90039
15.336,0.17115,0.72923,-0.13477,0.66078,0.89453
15.344,0.17359,0.72434,-0.125,0.66471,0.88867
15.352,0.17359,0.71848,-0.12891,0.66471,0.88867
15.36,0.17604,0.71163,-0.11523,0.67059,0.87891
15.368,0.17848,0.70186,-0.10938,0.67059,0.87891
15.376,0.17848,0.6911,-0.09375,0.67647,0.86914
15.384,0.18093,0.67937,-0.080078,0.68627,0.85938
15.392,0.18337,0.66764,-0.054688,0.69608,0.83984
15.4,0.18826,0.65396,-0.013672,0.6902,0.81445
15.408,0.19071,0.64125,0.0097656,0.70588,0.79492
15.416,0.1956,0.62757,0.035156,0.71569,0.77539
15.424,0.19804,0.61388,0.050781,0.72157,0.76953
15.432,0.20293,0.60215,0.060547,0.72549,0.75977
15.44,0.20538,0.58944,0.054688,0.71569,0.75391
15.448,0.20782,0.57576,0.070312,0.7098,0.75
15.456,0.21271,0.56109,0.054688,0.6902,0.76562
15.464,0.21516,0.54643,0.044922,0.67647,0.76953
15.472,0.2176,0.53079,0.0097656,0.66078,0.79492
15.48,0.22005,0.51515,-0.0097656,0.64118,0.80469
15.488,0.22249,0.50147,-0.035156,0.61569,0.83008
15.496,0.22249,0.48778,-0.058594,0.60588,0.84375
15.504,0.22494,0.47507,-0.09375,0.59608,0.86914
15.512,0.22494,0.46432,-0.10352,0.58039,0.875
15.52,0.22494,0.45455,-0.13477,0.5902,0.88867
15.528,0.22494,0.44673,-0.14453,0.5902,0.9043
15.536,0.22494,0.43988,-0.16406,0.59608,0.91016
15.544,0.22249,0.43304,-0.17969,0.60588,0.91992
15.552,0.22005,0.4262,-0.19922,0.61569,0.92969
15.56,0.2176,0.41838,-0.18945,0.61569,0.91992
15.568,0.21516,0.40958,-0.18945,0.61569,0.91406
15.576,0.21027,0.40078,-0.18359,0.61961,0.91016
15.584,0.20782,0.39394,-0.17969,0.61961,0.91016
15.592,0.20293,0.3871,-0.18359,0.62941,0.91016
15.6,0.19804,0.38123,-0.17969,0.64118,0.91016
15.608,0.19315,0.37537,-0.19922,0.64118,0.91016
15.616,0.18826,0.3695,-0.18945,0.6451,0.91406
15.624,0.18582,0.36461,-0.18359,0.65098,0.90039
15.632,0.18093,0.36168,-0.16016,0.6451,0.88867
15.64,0.17604,0.35679,-0.1543,0.65098,0.88867
15.648,0.17115,0.35288,-0.14453,0.65098,0.88477
15.656,0.16381,0.34897,-0.13867,0.65098,0.875
15.664,0.15892,0.34506,-0.10938,0.65098,0.85938
15.672,0.15403,0.34213,-0.099609,0.65098,0.85938
15.68,0.14914,0.3392,-0.064453,0.6451,0.83984
15.688,0.14425,0.33627,-0.058594,0.64118,0.83984
15.696,0.13936,0.33431,-0.048828,0.64118,0.83008
15.704,0.13447,0.33138,-0.029297,0.63529,0.81445
15.712,0.12958,0.32845,-0.058594,0.6451,0.82422
15.72,0.12469,0.32551,-0.09375,0.64118,0.84375
15.728,0.1198,0.32454,-0.12891,0.63529,0.875
15.736,0.11491,0.32258,-0.17383,0.62549,0.91016
15.744,0.11247,0.3216,-0.21484,0.63529,0.93555
15.752,0.11002,0.3216,-0.23438,0.62941,0.94531
15.76,0.10513,0.32356,-0.24023,0.62549,0.94922
15.768,0.10269,0.32747,-0.24414,0.63529,0.94922
15.776,0.10024,0.33529,-0.23438,0.62941,0.93945
15.784,0.10024,0.34604,-0.24023,0.62941,0.94531
15.792,0.0978,0.35973,-0.23438,0.6451,0.94922
15.8,0.0978,0.37732,-0.17383,0.68627,0.90039
15.808,0.0978,0.39785,0.050781,0.48039,0.79883
15.816,0.0978,0.42033,0.35938,0.34902,0.61523
15.824,0.0978,0.44184,0.56055,0.4549,0.44531
15.832,0.0978,0.46237,0.43555,0.52941,0.50977
15.84,0.0978,0.48583,0.041016,0.61569,0.75
15.848,0.0978,0.51124,-0.16406,0.58431,0.91406
15.856,0.10024,0.53666,-0.24414,0.6098,0.96875
15.864,0.10024,0.56109,-0.26367,0.64118,0.98047
15.872,0.10024,0.58456,-0.26367,0.66471,0.97461
15.88,0.10269,0.60704,-0.27344,0.66471,0.97461
15.888,0.10513,0.62659,-0.2793,0.66471,0.98047
15.896,0.10758,0.64418,-0.27344,0.66471,0.98047
15.904,0.11002,0.65982,-0.27344,0.66471,0.98047
15.912,0.11491,0.67253,-0.26953,0.67059,0.97461
15.92,0.11736,0.68328,-0.25977,0.67059,0.96875
15.928,0.12225,0.6911,-0.25391,0.67059,0.96484
15.936,0.12469,0.69501,-0.23438,0.67059,0.95508
15.944,0.12958,0.69892,-0.21484,0.67647,0.93555
15.952,0.13203,0.70186,-0.19336,0.67059,0.92969
15.96,0.13447,0.70283,-0.18945,0.68039,0.92383
15.968,0.13936,0.70186,-0.17383,0.6902,0.91406
15.976,0.14425,0.69892,-0.16992,0.69608,0.91992
15.984,0.14914,0.69404,-0.16016,0.7,0.91016
15.992,0.15159,0.68719,-0.14453,0.71569,0.90039
16,0.15648,0.6784,-0.12891,0.72157,0.88867
16.008,0.15892,0.66862,-0.11523,0.73137,0.87891
16.016,0.16137,0.65787,-0.09375,0.74118,0.86914
16.024,0.16381,0.64712,-0.083984,0.76078,0.86523
16.032,0.1687,0.63539,-0.064453,0.77647,0.84375
16.04,0.17115,0.62268,-0.029297,0.78627,0.83008
16.048,0.17359,0.60997,-0.0039062,0.7902,0.81055
16.056,0.17604,0.59531,0.015625,0.8,0.79492
16.064,0.17848,0.58162,0.03125,0.80588,0.78516
16.072,0.18093,0.56696,0.044922,0.8,0.7793
16.08,0.18337,0.55327,0.044922,0.7902,0.77539
16.088,0.18582,0.53959,0.044922,0.78039,0.78516
16.096,0.18826,0.5259,0.025391,0.76078,0.79492
16.104,0.18826,0.51222,0.0097656,0.73529,0.81445
16.112,0.18826,0.49853,-0.025391,0.71569,0.83984
16.12,0.18826,0.48583,-0.070312,0.69608,0.875
16.128,0.18582,0.47507,-0.09375,0.66471,0.9043
16.136,0.18337,0.4653,-0.10352,0.64118,0.91406
16.144,0.17848,0.45552,-0.13867,0.62941,0.94531
16.152,0.17359,0.44575,-0.16992,0.62549,0.95898
16.16,0.17115,0.43597,-0.19336,0.62549,0.97461
16.168,0.16381,0.4262,-0.22461,0.64118,0.99414
16.176,0.15892,0.4174,-0.24023,0.64118,1.0039
16.184,0.14914,0.4086,-0.25391,0.6451,1.0098
16.192,0.13936,0.3998,-0.25977,0.65098,1.0195
16.2,0.12714,0.39296,-0.25,0.6451,1.0098
16.208,0.11247,0.38514,-0.23438,0.65098,1.0039
16.216,0.095355,0.37928,-0.22852,0.65098,1
16.224,0.080685,0.37439,-0.22461,0.65098,1
16.232,0.061125,0.37048,-0.23438,0.66078,1
16.24,0.041565,0.36559,-0.24414,0.66471,1.0039
16.248,0.022005,0.35973,-0.23438,0.6549,1.0098
16.256,0.002445,0.35582,-0.23438,0.66078,1.0039
16.264,-0.017115,0.35093,-0.23438,0.66471,1.0039
16.272,-0.036675,0.34604,-0.22461,0.66471,1
16.28,-0.056235,0.34115,-0.23438,0.66471,0.99023
16.288,-0.07824,0.33724,-0.19336,0.66471,0.98047
16.296,-0.10024,0.33333,-0.16016,0.66471,0.95898
16.304,-0.1198,0.32845,-0.14844,0.66471,0.95508
16.312,-0.13936,0.32551,-0.16016,0.66471,0.95898
16.32,-0.15892,0.3216,-0.11523,0.67059,0.93555
16.328,-0.17604,0.31965,-0.099609,0.65098,0.92969
16.336,-0.19315,0.31867,-0.044922,0.65098,0.90039
16.344,-0.21027,0.31672,-0.025391,0.66078,0.87891
16.352,-0.22738,0.31574,-0.070312,0.67059,0.88867
16.36,-0.24205,0.31476,-0.11523,0.66471,0.91992
16.368,-0.25672,0.31378,-0.14844,0.66471,0.94922
16.376,-0.26895,0.31183,-0.18945,0.66078,0.97461
16.384,-0.28117,0.31183,-0.22852,0.66078,1
16.392,-0.28851,0.31281,-0.25,0.66471,1.0137
16.4,-0.29829,0.31476,-0.25977,0.6549,1.0293
16.408,-0.30318,0.31965,-0.24414,0.65098,1.0137
16.416,-0.30807,0.32649,-0.23438,0.6451,1.0039
16.424,-0.31296,0.33627,-0.24023,0.6549,1.0137
16.432,-0.3154,0.348,-0.20898,0.69608,0.98438
16.44,-0.3154,0.36364,-0.09375,0.73137,0.91406
16.448,-0.3154,0.38319,0.16602,0.5,0.79492
16.456,-0.3154,0.40665,0.52539,0.3902,0.58008
16.464,-0.31296,0.43011,0.66406,0.43922,0.46484
16.472,-0.31051,0.45552,0.42578,0.4902,0.60938
16.48,-0.30807,0.47996,0.0097656,0.58431,0.86523
16.488,-0.30562,0.50342,-0.18945,0.59608,1.0098
16.496,-0.30318,0.52688,-0.24023,0.63529,1.0293
16.504,-0.29829,0.55034,-0.26953,0.66471,1.0449
16.512,-0.29584,0.57185,-0.26367,0.6902,1.0391
16.52,-0.29095,0.59238,-0.28906,0.6902,1.0488
16.528,-0.28606,0.60802,-0.28516,0.69608,1.0391
16.536,-0.28362,0.6217,-0.26953,0.69608,1.0352
16.544,-0.27873,0.63441,-0.27344,0.6902,1.0391
16.552,-0.27628,0.64614,-0.23438,0.68039,1.0195
16.56,-0.27139,0.65591,-0.22852,0.6902,1.0137
16.568,-0.26895,0.66373,-0.26367,0.7,1.0352
16.576,-0.2665,0.6696,-0.25977,0.70588,1.0352
16.584,-0.26406,0.67351,-0.25391,0.7,1.0293
16.592,-0.26161,0.67449,-0.22852,0.6902,1.0254
16.6,-0.25917,0.67351,-0.20898,0.6902,1.0039
16.608,-0.25672,0.67155,-0.21484,0.69608,1.0098
16.616,-0.25672,0.66764,-0.18945,0.7,0.99414
16.624,-0.25672,0.66178,-0.19336,0.7098,0.99414
16.632,-0.25672,0.65494,-0.20898,0.71569,1.0039
16.64,-0.25428,0.64516,-0.16016,0.7098,0.97461
16.648,-0.25428,0.63539,-0.125,0.7098,0.95898
16.656,-0.25183,0.62366,-0.089844,0.7098,0.93945
16.664,-0.25183,0.61193,-0.070312,0.72157,0.92383
16.672,-0.24939,0.59922,-0.029297,0.73137,0.89453
16.68,-0.24939,0.58651,0.019531,0.72549,0.86523
16.688,-0.24694,0.57283,0.025391,0.74118,0.86523
16.696,-0.2445,0.55816,-0.0039062,0.7549,0.87891
16.704,-0.2445,0.5435,0.025391,0.7451,0.86523
16.712,-0.24205,0.52884,0.060547,0.73529,0.83984
16.72,-0.23961,0.5132,0.080078,0.72549,0.83398
16.728,-0.23961,0.50049,0.076172,0.7098,0.83984
16.736,-0.23716,0.48876,0.085938,0.68627,0.83008
16.744,-0.23472,0.47703,0.080078,0.66471,0.83984
16.752,-0.23472,0.46432,0.015625,0.66078,0.88477
16.76,-0.23227,0.45161,-0.048828,0.66471,0.92969
16.768,-0.23227,0.43891,-0.064453,0.63529,0.93555
16.776,-0.22983,0.42717,-0.054688,0.61961,0.95898
16.784,-0.22983,0.41349,-0.10938,0.62549,0.97461
16.792,-0.22983,0.40176,-0.125,0.61569,0.98438
16.8,-0.22983,0.39003,-0.1543,0.61961,1.0039
16.808,-0.22983,0.37928,-0.13867,0.61569,0.99414
16.816,-0.22983,0.36852,-0.16992,0.64118,1.0039
16.824,-0.22983,0.3607,-0.16406,0.62941,1.0098
16.832,-0.23227,0.35386,-0.16992,0.64118,1.0098
16.84,-0.23472,0.34604,-0.19336,0.65098,1.0254
16.848,-0.23716,0.33724,-0.18945,0.6451,1.0195
16.856,-0.23961,0.3304,-0.16016,0.64118,1.0039
16.864,-0.24205,0.32356,-0.16016,0.6451,1
16.872,-0.24694,0.31476,-0.14453,0.66078,0.99414
16.88,-0.25183,0.30792,-0.17383,0.69608,1
16.888,-0.25428,0.30401,-0.18945,0.7098,1.0098
16.896,-0.25672,0.29912,-0.13477,0.7098,0.98438
16.904,-0.25917,0.29521,-0.11523,0.71569,0.97461
16.912,-0.25917,0.2913,-0.09375,0.72549,0.95898
16.92,-0.26161,0.28739,-0.11914,0.73529,0.96875
16.928,-0.26406,0.28543,-0.125,0.7451,0.98047
16.936,-0.2665,0.2825,-0.070312,0.73529,0.94922
16.944,-0.2665,0.27957,-0.029297,0.71569,0.92969
16.952,-0.2665,0.27566,-0.048828,0.73137,0.93555
16.96,-0.2665,0.27175,-0.035156,0.73529,0.92969
16.968,-0.2665,0.26784,0.019531,0.7,0.90039
16.976,-0.2665,0.26491,0.041016,0.69608,0.88867
16.984,-0.26406,0.26295,0.050781,0.7,0.875
16.992,-0.26161,0.26002,0.0058594,0.72157,0.90039
17,-0.25917,0.25806,-0.048828,0.7098,0.93555
17.008,-0.25672,0.25513,-0.074219,0.70588,0.95898
17.016,-0.25428,0.25318,-0.1543,0.7098,1
17.024,-0.25183,0.25318,-0.17383,0.7,1.0137
17.032,-0.24694,0.25318,-0.16406,0.6902,1.0098
17.04,-0.2445,0.25318,-0.17383,0.70588,1.0137
17.048,-0.23961,0.25415,-0.13867,0.6902,1
17.056,-0.23716,0.25709,-0.14844,0.69608,1
17.064,-0.23472,0.26295,-0.1543,0.7098,1.0039
17.072,-0.22983,0.27175,-0.12891,0.75098,0.98438
17.08,-0.22738,0.28446,0.041016,0.76078,0.89453
17.088,-0.22249,0.3001,0.37109,0.4902,0.72461
17.096,-0.22005,0.31867,0.73047,0.4098,0.50977
17.104,-0.21516,0.34115,0.82422,0.43529,0.43555
17.112,-0.21271,0.36559,0.48047,0.5098,0.63477
17.12,-0.20782,0.39101,0.095703,0.6,0.86523
17.128,-0.20538,0.41447,-0.09375,0.63529,0.99023
17.136,-0.20293,0.43597,-0.1543,0.69608,1.0098
17.144,-0.20049,0.46041,-0.17969,0.72157,1.0195
17.152,-0.19804,0.48583,-0.18945,0.73529,1.0098
17.16,-0.1956,0.51026,-0.125,0.71569,0.98438
17.168,-0.19315,0.53372,-0.16016,0.73137,0.98047
17.176,-0.19071,0.55523,-0.22852,0.7451,1.0391
17.184,-0.18826,0.57478,-0.16992,0.73529,1.0098
17.192,-0.18582,0.59335,-0.1543,0.72549,1.0039
17.2,-0.18337,0.60899,-0.125,0.72157,0.98438
17.208,-0.18093,0.6217,-0.16016,0.74118,1.0039
17.216,-0.17848,0.63245,-0.17969,0.7451,1.0137
17.224,-0.17604,0.6393,-0.10352,0.72549,0.97461
17.232,-0.17359,0.64321,-0.099609,0.73529,0.97461
17.24,-0.1687,0.64516,-0.10938,0.7451,0.97461
17.248,-0.16626,0.64614,-0.074219,0.74118,0.95508
17.256,-0.16381,0.64516,-0.074219,0.7549,0.95508
17.264,-0.15892,0.64125,-0.083984,0.76078,0.96484
17.272,-0.15648,0.63636,-0.074219,0.76078,0.95898
17.28,-0.15403,0.62952,-0.058594,0.76667,0.94531
17.288,-0.14914,0.6217,0,0.76078,0.91406
17.296,-0.1467,0.6129,-0.0039062,0.78039,0.9043
17.304,-0.14181,0.60215,0.041016,0.78039,0.88477
17.312,-0.13692,0.5914,0.089844,0.78039,0.85547
17.32,-0.13203,0.58065,0.13477,0.7902,0.82031
17.328,-0.12469,0.56891,0.14453,0.8,0.81445
17.336,-0.1198,0.55621,0.15039,0.80588,0.81445
17.344,-0.11247,0.54252,0.19531,0.79608,0.78516
17.352,-0.10513,0.52786,0.21094,0.78039,0.77539
17.36,-0.0978,0.5132,0.22461,0.76078,0.76953
17.368,-0.090465,0.49853,0.2207,0.75098,0.7793
17.376,-0.08313,0.48485,0.20508,0.73137,0.78906
17.384,-0.07824,0.47019,0.17578,0.71569,0.81055
17.392,-0.070905,0.4565,0.14453,0.70588,0.83008
17.4,-0.066015,0.44282,0.11523,0.6902,0.85547
17.408,-0.061125,0.43011,0.085938,0.6902,0.875
17.416,-0.056235,0.4174,0.054688,0.6902,0.88867
17.424,-0.051345,0.40665,0.025391,0.6902,0.9043
17.432,-0.0489,0.39785,0,0.6902,0.91992
17.44,-0.04401,0.38807,-0.029297,0.6902,0.93945
17.448,-0.041565,0.37732,-0.058594,0.69608,0.95898
17.456,-0.03912,0.36755,-0.083984,0.6902,0.98047
17.464,-0.03912,0.35875,-0.09375,0.6902,0.98438
17.472,-0.03912,0.34995,-0.09375,0.69608,0.99023
17.48,-0.03912,0.34213,-0.089844,0.6902,0.98438
17.488,-0.03912,0.33431,-0.09375,0.6902,0.98438
17.496,-0.041565,0.32649,-0.09375,0.6902,0.99023
17.504,-0.04401,0.31867,-0.089844,0.69608,0.98438
17.512,-0.046455,0.31281,-0.089844,0.7098,0.98438
17.52,-0.051345,0.30792,-0.074219,0.7098,0.97461
17.528,-0.05379,0.30401,-0.074219,0.71569,0.96875
17.536,-0.056235,0.29912,-0.064453,0.71569,0.95898
17.544,-0.05868,0.29423,-0.054688,0.72157,0.95898
17.552,-0.061125,0.28935,-0.048828,0.73137,0.95508
17.56,-0.06357,0.28641,-0.025391,0.73137,0.93555
17.568,-0.066015,0.28348,0.0097656,0.72549,0.91016
17.576,-0.06846,0.28055,0.041016,0.72549,0.90039
17.584,-0.07335,0.27859,0.035156,0.73137,0.89453
17.592,-0.075795,0.27566,0.064453,0.72549,0.88867
17.6,-0.07824,0.27273,0.089844,0.7098,0.875
17.608,-0.080685,0.26882,0.11133,0.7098,0.86523
17.616,-0.08313,0.26588,0.13477,0.7098,0.83984
17.624,-0.08313,0.26393,0.14062,0.72157,0.83398
17.632,-0.08313,0.26197,0.11133,0.72549,0.84961
17.64,-0.085575,0.26002,0.076172,0.72157,0.86914
17.648,-0.085575,0.25709,0.025391,0.72157,0.90039
17.656,-0.085575,0.25415,-0.013672,0.72157,0.92383
17.664,-0.085575,0.2522,-0.039062,0.72157,0.93945
17.672,-0.085575,0.25122,-0.048828,0.72157,0.94922
17.68,-0.085575,0.25122,-0.054688,0.72157,0.94922
17.688,-0.085575,0.25415,-0.054688,0.72157,0.94531
17.696,-0.085575,0.25806,-0.048828,0.72157,0.94531
17.704,-0.085575,0.26588,-0.044922,0.73529,0.93945
17.712,-0.085575,0.27664,-0.0097656,0.76078,0.91406
17.72,-0.08802,0.28837,0.21484,0.57451,0.82031
17.728,-0.08802,0.30303,0.54492,0.43529,0.63477
17.736,-0.08802,0.32063,0.83008,0.49412,0.42969
17.744,-0.090465,0.34311,0.85547,0.5549,0.39062
17.752,-0.09291,0.36755,0.4043,0.67059,0.64453
17.76,-0.09291,0.39492,0.085938,0.7098,0.85938
17.768,-0.095355,0.42326,-0.029297,0.72549,0.93555
17.776,-0.0978,0.45259,-0.070312,0.76078,0.95508
17.784,-0.0978,0.48192,-0.070312,0.78039,0.94922
17.792,-0.10024,0.50929,-0.074219,0.7902,0.95508
17.8,-0.10269,0.53568,-0.083984,0.7902,0.95508
17.808,-0.10513,0.56012,-0.09375,0.79608,0.96484
17.816,-0.10758,0.5826,-0.099609,0.8,0.96484
17.824,-0.11002,0.6002,-0.09375,0.8,0.95898
17.832,-0.11247,0.61584,-0.064453,0.79608,0.94531
17.84,-0.11736,0.63148,-0.070312,0.8,0.94531
17.848,-0.1198,0.64614,-0.048828,0.78627,0.93555
17.856,-0.12225,0.65885,-0.039062,0.78039,0.92969
17.864,-0.12469,0.67058,-0.029297,0.78627,0.92969
17.872,-0.12714,0.67937,-0.019531,0.7902,0.91992
17.88,-0.12958,0.68622,-0.0039062,0.7902,0.91016
17.888,-0.13203,0.6911,0.0097656,0.79608,0.9043
17.896,-0.13447,0.69208,0.0097656,0.8,0.9043
17.904,-0.13692,0.69208,0.035156,0.79608,0.88867
17.912,-0.13936,0.69013,0.044922,0.80588,0.87891
17.92,-0.14181,0.68719,0.050781,0.81176,0.87891
17.928,-0.14181,0.68328,0.076172,0.82157,0.85938
17.936,-0.14425,0.67742,0.11523,0.81569,0.83398
17.944,-0.14425,0.67058,0.14453,0.82549,0.81445
17.952,-0.1467,0.66276,0.17578,0.83137,0.79492
17.96,-0.14914,0.65396,0.20117,0.83529,0.78516
17.968,-0.14914,0.64516,0.22461,0.84118,0.76953
17.976,-0.15159,0.63441,0.25,0.85098,0.75391
17.984,-0.15159,0.62268,0.26562,0.8451,0.74414
17.992,-0.15159,0.61193,0.27539,0.83529,0.74023
18,-0.15403,0.59922,0.26953,0.82549,0.74414
18.008,-0.15403,0.58749,0.25586,0.80588,0.75
18.016,-0.15159,0.57478,0.24023,0.78627,0.76953
18.024,-0.15159,0.56403,0.21094,0.76667,0.79492
18.032,-0.15159,0.55425,0.18945,0.75098,0.80469
18.04,-0.15159,0.54448,0.15625,0.73529,0.83008
18.048,-0.15159,0.53372,0.125,0.72157,0.84961
18.056,-0.15159,0.52297,0.095703,0.71569,0.875
18.064,-0.15159,0.5132,0.064453,0.7098,0.88867
18.072,-0.15159,0.50342,0.050781,0.7098,0.89453
18.08,-0.15159,0.49365,0.035156,0.7098,0.91016
18.088,-0.15159,0.48387,0.019531,0.7098,0.91406
18.096,-0.15159,0.4741,0.0058594,0.71569,0.91992
18.104,-0.15403,0.46628,0,0.71569,0.92969
18.112,-0.15403,0.45748,0.0058594,0.72157,0.93555
18.12,-0.15648,0.45161,-0.0097656,0.73137,0.93555
18.128,-0.15648,0.44575,-0.0097656,0.73137,0.93555
18.136,-0.15892,0.43891,-0.013672,0.73529,0.93555
18.144,-0.16137,0.43304,0.0058594,0.73137,0.91992
18.152,-0.16381,0.4262,0.0058594,0.74118,0.91992
18.16,-0.16626,0.42033,0.0097656,0.7451,0.91406
18.168,-0.1687,0.41349,0,0.7451,0.91992
18.176,-0.17115,0.40762,0.015625,0.7451,0.91016
18.184,-0.17359,0.40274,0.041016,0.7451,0.90039
18.192,-0.17604,0.39785,0.060547,0.7451,0.88867
18.2,-0.17848,0.39394,0.070312,0.7549,0.87891
18.208,-0.17848,0.38905,0.089844,0.76078,0.86523
18.216,-0.18093,0.38514,0.10547,0.76078,0.85547
18.224,-0.18337,0.38221,0.14062,0.75098,0.83984
18.232,-0.18337,0.37928,0.16016,0.73529,0.83008
18.24,-0.18582,0.37634,0.16992,0.73529,0.81445
18.248,-0.18582,0.37243,0.18555,0.74118,0.80469
18.256,-0.18582,0.36852,0.16016,0.75098,0.79883
18.264,-0.18582,0.36364,0.13086,0.74118,0.83398
18.272,-0.18582,0.35973,0.095703,0.73529,0.85938
18.28,-0.18582,0.35679,0.035156,0.73137,0.89453
18.288,-0.18337,0.35484,0.0058594,0.73137,0.91406
18.296,-0.18337,0.35386,-0.0097656,0.73137,0.92969
18.304,-0.18093,0.35484,-0.013672,0.72549,0.93555
18.312,-0.17848,0.35777,-0.0097656,0.73529,0.92969
18.32,-0.17604,0.36266,-0.019531,0.73137,0.93555
18.328,-0.17604,0.37048,-0.0097656,0.72549,0.93555
18.336,-0.17359,0.38025,-0.019531,0.76078,0.93945
18.344,-0.17115,0.39492,0.085938,0.77059,0.87891
18.352,-0.1687,0.41251,0.33984,0.48431,0.76562
18.36,-0.16381,0.43304,0.68945,0.41569,0.54492
18.368,-0.16137,0.4565,0.84961,0.57451,0.39062
18.376,-0.15892,0.48289,0.66406,0.65098,0.49023
18.384,-0.15648,0.51026,0.23438,0.75098,0.74414
18.392,-0.15159,0.53763,0.035156,0.6902,0.91016
18.4,-0.14914,0.56598,-0.035156,0.71569,0.95508
18.408,-0.1467,0.59433,-0.048828,0.73529,0.96484
18.416,-0.14425,0.62072,-0.048828,0.75098,0.95898
18.424,-0.13936,0.64321,-0.048828,0.75098,0.95898
18.432,-0.13447,0.66178,-0.054688,0.7549,0.95898
18.44,-0.12958,0.68133,-0.048828,0.75098,0.95898
18.448,-0.12469,0.6999,-0.054688,0.76078,0.95898
18.456,-0.1198,0.7175,-0.058594,0.7549,0.95508
18.464,-0.11491,0.73314,-0.044922,0.7549,0.95898
18.472,-0.11002,0.74585,-0.039062,0.7549,0.95898
18.48,-0.10513,0.7566,-0.048828,0.75098,0.96484
18.488,-0.10024,0.7654,-0.035156,0.7451,0.95898
18.496,-0.095355,0.77126,-0.025391,0.74118,0.94922
18.504,-0.090465,0.77615,0,0.7451,0.93945
18.512,-0.085575,0.7781,-0.0039062,0.75098,0.93555
18.52,-0.08313,0.77713,0.015625,0.75098,0.91992
18.528,-0.07824,0.77419,0.03125,0.75098,0.91016
18.536,-0.07335,0.76931,0.025391,0.76078,0.9043
18.544,-0.06846,0.76344,0.050781,0.76078,0.90039
18.552,-0.06357,0.7566,0.070312,0.76078,0.88477
18.56,-0.05868,0.7478,0.099609,0.77647,0.86523
18.568,-0.05379,0.73803,0.13477,0.78627,0.83984
18.576,-0.0489,0.72727,0.16992,0.79608,0.81055
18.584,-0.04401,0.71457,0.21094,0.80588,0.7793
18.592,-0.03912,0.70186,0.24023,0.81176,0.75977
18.6,-0.03423,0.68719,0.25586,0.82157,0.74414
18.608,-0.026895,0.67253,0.27539,0.83137,0.73438
18.616,-0.022005,0.65787,0.29492,0.83137,0.72461
18.624,-0.01467,0.64321,0.28516,0.82157,0.72461
18.632,-0.007335,0.62952,0.2793,0.8,0.74023
18.64,0,0.61486,0.25977,0.78039,0.75
18.648,0.007335,0.6002,0.24023,0.76078,0.76953
18.656,0.012225,0.58456,0.19531,0.74118,0.80469
18.664,0.01956,0.57087,0.17578,0.71569,0.81445
18.672,0.02445,0.55621,0.14062,0.7,0.84375
18.68,0.031785,0.54252,0.10547,0.68627,0.86914
18.688,0.036675,0.52884,0.076172,0.68039,0.88477
18.696,0.041565,0.51613,0.060547,0.67647,0.89453
18.704,0.046455,0.50342,0.041016,0.68039,0.9043
18.712,0.051345,0.49071,0.03125,0.68039,0.91016
18.72,0.05379,0.48094,0.019531,0.68627,0.91406
18.728,0.056235,0.47214,0.0097656,0.6902,0.91992
18.736,0.061125,0.46334,0,0.69608,0.91992
18.744,0.061125,0.45552,0,0.7,0.92969
18.752,0.06357,0.44575,0.0058594,0.70588,0.92969
18.76,0.06357,0.43695,0.0058594,0.70588,0.91992
18.768,0.06357,0.42913,0,0.7,0.91992
18.776,0.06357,0.42131,0.0058594,0.7,0.92383
18.784,0.06357,0.41447,0.0097656,0.70588,0.91992
18.792,0.061125,0.40665,0.0058594,0.7,0.91016
18.8,0.05868,0.3998,0.019531,0.7,0.91406
18.808,0.05868,0.39394,0.019531,0.70588,0.91016
18.816,0.056235,0.38807,0.015625,0.7098,0.91016
18.824,0.056235,0.38416,0.041016,0.71569,0.89453
18.832,0.05379,0.38123,0.076172,0.7098,0.875
18.84,0.051345,0.37732,0.089844,0.71569,0.86523
18.848,0.051345,0.37439,0.11133,0.71569,0.85547
18.856,0.0489,0.37048,0.13477,0.7098,0.83984
18.864,0.046455,0.36657,0.14062,0.70588,0.83984
18.872,0.046455,0.36266,0.16016,0.69608,0.82031
18.88,0.04401,0.35973,0.17969,0.6902,0.81055
18.888,0.041565,0.35582,0.15625,0.70588,0.80469
18.896,0.041565,0.35288,0.12109,0.7,0.83398
18.904,0.03912,0.34995,0.085938,0.69608,0.85938
18.912,0.03912,0.348,0.035156,0.6902,0.89453
18.92,0.036675,0.34702,-0.0039062,0.6902,0.91016
18.928,0.036675,0.34702,-0.0097656,0.68627,0.91992
18.936,0.036675,0.34897,-0.025391,0.68627,0.93555
18.944,0.036675,0.35288,-0.029297,0.6902,0.93555
18.952,0.03912,0.35875,-0.0097656,0.67647,0.92383
18.96,0.03912,0.3695,-0.013672,0.68039,0.92383
18.968,0.041565,0.38319,-0.019531,0.7,0.93555
18.976,0.041565,0.3998,0.064453,0.73137,0.87891
18.984,0.04401,0.42033,0.29102,0.47451,0.77539
18.992,0.046455,0.44379,0.61523,0.3902,0.57422
19,0.0489,0.47019,0.80469,0.52941,0.40039
19.008,0.051345,0.49756,0.66016,0.6,0.47461
19.016,0.05379,0.5259,0.25586,0.6902,0.72461
19.024,0.056235,0.55034,0.054688,0.63529,0.88477
19.032,0.056235,0.57283,-0.019531,0.66078,0.93555
19.04,0.05868,0.59726,-0.035156,0.6902,0.94531
19.048,0.061125,0.6217,-0.048828,0.7098,0.93945
19.056,0.06357,0.64614,-0.048828,0.7098,0.94531
19.064,0.06357,0.66862,-0.044922,0.7098,0.93945
19.072,0.066015,0.68915,-0.035156,0.70588,0.93555
19.08,0.06846,0.70088,-0.025391,0.7098,0.92383
19.088,0.06846,0.70674,-0.035156,0.7098,0.93555
19.096,0.070905,0.71457,-0.019531,0.7098,0.91992
19.104,0.070905,0.72239,-0.013672,0.70588,0.91992
19.112,0.07335,0.73021,-0.0039062,0.70588,0.91406
19.12,0.07335,0.73412,0,0.7,0.91016
19.128,0.07335,0.73607,0.015625,0.7,0.9043
19.136,0.07335,0.73803,0,0.7098,0.90039
19.144,0.07335,0.73803,0.019531,0.7098,0.89453
19.152,0.075795,0.73705,0.025391,0.7098,0.89453
19.16,0.075795,0.73412,0.041016,0.71569,0.88867
19.168,0.075795,0.72923,0.044922,0.71569,0.88867
19.176,0.075795,0.72336,0.060547,0.72157,0.875
19.184,0.07824,0.71554,0.076172,0.72549,0.86523
19.192,0.07824,0.70674,0.089844,0.73529,0.85547
19.2,0.080685,0.69697,0.11133,0.74118,0.83984
19.208,0.080685,0.68524,0.14453,0.75098,0.81055
19.216,0.08313,0.67449,0.18555,0.76078,0.78906
19.224,0.085575,0.66276,0.20508,0.76667,0.77539
19.232,0.08802,0.65005,0.22461,0.77647,0.75977
19.24,0.09291,0.63636,0.25,0.77059,0.74414
19.248,0.095355,0.6217,0.25586,0.77059,0.74023
19.256,0.10024,0.60704,0.26562,0.76078,0.73438
19.264,0.10269,0.59238,0.25977,0.7451,0.73438
19.272,0.10758,0.57771,0.24609,0.73137,0.75
19.28,0.11002,0.56403,0.21094,0.7098,0.76953
19.288,0.11491,0.54839,0.20117,0.6902,0.78906
19.296,0.11736,0.5347,0.16602,0.67059,0.81055
19.304,0.1198,0.52102,0.14453,0.65098,0.83008
19.312,0.12469,0.50733,0.11133,0.63529,0.84961
19.32,0.12469,0.49658,0.076172,0.62941,0.875
19.328,0.12714,0.48778,0.054688,0.61961,0.88867
19.336,0.12958,0.47703,0.025391,0.62549,0.9043
19.344,0.13203,0.46725,0.03125,0.61961,0.90039
19.352,0.13203,0.4565,0.015625,0.62549,0.9043
19.36,0.13447,0.44673,0.0097656,0.62549,0.9043
19.368,0.13447,0.43695,0,0.63529,0.91016
19.376,0.13447,0.42717,0.0097656,0.64118,0.9043
19.384,0.13203,0.41838,0,0.65098,0.91016
19.392,0.13203,0.41056,0,0.6549,0.91016
19.4,0.12958,0.40274,-0.0097656,0.66078,0.91016
19.408,0.12714,0.39589,0,0.66471,0.9043
19.416,0.12469,0.39003,0,0.66078,0.9043
19.424,0.12225,0.38514,0,0.66471,0.91016
19.432,0.11736,0.38025,0.0058594,0.66471,0.88867
19.44,0.11247,0.37439,0,0.67059,0.89453
19.448,0.11002,0.3695,0.019531,0.66471,0.88867
19.456,0.10758,0.36364,0.044922,0.66471,0.88477
19.464,0.10269,0.35875,0.050781,0.67647,0.86523
19.472,0.10024,0.35484,0.076172,0.67059,0.84961
19.48,0.0978,0.35191,0.085938,0.68039,0.83984
19.488,0.0978,0.34897,0.099609,0.67647,0.83398
19.496,0.095355,0.34702,0.125,0.6549,0.81445
19.504,0.09291,0.34409,0.14062,0.6451,0.80469
19.512,0.09291,0.34213,0.16602,0.64118,0.78906
19.52,0.090465,0.34018,0.15625,0.65098,0.78516
19.528,0.090465,0.33822,0.12109,0.6549,0.80469
19.536,0.08802,0.33529,0.080078,0.64118,0.83398
19.544,0.08802,0.33236,0.044922,0.62941,0.86523
19.552,0.08802,0.3304,0.0058594,0.64118,0.88477
19.56,0.090465,0.32845,-0.029297,0.64118,0.91016
19.568,0.090465,0.32845,-0.054688,0.62549,0.91992
19.576,0.09291,0.3304,-0.054688,0.61961,0.92969
19.584,0.095355,0.33627,-0.048828,0.61569,0.92383
19.592,0.0978,0.34506,-0.054688,0.62941,0.91992
19.6,0.10024,0.35679,-0.044922,0.62549,0.91016
19.608,0.10269,0.37243,0.0058594,0.67059,0.875
19.616,0.10513,0.38807,0.21094,0.48431,0.7793
19.624,0.10513,0.40567,0.5293,0.33922,0.58984
19.632,0.10758,0.42522,0.76562,0.4451,0.39453
19.64,0.11002,0.44868,0.68945,0.53529,0.37109
19.648,0.11247,0.47312,0.29492,0.62549,0.65039
19.656,0.11736,0.49951,0.060547,0.5902,0.83984
19.664,0.1198,0.52493,-0.025391,0.58039,0.89453
19.672,0.12225,0.54936,-0.064453,0.63529,0.91406
19.68,0.12469,0.57283,-0.054688,0.6549,0.90039
19.688,0.12469,0.59531,-0.039062,0.65098,0.89453
19.696,0.12714,0.61681,-0.048828,0.6549,0.88867
19.704,0.12958,0.63636,-0.054688,0.66078,0.89453
19.712,0.12958,0.65298,-0.039062,0.66078,0.87891
19.72,0.13203,0.66569,-0.048828,0.66471,0.88477
19.728,0.13447,0.67546,-0.029297,0.6549,0.875
19.736,0.13692,0.68524,-0.013672,0.65098,0.85938
19.744,0.13692,0.69404,-0.0039062,0.6549,0.85547
19.752,0.13936,0.70088,0,0.6549,0.84961
19.76,0.14181,0.70577,0.0058594,0.65098,0.84375
19.768,0.14181,0.7087,0.019531,0.66078,0.83398
19.776,0.14425,0.70968,0.015625,0.66471,0.83984
19.784,0.14425,0.7087,0.041016,0.66078,0.81445
19.792,0.14425,0.70577,0.044922,0.66078,0.81445
19.8,0.14425,0.70088,0.054688,0.66471,0.81445
19.808,0.1467,0.69404,0.064453,0.67647,0.80469
19.816,0.1467,0.68622,0.085938,0.68039,0.78906
19.824,0.14914,0.67742,0.10547,0.68627,0.77539
19.832,0.14914,0.66667,0.12109,0.6902,0.75977
19.84,0.15159,0.65494,0.16016,0.69608,0.73438
19.848,0.15159,0.64223,0.19531,0.70588,0.70508
19.856,0.15403,0.62952,0.20117,0.72157,0.69531
19.864,0.15648,0.61584,0.23047,0.72157,0.67578
19.872,0.15648,0.60313,0.25586,0.72549,0.66406
19.88,0.15892,0.58944,0.25977,0.72157,0.6543
19.888,0.16137,0.57576,0.26562,0.7098,0.66016
19.896,0.16381,0.56207,0.27539,0.69608,0.6543
19.904,0.16626,0.54741,0.25,0.68039,0.66992
19.912,0.1687,0.53372,0.22461,0.6549,0.68555
19.92,0.17115,0.52199,0.20117,0.63529,0.70898
19.928,0.17115,0.51026,0.17969,0.6098,0.72461
19.936,0.17359,0.49756,0.14453,0.59608,0.74414
19.944,0.17359,0.48192,0.12109,0.58039,0.76562
19.952,0.17604,0.46823,0.095703,0.57059,0.7793
19.96,0.17604,0.45846,0.064453,0.56471,0.79492
19.968,0.17604,0.4477,0.041016,0.57059,0.81445
19.976,0.17359,0.43793,0.035156,0.57059,0.82031
19.984,0.17115,0.42717,0.025391,0.57059,0.82031
19.992,0.17115,0.4174,0.019531,0.58431,0.82031
20,0.1687,0.4086,0.0058594,0.58431,0.83398
20.008,0.16626,0.40078,0,0.58431,0.83398
20.016,0.16381,0.39394,0,0.59608,0.83008
20.024,0.16137,0.38905,0,0.5902,0.82422
20.032,0.15648,0.38319,0,0.60588,0.82031
20.04,0.15159,0.37634,0.0058594,0.6,0.81445
20.048,0.14914,0.37048,0.015625,0.6098,0.81445
20.056,0.14181,0.36559,0.0097656,0.60588,0.81055
20.064,0.13692,0.35973,0.025391,0.6098,0.79492
20.072,0.13203,0.35386,0.035156,0.60588,0.79492
20.08,0.12469,0.34897,0.044922,0.6098,0.78906
20.088,0.1198,0.34506,0.041016,0.61569,0.78516
20.096,0.11736,0.34018,0.076172,0.61569,0.76562
20.104,0.11247,0.33529,0.099609,0.61961,0.75
20.112,0.10758,0.33138,0.11133,0.62549,0.74023
20.12,0.10513,0.32845,0.13477,0.62549,0.72461
20.128,0.10024,0.32747,0.16602,0.6098,0.71484
20.136,0.0978,0.32551,0.16602,0.6,0.7207
20.144,0.095355,0.32258,0.18945,0.6,0.68945
20.152,0.09291,0.32063,0.20117,0.60588,0.68555
20.16,0.090465,0.31769,0.16016,0.6098,0.69922
20.168,0.08802,0.31574,0.125,0.6,0.72461
20.176,0.085575,0.31476,0.076172,0.59608,0.75977
20.184,0.08313,0.31281,0.03125,0.6,0.78516
20.192,0.080685,0.31183,0,0.6,0.80469
20.2,0.080685,0.31183,-0.013672,0.59608,0.81445
20.208,0.07824,0.31378,-0.013672,0.59608,0.81445
20.216,0.07824,0.31672,-0.0097656,0.58431,0.81445
20.224,0.075795,0.3216,-0.025391,0.5902,0.82031
20.232,0.075795,0.3304,-0.0097656,0.59608,0.81445
20.24,0.07335,0.34311,-0.013672,0.6451,0.79883
20.248,0.07335,0.35973,0.16992,0.52549,0.72461
20.256,0.07335,0.37928,0.43555,0.32353,0.58398
20.264,0.070905,0.40274,0.73438,0.3,0.37109
20.272,0.070905,0.42815,0.76953,0.46078,0.32031
20.28,0.06846,0.45455,0.39062,0.55098,0.53516
20.288,0.06846,0.48094,0.12109,0.57059,0.73047
20.296,0.066015,0.50733,-0.0097656,0.53529,0.82422
20.304,0.06357,0.53275,-0.048828,0.5902,0.84375
20.312,0.06357,0.55718,-0.074219,0.61569,0.85938
20.32,0.061125,0.57674,-0.070312,0.61569,0.85547
20.328,0.05868,0.59335,-0.058594,0.61569,0.84375
20.336,0.056235,0.61095,-0.070312,0.61569,0.84961
20.344,0.05379,0.62854,-0.070312,0.61569,0.84961
