Time [s], I, RESP, II, V, PLETH
0,0.75977,0,0.10392,0.7098,0.45455
0.008,0.75977,0,0.10392,0.7098,0.44966
0.016,0.76562,0,0.10392,0.7098,0.44673
0.024,0.76953,0,0.10392,0.7098,0.44379
0.032,0.75977,0,0.10392,0.7098,0.44477
0.04,0.75977,0,0.10392,0.7098,0.4477
0.048,0.75977,0,0.10392,0.7098,0.45357
0.056,0.75977,0,0.10392,0.7098,0.46237
0.064,0.76562,0,0.10392,0.7098,0.47214
0.072,0.75977,0,0.098039,0.7098,0.48485
0.08,0.75977,0,0.098039,0.7098,0.49658
0.088,0.76562,0,0.10392,0.70588,0.50929
0.096,0.75977,0,0.10392,0.7098,0.52199
0.104,0.75977,0,0.10392,0.70588,0.53372
0.112,0.75977,0,0.10392,0.70588,0.5435
0.12,0.75977,0,0.098039,0.7,0.5523
0.128,0.75977,0,0.10392,0.70588,0.56207
0.136,0.75977,0,0.094118,0.70588,0.57185
0.144,0.75977,0,0.094118,0.7,0.57967
0.152,0.75977,0,0.094118,0.7098,0.58553
0.16,0.76562,0,0.098039,0.70588,0.59042
0.168,0.75391,0,0.088235,0.7098,0.59335
0.176,0.75391,0,0.094118,0.70588,0.59433
0.184,0.75977,0,0.088235,0.7098,0.59433
0.192,0.75977,0,0.088235,0.7098,0.59238
0.2,0.75977,0,0.088235,0.7098,0.58944
0.208,0.75977,0,0.078431,0.7098,0.58651
0.216,0.75977,0,0.084314,0.7098,0.5826
0.224,0.76562,0,0.098039,0.70588,0.57771
0.232,0.75977,0,0.088235,0.7098,0.57185
0.24,0.75977,0,0.094118,0.71569,0.56403
0.248,0.75977,0,0.098039,0.70588,0.55718
0.256,0.75977,0,0.094118,0.7098,0.54839
0.264,0.75977,0,0.098039,0.7098,0.53959
0.272,0.76562,0,0.10392,0.70588,0.53079
0.28,0.75977,0.046921,0.098039,0.7,0.52199
0.288,0.76953,0.093842,0.12941,0.6902,0.51417
0.296,0.76562,0.15347,0.13333,0.6902,0.50733
0.304,0.76953,0.2131,0.12941,0.69608,0.49951
0.312,0.76953,0.28055,0.13333,0.7,0.49267
0.32,0.7793,0.34897,0.12941,0.70588,0.4868
0.328,0.7793,0.42326,0.11373,0.7098,0.48094
0.336,0.7793,0.49853,0.11961,0.70588,0.47507
0.344,0.7793,0.57576,0.10392,0.70588,0.46921
0.352,0.78906,0.65298,0.098039,0.7098,0.46334
0.36,0.80469,0.71848,0.11373,0.71569,0.45748
0.368,0.81055,0.78397,0.11373,0.72157,0.45064
0.376,0.79883,0.83773,0.1098,0.71569,0.44379
0.384,0.77539,0.8915,0.10392,0.7098,0.43793
0.392,0.76562,0.93353,0.10392,0.7098,0.43109
0.4,0.76562,0.97556,0.088235,0.71569,0.42522
0.408,0.75977,0.98827,0.084314,0.7098,0.41935
0.416,0.75977,1,0.094118,0.7098,0.41447
0.424,0.76562,1,0.084314,0.71569,0.40958
0.432,0.76562,1,0.084314,0.7098,0.40469
0.44,0.76953,1,0.094118,0.71569,0.3998
0.448,0.76562,1,0.088235,0.7098,0.39492
0.456,0.75977,1,0.088235,0.7098,0.39101
0.464,0.70898,1,0.098039,0.7,0.38221
0.472,0.70508,1,0.11373,0.71569,0.37048
0.48,1.0293,1,0.32353,0.7902,0.36266
0.488,1.375,1,0.56078,0.81176,0.35582
0.496,1.4492,1,0.32353,0.81569,0.34897
0.504,0.73438,1,-0.056863,0.53922,0.34409
0.512,0.60547,1,-0.11765,0.51961,0.34018
0.52,0.69922,1,-0.0058823,0.67647,0.33724
0.528,0.74023,1,0.04902,0.71569,0.33431
0.536,0.74023,1,0.07451,0.71569,0.3304
0.544,0.73438,1,0.068627,0.71569,0.32649
0.552,0.73047,1,0.068627,0.71569,0.32258
0.56,0.73438,1,0.088235,0.7098,0.31867
0.568,0.74414,1,0.094118,0.71569,0.31476
0.576,0.74414,1,0.088235,0.71569,0.31085
0.584,0.74023,1,0.078431,0.72157,0.30694
0.592,0.75,1,0.088235,0.72549,0.30205
0.6,0.75391,1,0.078431,0.72157,0.29912
0.608,0.75391,1,0.078431,0.72157,0.29619
0.616,0.75391,1,0.088235,0.72157,0.29423
0.624,0.75977,1,0.088235,0.72549,0.2913
0.632,0.75391,1,0.084314,0.72549,0.28739
0.64,0.75977,1,0.094118,0.72549,0.2825
0.648,0.76562,1,0.098039,0.72549,0.27664
0.656,0.76953,1,0.094118,0.73137,0.27175
0.664,0.77539,1,0.10392,0.72549,0.26784
0.672,0.78516,1,0.11373,0.72549,0.26393
0.68,0.78516,1,0.1098,0.73137,0.25904
0.688,0.78906,1,0.11961,0.72549,0.25513
0.696,0.79883,1,0.12941,0.73529,0.2522
0.704,0.81055,1,0.12353,0.73529,0.24829
0.712,0.81445,1,0.12941,0.74118,0.24731
0.72,0.82031,1,0.12941,0.74118,0.24633
0.728,0.82422,1,0.13922,0.73529,0.24438
0.736,0.83008,1,0.14902,0.73137,0.2434
0.744,0.83398,1,0.16471,0.73137,0.24242
0.752,0.83008,1,0.14902,0.74118,0.24047
0.76,0.82422,1,0.13333,0.73529,0.23851
0.768,0.82422,1,0.12353,0.73529,0.23656
0.776,0.82031,1,0.12941,0.73137,0.2346
0.784,0.81055,1,0.11373,0.72549,0.23167
0.792,0.80469,1,0.088235,0.72549,0.22874
0.8,0.81055,1,0.094118,0.73529,0.22678
0.808,0.79883,1,0.078431,0.73137,0.22581
0.816,0.79492,1,0.068627,0.72157,0.22581
0.824,0.82422,1,0.11961,0.72549,0.22483
0.832,0.83008,1,0.12941,0.73529,0.22385
0.84,0.81055,1,0.1098,0.74118,0.22287
0.848,0.78516,1,0.094118,0.72157,0.22092
0.856,0.78516,1,0.098039,0.72157,0.21994
0.864,0.76953,1,0.10392,0.71569,0.21799
0.872,0.77539,1,0.098039,0.71569,0.21603
0.88,0.76562,1,0.10392,0.7098,0.2131
0.888,0.75977,1,0.094118,0.70588,0.21114
0.896,0.76562,1,0.1098,0.7098,0.21017
0.904,0.75977,1,0.10392,0.71569,0.20919
0.912,0.75977,1,0.088235,0.7098,0.20919
0.92,0.75977,1,0.088235,0.7098,0.21017
0.928,0.75391,1,0.098039,0.7,0.21017
0.936,0.75977,1,0.1098,0.70588,0.21017
0.944,0.76562,1,0.10392,0.70588,0.21017
0.952,0.75977,1,0.10392,0.71569,0.21114
0.96,0.76953,1,0.098039,0.71569,0.21505
0.968,0.76562,1,0.10392,0.7098,0.2219
0.976,0.75977,1,0.11961,0.7098,0.23265
0.984,0.75391,1,0.15882,0.73529,0.24731
0.992,1.0703,1,0.34902,0.77059,0.26491
1,1.3242,1,0.51961,0.73529,0.28543
1.008,1.1738,1,0.18824,0.7,0.30596
1.016,0.67578,1,-0.066667,0.51569,0.32454
1.024,0.625,1,-0.0019608,0.58431,0.34702
1.032,0.73047,1,0.07451,0.67059,0.37048
1.04,0.74023,1,0.088235,0.70588,0.39492
1.048,0.75,1,0.098039,0.71569,0.41935
1.056,0.74414,1,0.088235,0.71569,0.44282
1.064,0.74023,1,0.078431,0.72157,0.46725
1.072,0.75391,1,0.094118,0.73137,0.48974
1.08,0.75,1,0.078431,0.73137,0.5132
1.088,0.75977,1,0.068627,0.73529,0.5347
1.096,0.75,1,0.062745,0.73137,0.55425
1.104,0.74414,1,0.088235,0.72549,0.57087
1.112,0.75,1,0.098039,0.72549,0.58358
1.12,0.75,1,0.07451,0.73529,0.59726
1.128,0.75977,1,0.094118,0.73529,0.61095
1.136,0.76562,1,0.078431,0.73529,0.62366
1.144,0.75977,1,0.07451,0.73529,0.63539
1.152,0.77539,1,0.094118,0.73137,0.64614
1.16,0.76953,1,0.098039,0.73529,0.65494
1.168,0.76562,1,0.07451,0.73137,0.66178
1.176,0.7793,1,0.1098,0.73529,0.66764
1.184,0.77539,1,0.12941,0.72549,0.67155
1.192,0.78516,1,0.11373,0.73137,0.67449
1.2,0.79492,1,0.11373,0.74118,0.67449
1.208,0.79883,1,0.11961,0.74118,0.67351
1.216,0.80469,1,0.12941,0.73529,0.6696
1.224,0.81055,1,0.13922,0.74118,0.66471
1.232,0.81055,1,0.14314,0.74118,0.65689
1.24,0.81055,1,0.11373,0.74118,0.64907
1.248,0.81055,1,0.11961,0.74118,0.6393
1.256,0.81055,1,0.13333,0.72549,0.62952
1.264,0.80469,1,0.12941,0.72157,0.61975
1.272,0.81055,1,0.12941,0.72549,0.60997
1.28,0.81055,1,0.12353,0.72549,0.6002
1.288,0.81055,1,0.12353,0.72157,0.59042
1.296,0.81055,1,0.1098,0.72549,0.58162
1.304,0.81055,1,0.098039,0.73137,0.5738
1.312,0.81055,1,0.12353,0.72549,0.565
1.32,0.79883,1,0.11373,0.71569,0.55621
1.328,0.78906,1,0.10392,0.71569,0.54839
1.336,0.78516,1,0.10392,0.71569,0.53959
1.344,0.7793,1,0.088235,0.72157,0.52981
1.352,0.78516,1,0.084314,0.71569,0.52004
1.36,0.77539,1,0.098039,0.71569,0.51026
1.368,0.76562,1,0.094118,0.71569,0.50049
1.376,0.75977,1,0.084314,0.71569,0.49071
1.384,0.76562,1,0.088235,0.71569,0.48094
1.392,0.76562,1,0.07451,0.72157,0.47214
1.4,0.76562,1,0.078431,0.72157,0.46334
1.408,0.76953,1,0.084314,0.72157,0.4565
1.416,0.76953,1,0.084314,0.72157,0.44966
1.424,0.76562,1,0.088235,0.72157,0.44282
1.432,0.76562,1,0.078431,0.72157,0.435
1.44,0.76562,1,0.084314,0.72157,0.42717
1.448,0.76953,1,0.088235,0.72157,0.41935
1.456,0.76953,1,0.094118,0.72549,0.41251
1.464,0.77539,1,0.084314,0.72549,0.40665
1.472,0.76953,1,0.084314,0.72549,0.40078
1.48,0.76953,1,0.094118,0.72157,0.39687
1.488,0.76953,1,0.098039,0.72157,0.39296
1.496,0.77539,1,0.10392,0.72157,0.39101
1.504,0.76953,1,0.098039,0.71569,0.39101
1.512,0.76953,1,0.10392,0.71569,0.39296
1.52,0.76953,1,0.10392,0.71569,0.39785
1.528,0.76562,1,0.10392,0.71569,0.40371
1.536,0.76953,1,0.10392,0.71569,0.41056
1.544,0.77539,1,0.10392,0.71569,0.41935
1.552,0.77539,1,0.10392,0.71569,0.42913
1.56,0.77539,1,0.10392,0.71569,0.43988
1.568,0.76953,1,0.10392,0.71569,0.44966
1.576,0.76953,1,0.098039,0.71569,0.45943
1.584,0.76953,1,0.10392,0.71569,0.46725
1.592,0.76953,1,0.10392,0.71569,0.47507
1.6,0.76562,1,0.10392,0.71569,0.48192
1.608,0.76953,1,0.10392,0.71569,0.4868
1.616,0.76953,1,0.10392,0.71569,0.49071
1.624,0.77539,1,0.10392,0.71569,0.49462
1.632,0.77539,1,0.10392,0.71569,0.49756
1.64,0.77539,1,0.10392,0.71569,0.49853
1.648,0.77539,1,0.10392,0.71569,0.49853
1.656,0.7793,1,0.10392,0.71569,0.49756
1.664,0.7793,1,0.1098,0.71569,0.4956
1.672,0.7793,1,0.1098,0.71569,0.49169
1.68,0.7793,1,0.11373,0.7098,0.4868
1.688,0.7793,1,0.11961,0.7098,0.47996
1.696,0.7793,1,0.11961,0.7098,0.47312
1.704,0.7793,1,0.11373,0.71569,0.46725
1.712,0.77539,1,0.11961,0.7098,0.46041
1.72,0.7793,1,0.11961,0.7098,0.45357
1.728,0.7793,1,0.11961,0.7098,0.44575
1.736,0.7793,1,0.11961,0.7098,0.43793
1.744,0.7793,1,0.11373,0.71569,0.43011
1.752,0.7793,1,0.11961,0.7098,0.42326
1.76,0.78516,1,0.11961,0.7098,0.4174
1.768,0.7793,1,0.12941,0.7,0.41349
1.776,0.78516,1,0.14314,0.69608,0.40762
1.784,0.7793,1,0.14902,0.7,0.40274
1.792,0.78516,1,0.1549,0.70588,0.39687
1.8,0.78516,1,0.14902,0.7,0.39003
1.808,0.78906,1,0.14902,0.7098,0.38612
1.816,0.78906,1,0.13333,0.7098,0.38221
1.824,0.79492,1,0.13922,0.7098,0.3783
1.832,0.79883,1,0.12353,0.71569,0.37439
1.84,0.81055,1,0.11961,0.71569,0.37048
1.848,0.81445,0.99804,0.12353,0.72157,0.36657
1.856,0.81055,0.99609,0.12941,0.72157,0.36266
1.864,0.79883,0.98827,0.13333,0.71569,0.35875
1.872,0.78516,0.98045,0.11373,0.71569,0.35386
1.88,0.78516,0.97263,0.10392,0.72157,0.34897
1.888,0.78516,0.96481,0.098039,0.72157,0.34409
1.896,0.77539,0.95699,0.098039,0.72157,0.34018
1.904,0.77539,0.94917,0.094118,0.72157,0.3392
1.912,0.76953,0.94135,0.094118,0.72157,0.33822
1.92,0.77539,0.93451,0.094118,0.72157,0.33724
1.928,0.7793,0.92766,0.094118,0.72157,0.33724
1.936,0.7793,0.9218,0.094118,0.72157,0.33724
1.944,0.75391,0.91593,0.098039,0.71569,0.33724
1.952,0.7207,0.91007,0.10392,0.7098,0.33724
1.96,0.84375,0.90323,0.19412,0.7549,0.33724
1.968,1.1934,0.89638,0.46471,0.79608,0.33627
1.976,1.4336,0.88954,0.58039,0.78627,0.33529
1.984,1.1289,0.8827,0.16863,0.8,0.33529
1.992,0.6543,0.87292,-0.10196,0.55098,0.33529
2,0.64453,0.86413,-0.05098,0.62941,0.33529
2.008,0.74023,0.85337,0.017647,0.70588,0.33529
2.016,0.75,0.84262,0.052941,0.71569,0.33529
2.024,0.74414,0.83187,0.062745,0.71569,0.33431
2.032,0.75,0.82014,0.068627,0.71569,0.33333
2.04,0.75,0.80841,0.078431,0.72157,0.33236
2.048,0.75,0.79668,0.078431,0.71569,0.33138
2.056,0.75,0.78299,0.078431,0.72157,0.3304
2.064,0.75391,0.76931,0.078431,0.72157,0.32845
2.072,0.75,0.75562,0.084314,0.71569,0.32747
2.08,0.75391,0.74096,0.078431,0.72157,0.32551
2.088,0.75977,0.72727,0.078431,0.72157,0.32454
2.096,0.75977,0.71261,0.088235,0.72157,0.32356
2.104,0.75977,0.69892,0.094118,0.72157,0.32258
2.112,0.75977,0.68426,0.084314,0.72157,0.3216
2.12,0.76562,0.6696,0.094118,0.72549,0.32063
2.128,0.76562,0.65494,0.098039,0.72549,0.31867
2.136,0.76953,0.6393,0.10392,0.72549,0.31672
2.144,0.77539,0.62366,0.10392,0.72549,0.31476
2.152,0.7793,0.60704,0.10392,0.72549,0.31281
2.16,0.78516,0.5914,0.10392,0.73137,0.31085
2.168,0.78906,0.5738,0.11373,0.73137,0.30987
2.176,0.79492,0.55718,0.11373,0.73137,0.30792
2.184,0.80469,0.53861,0.12941,0.73137,0.30694
2.192,0.81055,0.52004,0.12941,0.73137,0.30499
2.2,0.82031,0.50049,0.13922,0.73529,0.30401
2.208,0.82031,0.47996,0.13922,0.74118,0.30205
2.216,0.83008,0.45846,0.13922,0.74118,0.3001
2.224,0.83008,0.43793,0.13922,0.74118,0.29814
2.232,0.83008,0.41544,0.14314,0.74118,0.29619
2.24,0.83008,0.39394,0.13922,0.74118,0.29423
2.248,0.83008,0.37146,0.13333,0.74118,0.29326
2.256,0.81445,0.34995,0.12353,0.73137,0.29326
2.264,0.81445,0.32942,0.1098,0.73137,0.29228
2.272,0.81055,0.30792,0.088235,0.74118,0.29228
2.28,0.81055,0.28739,0.078431,0.74118,0.29228
2.288,0.80469,0.26588,0.088235,0.72157,0.29228
2.296,0.82422,0.24536,0.1098,0.73137,0.29228
2.304,0.83398,0.22483,0.12941,0.73529,0.29326
2.312,0.81055,0.20626,0.11961,0.72549,0.29423
2.32,0.79883,0.18671,0.11373,0.72157,0.29423
2.328,0.78906,0.16911,0.1098,0.71569,0.29423
2.336,0.78516,0.15152,0.1098,0.71569,0.29423
2.344,0.78516,0.13294,0.10392,0.71569,0.29326
2.352,0.7793,0.11437,0.1098,0.71569,0.29228
2.36,0.77539,0.095797,0.11373,0.70588,0.29032
2.368,0.77539,0.077224,0.11373,0.7098,0.28837
2.376,0.76953,0.056696,0.1098,0.70588,0.28641
2.384,0.75977,0.037146,0.10392,0.7098,0.28641
2.392,0.76562,0.018573,0.10392,0.70588,0.28543
2.4,0.75977,0,0.10392,0.70588,0.28543
2.408,0.76562,0,0.10392,0.7098,0.28641
2.416,0.76953,0,0.10392,0.70588,0.28739
2.424,0.76562,0,0.10392,0.70588,0.28837
2.432,0.76953,0,0.10392,0.7098,0.28935
2.44,0.77539,0,0.11373,0.7098,0.29326
2.448,0.76562,0,0.11961,0.7098,0.29814
2.456,0.75977,0,0.12941,0.70588,0.30694
2.464,0.7793,0,0.16471,0.72157,0.31867
2.472,0.99414,0,0.29412,0.78039,0.33333
2.48,1.3145,0,0.47451,0.79608,0.34995
2.488,1.3887,0,0.22941,0.80588,0.37048
2.496,0.88477,0,-0.072549,0.62549,0.39198
2.504,0.71484,0,-0.021569,0.57451,0.41056
2.512,0.74023,0,0.07451,0.6549,0.44477
2.52,0.74414,0,0.10392,0.7,0.48778
2.528,0.74023,0,0.10392,0.7098,0.52297
2.536,0.73438,0,0.098039,0.71569,0.5523
2.544,0.74023,0,0.098039,0.71569,0.57967
2.552,0.73438,0,0.094118,0.72157,0.60508
2.56,0.73438,0,0.088235,0.71569,0.62952
2.568,0.74023,0,0.088235,0.72157,0.65103
2.576,0.74023,0,0.088235,0.72157,0.67253
2.584,0.74023,0,0.084314,0.72549,0.69306
2.592,0.74414,0,0.088235,0.72157,0.71261
2.6,0.74023,0,0.088235,0.72157,0.73021
2.608,0.74414,0,0.088235,0.72549,0.74389
2.616,0.75,0,0.084314,0.72549,0.75464
2.624,0.75391,0,0.098039,0.73137,0.7654
2.632,0.75977,0,0.098039,0.72549,0.77615
2.64,0.75977,0,0.10392,0.72549,0.78495
2.648,0.76562,0,0.10392,0.72549,0.79277
2.656,0.76562,0,0.1098,0.73137,0.79863
2.664,0.76953,0,0.11373,0.73137,0.80254
2.672,0.7793,0,0.11961,0.73529,0.8045
2.68,0.78516,0,0.12353,0.73529,0.80547
2.688,0.78516,0,0.12941,0.73137,0.8045
2.696,0.78906,0,0.12941,0.73529,0.80156
2.704,0.79883,0,0.13333,0.73529,0.79765
2.712,0.79883,0,0.12941,0.73529,0.79179
2.72,0.80469,0,0.12941,0.73529,0.78495
2.728,0.81055,0,0.13333,0.73529,0.77615
2.736,0.81055,0,0.12941,0.74118,0.76637
2.744,0.81055,0,0.12941,0.74118,0.7566
2.752,0.81055,0,0.12941,0.73529,0.74585
2.76,0.79883,0,0.11373,0.73529,0.73412
2.768,0.80469,0,0.12353,0.73137,0.72239
2.776,0.81055,0,0.11961,0.73137,0.71163
2.784,0.79883,0,0.11373,0.72549,0.6999
2.792,0.79883,0,0.11961,0.72549,0.68817
2.8,0.79883,0,0.11373,0.72549,0.67644
2.808,0.79883,0,0.11373,0.72157,0.66667
2.816,0.79492,0,0.11373,0.72157,0.65689
2.824,0.78516,0,0.10392,0.71569,0.64712
2.832,0.7793,0,0.1098,0.71569,0.63832
2.84,0.76953,0,0.10392,0.71569,0.62952
2.848,0.76562,0,0.098039,0.71569,0.61975
2.856,0.76953,0,0.098039,0.71569,0.61095
2.864,0.76562,0,0.094118,0.71569,0.60215
2.872,0.76562,0,0.10392,0.7098,0.59335
2.88,0.76953,0,0.10392,0.7098,0.58456
2.888,0.76562,0,0.10392,0.7098,0.57576
2.896,0.75977,0,0.10392,0.7098,0.56891
2.904,0.76562,0,0.10392,0.7098,0.56305
2.912,0.76562,0,0.10392,0.7098,0.55718
2.92,0.75977,0,0.10392,0.70588,0.55034
2.928,0.75977,0,0.10392,0.7098,0.54252
2.936,0.76953,0,0.10392,0.7098,0.53372
2.944,0.76562,0,0.10392,0.7098,0.5259
2.952,0.76953,0,0.10392,0.7098,0.52102
2.96,0.76562,0,0.10392,0.71569,0.51515
2.968,0.76953,0,0.10392,0.7098,0.51124
2.976,0.76562,0,0.098039,0.7098,0.50929
2.984,0.76953,0,0.10392,0.70588,0.50929
2.992,0.76562,0,0.098039,0.71569,0.5132
3,0.76953,0,0.088235,0.7098,0.51711
3.008,0.76953,0,0.088235,0.7098,0.52297
3.016,0.76562,0,0.084314,0.7098,0.53177
3.024,0.76562,0,0.088235,0.7098,0.54252
3.032,0.75977,0,0.084314,0.7098,0.55327
3.04,0.76562,0,0.088235,0.7098,0.56403
3.048,0.75977,0,0.088235,0.7098,0.57478
3.056,0.76562,0,0.084314,0.7098,0.58456
3.064,0.75977,0,0.084314,0.70588,0.59531
3.072,0.75977,0,0.084314,0.70588,0.60411
3.08,0.76562,0,0.078431,0.7098,0.60997
3.088,0.76562,0,0.084314,0.71569,0.61388
3.096,0.75977,0,0.078431,0.71569,0.61681
3.104,0.75977,0,0.078431,0.7098,0.61681
3.112,0.75977,0,0.084314,0.71569,0.61486
3.12,0.76562,0,0.078431,0.7098,0.61388
3.128,0.76562,0,0.078431,0.7098,0.61095
3.136,0.75977,0,0.084314,0.7098,0.60606
3.144,0.76562,0,0.078431,0.7098,0.60117
3.152,0.77539,0,0.084314,0.71569,0.59531
3.16,0.76953,0,0.084314,0.7098,0.58944
3.168,0.76953,0,0.088235,0.7098,0.5826
3.176,0.77539,0,0.088235,0.70588,0.57478
3.184,0.76953,0,0.088235,0.71569,0.56696
3.192,0.76562,0,0.088235,0.7098,0.55816
3.2,0.76953,0,0.088235,0.71569,0.54936
3.208,0.77539,0,0.088235,0.7098,0.54154
3.216,0.7793,0,0.094118,0.70588,0.53372
3.224,0.76953,0,0.10392,0.7,0.52493
3.232,0.7793,0,0.11961,0.70588,0.51711
3.24,0.7793,0,0.12941,0.7,0.51222
3.248,0.78516,0,0.12941,0.70588,0.50635
3.256,0.79492,0,0.12353,0.7,0.49951
3.264,0.79492,0,0.11373,0.71569,0.49267
3.272,0.79492,0,0.10392,0.71569,0.4868
3.28,0.79883,0,0.1098,0.71569,0.47996
3.288,0.81055,0,0.10392,0.72157,0.47507
3.296,0.81445,0,0.098039,0.72549,0.46921
3.304,0.82031,0,0.10392,0.72157,0.46334
3.312,0.80469,0,0.11373,0.71569,0.45943
3.32,0.78516,0,0.098039,0.71569,0.45552
3.328,0.77539,0,0.088235,0.7098,0.45161
3.336,0.77539,0,0.078431,0.71569,0.44673
3.344,0.77539,0,0.078431,0.71569,0.44282
3.352,0.7793,0,0.07451,0.71569,0.43793
3.36,0.76953,0,0.07451,0.71569,0.43304
3.368,0.76953,0,0.07451,0.71569,0.42913
3.376,0.77539,0,0.062745,0.72157,0.42424
3.384,0.77539,0,0.068627,0.71569,0.42033
3.392,0.76562,0,0.078431,0.72157,0.41544
3.4,0.72461,0,0.084314,0.7,0.41153
3.408,0.71484,0,0.11373,0.72157,0.40762
3.416,1.0039,0,0.29412,0.8,0.40371
3.424,1.3848,0,0.52941,0.84118,0.39883
3.432,1.4941,0,0.33529,0.87059,0.39296
3.44,0.84961,0,-0.060784,0.6,0.38905
3.448,0.65039,0,-0.13137,0.55098,0.38416
3.456,0.71484,0,-0.027451,0.67059,0.38123
3.464,0.74023,0,0.033333,0.71569,0.3783
3.472,0.73438,0,0.052941,0.7098,0.37634
3.48,0.73438,0,0.062745,0.71569,0.37243
3.488,0.73438,0,0.062745,0.71569,0.36852
3.496,0.73438,0,0.062745,0.71569,0.36461
3.504,0.74414,0,0.07451,0.72157,0.36168
3.512,0.74023,0,0.068627,0.71569,0.35875
3.52,0.74414,0,0.07451,0.71569,0.35484
3.528,0.75,0,0.078431,0.72157,0.35093
3.536,0.74023,0,0.078431,0.72157,0.34702
3.544,0.75,0,0.084314,0.71569,0.34506
3.552,0.75977,0,0.078431,0.72157,0.34311
3.56,0.75977,0,0.084314,0.72157,0.34213
3.568,0.75977,0,0.088235,0.72549,0.34018
3.576,0.76562,0,0.094118,0.72157,0.33724
3.584,0.75977,0,0.094118,0.72157,0.33431
3.592,0.77539,0,0.098039,0.73137,0.33236
3.6,0.7793,0,0.094118,0.73137,0.33138
3.608,0.78516,0,0.10392,0.73137,0.33138
3.616,0.78516,0,0.1098,0.73137,0.33138
3.624,0.79492,0,0.11373,0.73529,0.3304
3.632,0.80469,0,0.11373,0.74118,0.3304
3.64,0.81055,0,0.11373,0.74118,0.3304
3.648,0.81445,0,0.12941,0.73529,0.32942
3.656,0.82422,0,0.14314,0.74118,0.32747
3.664,0.82031,0,0.14314,0.74118,0.32551
3.672,0.83008,0,0.14902,0.74118,0.32356
3.68,0.83008,0,0.14902,0.74118,0.3216
3.688,0.83008,0,0.14902,0.74118,0.31965
3.696,0.83008,0,0.13922,0.74118,0.31769
3.704,0.82031,0,0.12941,0.73529,0.31769
3.712,0.81055,0,0.1098,0.73137,0.31769
3.72,0.81055,0,0.10392,0.73529,0.31867
3.728,0.81445,0,0.088235,0.74118,0.31867
3.736,0.80469,0,0.078431,0.73529,0.31769
3.744,0.80469,0,0.094118,0.72157,0.31672
3.752,0.83398,0,0.11373,0.73137,0.31672
3.76,0.84375,0,0.11961,0.74118,0.31574
3.768,0.81055,0,0.11373,0.72549,0.31378
3.776,0.78906,0,0.10392,0.72157,0.31378
3.784,0.78906,0,0.10392,0.71569,0.31281
3.792,0.7793,0,0.10392,0.71569,0.31085
3.8,0.78516,0,0.10392,0.71569,0.30987
3.808,0.77539,0,0.10392,0.71569,0.3089
3.816,0.77539,0,0.10392,0.7098,0.30694
3.824,0.76953,0,0.10392,0.7098,0.30499
3.832,0.76953,0,0.10392,0.70588,0.30303
3.84,0.76562,0,0.10392,0.7,0.30108
3.848,0.75977,0,0.098039,0.70588,0.3001
3.856,0.76562,0,0.094118,0.7,0.29912
3.864,0.76562,0,0.10392,0.7,0.29814
3.872,0.76562,0,0.10392,0.7,0.29912
3.88,0.76562,0,0.10392,0.7,0.3001
3.888,0.76562,0,0.11373,0.7,0.30401
3.896,0.75977,0,0.11961,0.69608,0.31085
3.904,0.76562,0,0.12353,0.7098,0.31965
3.912,0.75977,0,0.1549,0.7,0.3304
3.92,0.94531,0,0.2451,0.77059,0.34604
3.928,1.3047,0,0.4451,0.82549,0.36461
3.936,1.4434,0,0.46078,0.85098,0.38514
3.944,1.0293,0,-0.066667,0.6902,0.40665
3.952,0.7207,0,-0.096078,0.57059,0.43109
3.96,0.73438,0,0.043137,0.63529,0.46237
3.968,0.75,0,0.088235,0.68627,0.49169
3.976,0.73438,0,0.098039,0.7,0.5132
3.984,0.73438,0,0.098039,0.69608,0.53763
3.992,0.73438,0,0.098039,0.7,0.56305
4,0.73438,0,0.098039,0.70588,0.58553
4.008,0.73438,0,0.094118,0.70588,0.60508
4.016,0.73438,0,0.088235,0.70588,0.62659
4.024,0.73047,0,0.10392,0.7,0.64907
4.032,0.73438,0,0.10392,0.70588,0.6696
4.04,0.73438,0,0.10392,0.70588,0.69013
4.048,0.73438,0,0.098039,0.7098,0.7087
4.056,0.73438,0,0.10392,0.7098,0.7263
4.064,0.74023,0,0.10392,0.7098,0.74194
4.072,0.75,0,0.098039,0.71569,0.75562
4.08,0.74414,0,0.10392,0.71569,0.77028
4.088,0.75391,0,0.10392,0.71569,0.78299
4.096,0.75,0,0.10392,0.71569,0.79081
4.104,0.75977,0,0.11373,0.71569,0.79374
4.112,0.76562,0,0.1098,0.71569,0.7957
4.12,0.76953,0,0.11961,0.72157,0.79668
4.128,0.76953,0,0.12353,0.72157,0.79765
4.136,0.78516,0,0.12353,0.72549,0.79668
4.144,0.78516,0,0.11961,0.73137,0.7957
4.152,0.78906,0,0.12941,0.73529,0.79277
4.16,0.79492,0,0.11373,0.73529,0.78983
4.168,0.79883,0,0.12941,0.73529,0.78201
4.176,0.80469,0,0.13333,0.73529,0.77126
4.184,0.81055,0,0.12941,0.73137,0.76149
4.192,0.81055,0,0.13333,0.73137,0.75367
4.2,0.81055,0,0.13922,0.73137,0.74682
4.208,0.80469,0,0.12941,0.73137,0.73705
4.216,0.81055,0,0.12941,0.72549,0.72336
4.224,0.80469,0,0.11961,0.72549,0.71163
4.232,0.79492,0,0.1098,0.72157,0.6999
4.24,0.79492,0,0.11961,0.72157,0.68817
4.248,0.78906,0.040078,0.12941,0.71569,0.67644
4.256,0.78906,0.081134,0.11373,0.71569,0.66862
4.264,0.78516,0.14076,0.12353,0.7098,0.65982
4.272,0.77539,0.19941,0.10392,0.7098,0.64809
4.28,0.76953,0.26784,0.098039,0.7098,0.63832
4.288,0.76562,0.33529,0.11961,0.70588,0.6305
4.296,0.75977,0.41056,0.10392,0.7098,0.62366
4.304,0.75977,0.48485,0.098039,0.70588,0.61584
4.312,0.75977,0.56207,0.10392,0.7098,0.60704
4.32,0.75391,0.6393,0.094118,0.7,0.59824
4.328,0.75,0.70577,0.088235,0.70588,0.58944
4.336,0.75391,0.77224,0.1098,0.7,0.58162
4.344,0.75391,0.82698,0.10392,0.7,0.5738
4.352,0.75977,0.8827,0.098039,0.70588,0.56598
4.36,0.75977,0.92571,0.11373,0.70588,0.55816
4.368,0.75977,0.96872,0.10392,0.7098,0.55132
4.376,0.75977,0.98436,0.1098,0.70588,0.5435
4.384,0.75977,1,0.11961,0.7,0.53568
4.392,0.75977,1,0.10392,0.7,0.52884
4.4,0.75977,1,0.10392,0.70588,0.52395
4.408,0.75977,1,0.11373,0.7098,0.51808
4.416,0.75977,1,0.10392,0.70588,0.51417
4.424,0.75977,1,0.098039,0.7098,0.51222
4.432,0.75977,1,0.10392,0.7098,0.51222
4.44,0.75977,1,0.098039,0.70588,0.51515
4.448,0.75977,1,0.10392,0.7098,0.52004
4.456,0.75977,1,0.10392,0.7098,0.52395
4.464,0.75977,1,0.098039,0.7098,0.52981
4.472,0.75977,1,0.094118,0.7098,0.53959
4.48,0.75391,1,0.094118,0.7098,0.55034
4.488,0.75977,1,0.084314,0.7098,0.56012
4.496,0.75977,1,0.088235,0.71569,0.56696
4.504,0.75391,1,0.088235,0.7098,0.57283
4.512,0.74414,1,0.078431,0.70588,0.57869
4.52,0.75977,1,0.088235,0.70588,0.58358
4.528,0.75977,1,0.098039,0.7098,0.58847
4.536,0.75977,1,0.078431,0.71569,0.59238
4.544,0.75977,1,0.084314,0.7098,0.59433
4.552,0.75977,1,0.078431,0.70588,0.5826
4.56,0.75977,1,0.084314,0.70588,0.56109
4.568,0.75391,1,0.07451,0.7098,0.54936
4.576,0.75977,1,0.078431,0.7098,0.53959
4.584,0.75391,1,0.088235,0.7098,0.53079
4.592,0.75977,1,0.084314,0.71569,0.52297
4.6,0.75977,1,0.088235,0.7098,0.51515
4.608,0.75977,1,0.084314,0.71569,0.50538
4.616,0.75977,1,0.078431,0.71569,0.49658
4.624,0.75977,1,0.078431,0.71569,0.4868
4.632,0.75977,1,0.084314,0.7098,0.47801
4.64,0.75391,1,0.078431,0.7098,0.46921
4.648,0.75977,1,0.084314,0.71569,0.46041
4.656,0.75977,1,0.084314,0.71569,0.45161
4.664,0.75977,1,0.094118,0.71569,0.44282
4.672,0.75977,1,0.10392,0.70588,0.43402
4.68,0.76953,1,0.11373,0.70588,0.42717
4.688,0.76562,1,0.11961,0.70588,0.42033
4.696,0.75977,1,0.1098,0.70588,0.41544
4.704,0.77539,1,0.11961,0.7,0.40958
4.712,0.7793,1,0.11373,0.70588,0.40371
4.72,0.77539,1,0.098039,0.71569,0.39687
4.728,0.77539,1,0.098039,0.7098,0.39003
4.736,0.78516,1,0.098039,0.71569,0.38416
4.744,0.78516,1,0.094118,0.71569,0.37928
4.752,0.79883,1,0.10392,0.72157,0.37341
4.76,0.79492,1,0.10392,0.71569,0.36852
4.768,0.77539,1,0.078431,0.71569,0.36364
4.776,0.76562,1,0.084314,0.7098,0.35777
4.784,0.75977,1,0.078431,0.71569,0.35191
4.792,0.76562,1,0.068627,0.71569,0.34702
4.8,0.76562,1,0.07451,0.72157,0.34311
4.808,0.75977,1,0.062745,0.71569,0.34018
4.816,0.75977,1,0.068627,0.71569,0.33627
4.824,0.75977,1,0.07451,0.71569,0.33333
4.832,0.76562,1,0.068627,0.72157,0.32942
4.84,0.75977,1,0.062745,0.71569,0.32649
4.848,0.73047,1,0.068627,0.71569,0.32258
4.856,0.71484,1,0.078431,0.71569,0.31769
4.864,0.88477,1,0.22941,0.76667,0.31378
4.872,1.2246,1,0.50588,0.78627,0.30987
4.88,1.3945,1,0.58039,0.76078,0.30499
4.888,0.91406,1,0.098039,0.6,0.30108
4.896,0.58398,1,-0.11176,0.51961,0.29814
4.904,0.66016,1,-0.05098,0.65098,0.29521
4.912,0.73438,1,0.013725,0.72157,0.2913
4.92,0.74414,1,0.052941,0.73137,0.28837
4.928,0.73438,1,0.062745,0.71569,0.28543
4.936,0.74023,1,0.058824,0.72549,0.2825
4.944,0.74414,1,0.052941,0.73137,0.27957
4.952,0.75391,1,0.062745,0.73529,0.27664
4.96,0.75,1,0.062745,0.73137,0.2737
4.968,0.75391,1,0.068627,0.73137,0.27077
4.976,0.75391,1,0.052941,0.73529,0.26784
4.984,0.75391,1,0.068627,0.73137,0.26588
4.992,0.75977,1,0.07451,0.73137,0.26295
5,0.76562,1,0.078431,0.73137,0.26197
5.008,0.75977,1,0.07451,0.72549,0.25806
5.016,0.77539,1,0.084314,0.72549,0.25513
5.024,0.7793,1,0.094118,0.73137,0.25122
5.032,0.7793,1,0.084314,0.73137,0.24927
5.04,0.78516,1,0.088235,0.73137,0.24633
5.048,0.7793,1,0.084314,0.73529,0.24536
5.056,0.79492,1,0.094118,0.74118,0.2434
5.064,0.79492,1,0.098039,0.74118,0.24145
5.072,0.79492,1,0.088235,0.74118,0.24047
5.08,0.79883,1,0.1098,0.74118,0.23851
5.088,0.81055,1,0.12941,0.73529,0.23851
5.096,0.82031,1,0.11961,0.74118,0.23851
5.104,0.82422,1,0.12941,0.73529,0.23754
5.112,0.82422,1,0.13922,0.73137,0.23656
5.12,0.83008,1,0.14314,0.73529,0.23363
5.128,0.83008,1,0.14902,0.74118,0.23167
5.136,0.83008,1,0.12941,0.74118,0.23069
5.144,0.83008,1,0.13333,0.74118,0.22874
5.152,0.82422,1,0.11373,0.7451,0.22776
5.16,0.82422,1,0.11373,0.74118,0.22678
5.168,0.81055,1,0.12353,0.72549,0.22678
5.176,0.80469,1,0.1098,0.72157,0.22581
5.184,0.80469,1,0.084314,0.73137,0.22483
5.192,0.78906,1,0.084314,0.72157,0.22483
5.2,0.78906,1,0.094118,0.72549,0.22581
5.208,0.79492,1,0.078431,0.72157,0.22483
5.216,0.78906,1,0.088235,0.72157,0.22385
5.224,0.78906,1,0.078431,0.72157,0.22287
5.232,0.78516,1,0.078431,0.72157,0.2219
5.24,0.78516,1,0.088235,0.71569,0.2219
5.248,0.78906,1,0.084314,0.72157,0.2219
5.256,0.7793,1,0.078431,0.72157,0.2219
5.264,0.77539,1,0.078431,0.72157,0.22092
5.272,0.7793,1,0.084314,0.71569,0.21994
5.28,0.76562,1,0.068627,0.72157,0.21896
5.288,0.75977,1,0.07451,0.71569,0.21896
5.296,0.75977,1,0.078431,0.71569,0.21994
5.304,0.76562,1,0.078431,0.71569,0.21994
5.312,0.76562,1,0.088235,0.71569,0.21994
5.32,0.76953,1,0.094118,0.71569,0.21994
5.328,0.76953,1,0.078431,0.71569,0.22092
5.336,0.76562,1,0.078431,0.72157,0.22385
5.344,0.75977,1,0.078431,0.72157,0.22874
5.352,0.76953,1,0.078431,0.72157,0.23656
5.36,0.76562,1,0.078431,0.72157,0.24731
5.368,0.77539,1,0.088235,0.72157,0.26197
5.376,0.77539,1,0.098039,0.72157,0.28055
5.384,0.7793,1,0.10392,0.71569,0.30108
5.392,0.7793,1,0.11373,0.71569,0.32063
5.4,0.78516,1,0.11373,0.71569,0.34018
5.408,0.78516,1,0.11961,0.71569,0.36168
5.416,0.78516,1,0.11961,0.71569,0.38612
5.424,0.78516,1,0.11961,0.71569,0.41056
5.432,0.78516,1,0.12353,0.71569,0.43597
5.44,0.7793,1,0.11961,0.71569,0.46041
5.448,0.77539,1,0.11373,0.71569,0.48485
5.456,0.77539,1,0.11961,0.71569,0.50831
5.464,0.77539,1,0.11373,0.71569,0.53177
5.472,0.77539,1,0.11961,0.71569,0.55327
5.48,0.7793,1,0.11373,0.71569,0.57478
5.488,0.77539,1,0.11373,0.71569,0.5914
5.496,0.77539,1,0.11961,0.71569,0.60508
5.504,0.77539,1,0.12941,0.7098,0.61975
5.512,0.77539,1,0.14314,0.7,0.63343
5.52,0.77539,1,0.14902,0.70588,0.64614
5.528,0.7793,1,0.15882,0.70588,0.65689
5.536,0.7793,1,0.14902,0.70588,0.66667
5.544,0.78516,1,0.14902,0.7098,0.67546
5.552,0.78516,1,0.14314,0.71569,0.68231
5.56,0.78516,1,0.13922,0.71569,0.68622
5.568,0.78906,1,0.12941,0.71569,0.68915
5.576,0.79883,1,0.12941,0.71569,0.69013
5.584,0.81055,1,0.12941,0.72157,0.69013
5.592,0.81055,1,0.12941,0.71569,0.68817
5.6,0.80469,1,0.13922,0.71569,0.68426
5.608,0.78516,1,0.12353,0.71569,0.6784
5.616,0.7793,1,0.11373,0.71569,0.67058
5.624,0.77539,1,0.10392,0.71569,0.66178
5.632,0.77539,1,0.10392,0.71569,0.65298
5.64,0.77539,1,0.10392,0.71569,0.64321
5.648,0.77539,1,0.10392,0.71569,0.63343
5.656,0.77539,1,0.10392,0.72157,0.62268
5.664,0.77539,1,0.10392,0.71569,0.6129
5.672,0.76953,1,0.10392,0.71569,0.60411
5.68,0.77539,1,0.10392,0.72157,0.59433
5.688,0.75977,1,0.1098,0.71569,0.58651
5.696,0.7207,1,0.1098,0.71569,0.57869
5.704,0.78516,1,0.15882,0.7451,0.57185
5.712,1.0996,1,0.40392,0.7902,0.56403
5.72,1.3789,1,0.6,0.77647,0.55718
5.728,1.3984,1,0.27843,0.78627,0.55034
5.736,0.66016,1,-0.066667,0.5451,0.54252
5.744,0.61523,1,-0.10196,0.60588,0.5347
5.752,0.72461,1,0.017647,0.69608,0.52688
5.76,0.75,1,0.068627,0.71569,0.52102
5.768,0.75,0.99609,0.084314,0.71569,0.51515
5.776,0.75,0.9912,0.084314,0.72157,0.51026
5.784,0.75391,0.98534,0.078431,0.72157,0.50538
5.792,0.75,0.98045,0.084314,0.72549,0.50147
5.8,0.75391,0.97556,0.084314,0.73137,0.49658
5.808,0.75391,0.9697,0.088235,0.72549,0.49169
5.816,0.75977,0.96481,0.088235,0.72549,0.4868
5.824,0.75977,0.95992,0.088235,0.72549,0.48192
5.832,0.75977,0.95406,0.088235,0.72549,0.47703
5.84,0.75977,0.94917,0.088235,0.72549,0.47312
5.848,0.75977,0.94233,0.088235,0.72549,0.47019
5.856,0.76562,0.93548,0.088235,0.72549,0.46725
5.864,0.76562,0.92864,0.098039,0.73137,0.4653
5.872,0.76953,0.92082,0.098039,0.73137,0.46237
5.88,0.77539,0.91202,0.098039,0.72549,0.45943
5.888,0.77539,0.90323,0.10392,0.72549,0.4565
5.896,0.78516,0.89345,0.10392,0.73137,0.45357
5.904,0.78516,0.88368,0.1098,0.73137,0.44966
5.912,0.79492,0.87195,0.11373,0.73529,0.44477
5.92,0.79883,0.86022,0.11961,0.73137,0.44086
5.928,0.81055,0.84653,0.12941,0.73529,0.43597
5.936,0.82031,0.83284,0.13333,0.74118,0.43206
5.944,0.82422,0.8172,0.14314,0.74118,0.42815
5.952,0.83008,0.80156,0.14902,0.74118,0.42424
5.96,0.83398,0.78299,0.1549,0.74118,0.42033
5.968,0.83984,0.7654,0.1549,0.7451,0.41642
5.976,0.84375,0.74585,0.15882,0.74118,0.41153
5.984,0.84375,0.7263,0.15882,0.74118,0.40762
5.992,0.83984,0.70772,0.14902,0.74118,0.40371
6,0.83398,0.68817,0.14902,0.74118,0.3998
6.008,0.83008,0.6696,0.14314,0.74118,0.39589
6.016,0.82422,0.65005,0.13922,0.73137,0.39101
6.024,0.81445,0.63245,0.12941,0.73529,0.38612
6.032,0.81055,0.61388,0.12941,0.72549,0.38221
6.04,0.79883,0.59629,0.11961,0.72157,0.3783
6.048,0.78906,0.57869,0.11373,0.72157,0.37537
6.056,0.78906,0.56207,0.1098,0.72157,0.37243
6.064,0.78516,0.54545,0.1098,0.72157,0.3695
6.072,0.7793,0.52786,0.10392,0.72157,0.36755
6.08,0.7793,0.51124,0.10392,0.71569,0.36461
6.088,0.77539,0.49462,0.10392,0.71569,0.36266
6.096,0.76953,0.47703,0.10392,0.71569,0.3607
6.104,0.77539,0.45846,0.10392,0.7098,0.35875
6.112,0.76562,0.44086,0.10392,0.71569,0.35582
6.12,0.76562,0.42229,0.10392,0.7098,0.35288
6.128,0.76562,0.40371,0.10392,0.71569,0.34995
6.136,0.76562,0.38514,0.10392,0.7098,0.34702
6.144,0.75977,0.36657,0.10392,0.7098,0.34311
6.152,0.76562,0.348,0.10392,0.71569,0.34018
6.16,0.76562,0.3304,0.10392,0.7098,0.33822
6.168,0.75977,0.31183,0.098039,0.7098,0.33627
6.176,0.75977,0.29423,0.098039,0.70588,0.33724
6.184,0.75977,0.27761,0.10392,0.70588,0.34115
6.192,0.75977,0.261,0.10392,0.70588,0.34604
6.2,0.76562,0.24536,0.10392,0.7098,0.35288
6.208,0.75977,0.22972,0.10392,0.70588,0.36364
6.216,0.77539,0.21603,0.1098,0.70588,0.37732
6.224,0.76562,0.20137,0.11373,0.7,0.39394
6.232,0.77539,0.18768,0.11373,0.7098,0.41251
6.24,0.77539,0.174,0.11961,0.70588,0.43304
6.248,0.77539,0.16031,0.11373,0.7098,0.45357
6.256,0.77539,0.14663,0.11373,0.70588,0.47507
6.264,0.77539,0.13196,0.1098,0.7098,0.49756
6.272,0.77539,0.1173,0.11373,0.70588,0.52004
6.28,0.76953,0.10166,0.1098,0.7098,0.54252
6.288,0.7793,0.086022,0.11373,0.7098,0.56109
6.296,0.77539,0.068426,0.1098,0.7098,0.57771
6.304,0.7793,0.051808,0.1098,0.71569,0.59629
6.312,0.77539,0.035191,0.1098,0.70588,0.61486
6.32,0.77539,0.017595,0.1098,0.70588,0.63343
6.328,0.76953,0.0087977,0.10392,0.70588,0.65005
6.336,0.77539,0,0.12941,0.7,0.66569
6.344,0.77539,0,0.13922,0.7,0.68035
6.352,0.7793,0,0.13922,0.69608,0.69306
6.36,0.77539,0,0.13922,0.7,0.70479
6.368,0.7793,0,0.13333,0.70588,0.71554
6.376,0.7793,0,0.12941,0.7098,0.72434
6.384,0.7793,0,0.12353,0.71569,0.73118
6.392,0.78516,0,0.12941,0.7098,0.73607
6.4,0.78906,0,0.11373,0.71569,0.739
6.408,0.81055,0,0.11373,0.72157,0.74194
6.416,0.81055,0,0.11961,0.72549,0.74389
6.424,0.80469,0,0.12941,0.71569,0.74487
6.432,0.78516,0,0.1098,0.71569,0.74389
6.44,0.76562,0,0.10392,0.7098,0.74096
6.448,0.75977,0,0.098039,0.71569,0.73607
6.456,0.76562,0,0.088235,0.71569,0.73021
6.464,0.75977,0,0.088235,0.71569,0.72239
6.472,0.75977,0,0.088235,0.71569,0.71163
6.48,0.75977,0,0.094118,0.71569,0.70186
6.488,0.75977,0,0.098039,0.71569,0.69208
6.496,0.75977,0,0.094118,0.71569,0.68231
6.504,0.75977,0,0.088235,0.71569,0.67253
6.512,0.75391,0,0.094118,0.71569,0.66276
6.52,0.71484,0,0.098039,0.7,0.65298
6.528,0.69922,0,0.12353,0.72157,0.64321
6.536,1.0039,0,0.30392,0.7902,0.63245
6.544,1.3594,0,0.53529,0.81569,0.6217
6.552,1.459,0,0.32353,0.84118,0.61095
6.56,0.78906,0,-0.076471,0.57451,0.60117
6.568,0.64062,0,-0.12745,0.5451,0.59042
6.576,0.70898,0,-0.015686,0.67059,0.58065
6.584,0.73438,0,0.04902,0.7098,0.57087
6.592,0.73438,0,0.062745,0.7098,0.56305
6.6,0.73438,0,0.07451,0.7098,0.55816
6.608,0.73438,0,0.07451,0.71569,0.55523
6.616,0.73438,0,0.068627,0.71569,0.54936
6.624,0.73438,0,0.068627,0.71569,0.54252
6.632,0.74414,0,0.07451,0.71569,0.53568
6.64,0.74023,0,0.078431,0.71569,0.52884
6.648,0.74414,0,0.078431,0.71569,0.52199
6.656,0.74414,0,0.078431,0.72157,0.51515
6.664,0.75391,0,0.078431,0.72157,0.50733
6.672,0.75977,0,0.084314,0.71569,0.49951
6.68,0.75977,0,0.088235,0.71569,0.49071
6.688,0.75977,0,0.084314,0.72157,0.48387
6.696,0.76562,0,0.088235,0.72157,0.47703
6.704,0.76953,0,0.094118,0.72549,0.47116
6.712,0.76953,0,0.10392,0.72157,0.46432
6.72,0.7793,0,0.10392,0.72549,0.45748
6.728,0.78516,0,0.10392,0.72549,0.45064
6.736,0.78906,0,0.1098,0.72549,0.44379
6.744,0.79883,0,0.11373,0.73137,0.43793
6.752,0.80469,0,0.12353,0.73529,0.43206
6.76,0.81055,0,0.12941,0.73529,0.4262
6.768,0.82422,0,0.12941,0.74118,0.42033
6.776,0.83008,0,0.13922,0.74118,0.41642
6.784,0.83398,0,0.14902,0.74118,0.41251
6.792,0.83398,0,0.14902,0.7451,0.40958
6.8,0.83984,0,0.1549,0.74118,0.40567
6.808,0.83008,0,0.13922,0.74118,0.40078
6.816,0.83984,0,0.12941,0.74118,0.39492
6.824,0.84375,0,0.11373,0.75098,0.39003
6.832,0.83008,0,0.10392,0.7549,0.38514
6.84,0.83984,0,0.12941,0.73529,0.38025
6.848,0.85938,0,0.14902,0.7451,0.37537
6.856,0.86523,0,0.14902,0.7549,0.37243
6.864,0.82422,0,0.12941,0.74118,0.36852
6.872,0.79883,0,0.11373,0.72549,0.36559
6.88,0.79492,0,0.11961,0.72157,0.36266
6.888,0.78516,0,0.11373,0.71569,0.35973
6.896,0.77539,0,0.10392,0.71569,0.35777
6.904,0.77539,0,0.10392,0.7098,0.35484
6.912,0.75977,0,0.10392,0.70588,0.35093
6.92,0.76562,0,0.1098,0.70588,0.348
6.928,0.75977,0,0.10392,0.7,0.34506
6.936,0.75977,0,0.098039,0.7,0.34213
6.944,0.75977,0,0.098039,0.7,0.34018
6.952,0.76562,0,0.094118,0.70588,0.33724
6.96,0.75977,0,0.098039,0.7,0.33431
6.968,0.75977,0,0.10392,0.70588,0.3304
6.976,0.75977,0,0.094118,0.70588,0.32747
6.984,0.75977,0,0.10392,0.70588,0.32551
6.992,0.75391,0,0.098039,0.70588,0.32454
7,0.75977,0,0.10392,0.70588,0.32454
7.008,0.75977,0,0.1098,0.70588,0.32551
7.016,0.74414,0,0.1098,0.7,0.32942
7.024,0.74023,0,0.14902,0.72549,0.33529
7.032,1.0898,0,0.3451,0.8,0.34409
7.04,1.4395,0,0.50588,0.85098,0.35679
7.048,1.4746,0,0.16471,0.87059,0.37243
7.056,0.84375,0,-0.096078,0.61961,0.39101
7.064,0.7207,0,-0.011765,0.58039,0.41153
7.072,0.73438,0,0.07451,0.66078,0.43304
7.08,0.73438,0,0.098039,0.69608,0.45552
7.088,0.73047,0,0.098039,0.70588,0.47507
7.096,0.72461,0,0.098039,0.70588,0.49365
7.104,0.72461,0,0.098039,0.7098,0.51417
7.112,0.7207,0,0.094118,0.71569,0.53568
7.12,0.72461,0,0.098039,0.71569,0.55621
7.128,0.73047,0,0.094118,0.71569,0.57674
7.136,0.72461,0,0.088235,0.71569,0.59726
7.144,0.73047,0,0.084314,0.71569,0.61681
7.152,0.73438,0,0.088235,0.72157,0.63539
7.16,0.73438,0,0.088235,0.71569,0.652
7.168,0.74023,0,0.094118,0.71569,0.66764
7.176,0.74023,0,0.098039,0.71569,0.68231
7.184,0.74414,0,0.10392,0.72157,0.69306
7.192,0.75,0,0.10392,0.72157,0.70088
7.2,0.75,0,0.10392,0.72157,0.71065
7.208,0.75977,0,0.10392,0.72549,0.72043
7.216,0.75977,0,0.1098,0.72157,0.73021
7.224,0.76562,0,0.11961,0.72549,0.73803
7.232,0.77539,0,0.12353,0.72549,0.74389
7.24,0.7793,0,0.12941,0.73529,0.7478
7.248,0.78516,0,0.12353,0.73529,0.74976
7.256,0.78906,0,0.12941,0.73529,0.74976
7.264,0.79492,0,0.14314,0.73529,0.7478
7.272,0.80469,0,0.14902,0.74118,0.74389
7.28,0.81055,0,0.14902,0.73529,0.739
7.288,0.81055,0,0.14902,0.73529,0.73216
7.296,0.81445,0,0.13922,0.73529,0.72434
7.304,0.82031,0,0.13922,0.73529,0.71554
7.312,0.82422,0,0.14902,0.73529,0.70577
7.32,0.82031,0,0.14314,0.73529,0.69501
7.328,0.81055,0,0.13333,0.73137,0.68426
7.336,0.81055,0,0.12941,0.72549,0.67253
7.344,0.80469,0,0.12941,0.72549,0.66178
7.352,0.80469,0,0.12941,0.72157,0.65103
7.36,0.79492,0,0.12353,0.71569,0.6393
7.368,0.78516,0,0.12941,0.71569,0.62854
7.376,0.7793,0,0.11373,0.7098,0.61877
7.384,0.76562,0,0.10392,0.70588,0.60997
7.392,0.75977,0,0.10392,0.70588,0.60117
7.4,0.75977,0,0.098039,0.7,0.59238
7.408,0.75977,0,0.10392,0.7,0.5826
7.416,0.75391,0,0.098039,0.7,0.57478
7.424,0.75,0,0.094118,0.69608,0.56598
7.432,0.75391,0,0.098039,0.70588,0.55816
7.44,0.75,0,0.10392,0.70588,0.54936
7.448,0.75391,0,0.098039,0.71569,0.54057
7.456,0.75391,0,0.094118,0.7098,0.53177
7.464,0.75977,0,0.098039,0.7098,0.52297
7.472,0.75977,0,0.094118,0.71569,0.51417
7.48,0.76562,0,0.10392,0.71569,0.50538
7.488,0.75977,0,0.10392,0.71569,0.49756
7.496,0.76562,0,0.098039,0.71569,0.49169
7.504,0.76562,0,0.098039,0.71569,0.48485
7.512,0.75977,0,0.098039,0.71569,0.47898
7.52,0.75977,0,0.098039,0.71569,0.47214
7.528,0.76562,0,0.094118,0.71569,0.46725
7.536,0.76562,0,0.098039,0.71569,0.46334
7.544,0.75977,0,0.088235,0.7098,0.46237
7.552,0.75977,0,0.084314,0.71569,0.46237
7.56,0.75977,0,0.088235,0.7098,0.4653
7.568,0.75977,0,0.084314,0.7098,0.47019
7.576,0.75391,0,0.078431,0.71569,0.47605
7.584,0.75977,0,0.078431,0.7098,0.48289
7.592,0.75977,0,0.078431,0.7098,0.48876
7.6,0.75977,0,0.084314,0.70588,0.49658
7.608,0.75977,0,0.084314,0.7098,0.5044
7.616,0.75977,0,0.084314,0.71569,0.51124
7.624,0.75391,0,0.078431,0.7098,0.51808
7.632,0.75977,0,0.084314,0.7098,0.52395
7.64,0.75977,0,0.078431,0.7098,0.52884
7.648,0.75977,0,0.078431,0.7098,0.53079
7.656,0.75977,0,0.07451,0.71569,0.53177
7.664,0.75977,0,0.078431,0.7098,0.53177
7.672,0.75977,0,0.078431,0.7098,0.52981
7.68,0.75977,0,0.07451,0.71569,0.52786
7.688,0.76562,0,0.078431,0.7098,0.52493
7.696,0.75977,0,0.078431,0.71569,0.52199
7.704,0.75977,0,0.078431,0.70588,0.51808
7.712,0.75977,0,0.078431,0.71569,0.51222
7.72,0.76953,0,0.084314,0.71569,0.50635
7.728,0.77539,0,0.078431,0.71569,0.49951
7.736,0.76562,0,0.084314,0.7098,0.49169
7.744,0.76953,0,0.078431,0.71569,0.48387
7.752,0.76953,0,0.088235,0.71569,0.47605
7.76,0.76953,0,0.088235,0.71569,0.46921
7.768,0.76562,0,0.078431,0.71569,0.46139
7.776,0.77539,0,0.094118,0.7098,0.45552
7.784,0.76953,0,0.1098,0.7,0.45161
7.792,0.77539,0,0.11961,0.7,0.44673
7.8,0.7793,0,0.12353,0.70588,0.44184
7.808,0.7793,0,0.12941,0.7,0.43695
7.816,0.7793,0,0.12941,0.7098,0.43206
7.824,0.78516,0,0.11961,0.71569,0.4262
7.832,0.78516,0,0.10392,0.71569,0.42033
7.84,0.78516,0,0.10392,0.71569,0.41447
7.848,0.79492,0,0.094118,0.71569,0.4086
7.856,0.80469,0,0.098039,0.72157,0.40371
7.864,0.81055,0,0.098039,0.73137,0.39883
7.872,0.81055,0,0.10392,0.72549,0.39492
7.88,0.78516,0,0.098039,0.71569,0.39003
7.888,0.76953,0,0.084314,0.71569,0.3871
7.896,0.76953,0,0.084314,0.71569,0.38416
7.904,0.76562,0,0.078431,0.72157,0.38025
7.912,0.76953,0,0.07451,0.71569,0.37537
7.92,0.76562,0,0.078431,0.71569,0.37048
7.928,0.76562,0,0.07451,0.71569,0.36559
7.936,0.75977,0,0.078431,0.71569,0.36168
7.944,0.75977,0,0.07451,0.71569,0.35875
7.952,0.76562,0,0.078431,0.71569,0.35484
7.96,0.74023,0,0.078431,0.7098,0.35191
7.968,0.69922,0,0.088235,0.7,0.34897
7.976,0.83398,0,0.18431,0.7549,0.34604
7.984,1.2246,0,0.42549,0.83529,0.34311
7.992,1.4941,0,0.52549,0.86667,0.34115
8,1.1836,0,0.088235,0.87059,0.33822
8.008,0.66016,0,-0.14118,0.53922,0.33431
8.016,0.64062,0,-0.076471,0.62549,0.3304
8.024,0.73047,0,0.0039216,0.69608,0.32649
8.032,0.74023,0,0.04902,0.71569,0.32356
8.04,0.74023,0,0.058824,0.7098,0.32063
8.048,0.73438,0,0.068627,0.7098,0.31769
8.056,0.73438,0,0.068627,0.71569,0.31574
8.064,0.73438,0,0.07451,0.71569,0.31378
8.072,0.74023,0,0.078431,0.72157,0.31183
8.08,0.73438,0,0.068627,0.71569,0.31085
8.088,0.75,0,0.078431,0.71569,0.31085
8.096,0.75,0,0.084314,0.71569,0.31085
8.104,0.75,0,0.084314,0.71569,0.30987
8.112,0.75391,0,0.078431,0.72157,0.30792
8.12,0.75977,0,0.084314,0.71569,0.30596
8.128,0.75977,0,0.088235,0.72157,0.30401
8.136,0.75977,0,0.094118,0.71569,0.30205
8.144,0.76562,0,0.094118,0.71569,0.29912
8.152,0.76953,0,0.098039,0.71569,0.29717
8.16,0.7793,0,0.10392,0.72157,0.29619
8.168,0.78516,0,0.1098,0.72157,0.29423
8.176,0.78516,0,0.1098,0.72549,0.29326
8.184,0.78906,0,0.11373,0.72157,0.29228
8.192,0.79883,0,0.11961,0.72157,0.2913
8.2,0.80469,0,0.13333,0.72549,0.29032
8.208,0.81055,0,0.14314,0.72549,0.28935
8.216,0.82031,0,0.14902,0.72549,0.28739
8.224,0.82422,0,0.14902,0.73137,0.28543
8.232,0.83008,0,0.14902,0.73529,0.28348
8.24,0.83008,0,0.14902,0.74118,0.28152
8.248,0.83398,0,0.14314,0.74118,0.27957
8.256,0.83008,0,0.13922,0.73529,0.27957
8.264,0.83008,0,0.13922,0.73529,0.27859
8.272,0.82031,0,0.12941,0.73529,0.27859
8.28,0.81055,0,0.12353,0.73529,0.27859
8.288,0.80469,0,0.11961,0.73137,0.27859
8.296,0.79883,0,0.10392,0.72549,0.27859
8.304,0.78906,0,0.094118,0.72549,0.27859
8.312,0.79883,0,0.078431,0.73529,0.27761
8.32,0.79883,0,0.068627,0.74118,0.27664
8.328,0.78516,0,0.062745,0.72157,0.27566
8.336,0.81445,0,0.094118,0.73137,0.27664
8.344,0.83398,0,0.1098,0.74118,0.27664
8.352,0.81055,0,0.10392,0.73137,0.27761
8.36,0.78516,0.0078201,0.098039,0.71569,0.27761
8.368,0.7793,0.016618,0.098039,0.7098,0.27761
8.376,0.76953,0.032258,0.098039,0.7098,0.27859
8.384,0.76562,0.048876,0.098039,0.7098,0.27859
8.392,0.75977,0.064516,0.094118,0.7098,0.27957
8.4,0.75977,0.081134,0.088235,0.7098,0.27957
8.408,0.75,0.098729,0.084314,0.70588,0.27859
8.416,0.75391,0.11632,0.10392,0.70588,0.27761
8.424,0.75391,0.13587,0.10392,0.70588,0.27761
8.432,0.75977,0.15543,0.10392,0.7098,0.27761
8.44,0.75391,0.17791,0.11373,0.70588,0.27859
8.448,0.75391,0.20137,0.11961,0.70588,0.28152
8.456,0.75977,0.23265,0.10392,0.7098,0.28641
8.464,0.75977,0.26393,0.11373,0.70588,0.29423
8.472,0.75977,0.30303,0.11961,0.70588,0.30499
8.48,0.75977,0.34213,0.11961,0.70588,0.31672
8.488,0.74414,0.39296,0.14314,0.7,0.33138
8.496,0.85938,0.44282,0.18824,0.75098,0.34995
8.504,1.1797,0.50244,0.3902,0.78627,0.37048
8.512,1.3594,0.56207,0.46078,0.77059,0.39492
8.52,1.0039,0.62561,-0.0019608,0.6549,0.41935
8.528,0.61914,0.68915,-0.092157,0.5098,0.44379
8.536,0.68555,0.75269,0.039216,0.60588,0.46823
8.544,0.73047,0.81623,0.098039,0.67647,0.49267
8.552,0.73438,0.86706,0.10392,0.69608,0.51515
8.56,0.73438,0.91789,0.098039,0.7098,0.53861
8.568,0.73438,0.95699,0.11373,0.7098,0.56109
8.576,0.73438,0.99609,0.10392,0.7098,0.58358
8.584,0.73047,0.99804,0.10392,0.71569,0.60215
8.592,0.74023,1,0.1098,0.71569,0.61779
8.6,0.73438,1,0.10392,0.7098,0.63539
8.608,0.73438,1,0.094118,0.71569,0.65298
8.616,0.74414,1,0.10392,0.71569,0.6696
8.624,0.75,1,0.098039,0.71569,0.68524
8.632,0.74414,1,0.088235,0.71569,0.69892
8.64,0.75391,1,0.1098,0.72157,0.71163
8.648,0.75,1,0.11373,0.71569,0.72141
8.656,0.75,1,0.094118,0.71569,0.72923
8.664,0.75977,1,0.11373,0.71569,0.73607
8.672,0.76562,1,0.12353,0.72157,0.73998
8.68,0.76953,1,0.1098,0.72157,0.74194
8.688,0.76953,1,0.11373,0.72549,0.74096
8.696,0.77539,1,0.12941,0.72549,0.73998
8.704,0.78516,1,0.12353,0.72157,0.739
8.712,0.78516,1,0.12941,0.72549,0.73607
8.72,0.78906,1,0.13922,0.73137,0.73118
8.728,0.79883,1,0.13333,0.73529,0.72434
8.736,0.79883,1,0.12353,0.73529,0.71652
8.744,0.80469,1,0.12941,0.73137,0.70772
8.752,0.80469,1,0.13333,0.73137,0.69795
8.76,0.79883,1,0.12941,0.73137,0.68719
8.768,0.80469,1,0.13333,0.72549,0.67644
8.776,0.81055,1,0.11961,0.73137,0.66471
8.784,0.80469,1,0.11961,0.72157,0.65494
8.792,0.79492,1,0.12353,0.72157,0.64614
8.8,0.79883,1,0.12941,0.72157,0.63636
8.808,0.78516,1,0.1098,0.71569,0.62561
8.816,0.79492,1,0.12353,0.71569,0.61584
8.824,0.78906,1,0.11961,0.71569,0.60508
8.832,0.7793,1,0.098039,0.71569,0.59531
8.84,0.78516,1,0.1098,0.71569,0.58456
8.848,0.7793,1,0.11961,0.71569,0.57478
8.856,0.76953,1,0.10392,0.71569,0.56598
8.864,0.77539,1,0.098039,0.7098,0.55621
8.872,0.76562,1,0.094118,0.71569,0.54741
8.88,0.76562,1,0.084314,0.71569,0.53763
8.888,0.75977,1,0.088235,0.71569,0.52981
8.896,0.75977,1,0.094118,0.7098,0.52199
8.904,0.75977,1,0.098039,0.7098,0.51417
8.912,0.75977,1,0.10392,0.71569,0.50635
8.92,0.75391,1,0.084314,0.7098,0.49756
8.928,0.76562,1,0.098039,0.71569,0.48876
8.936,0.75977,1,0.10392,0.7098,0.47898
8.944,0.75977,1,0.098039,0.71569,0.47019
8.952,0.75977,1,0.094118,0.7098,0.46139
8.96,0.75977,1,0.10392,0.7098,0.45259
8.968,0.75977,1,0.10392,0.7098,0.44477
8.976,0.75977,1,0.1098,0.7098,0.43793
8.984,0.75977,1,0.094118,0.71569,0.43402
8.992,0.75977,1,0.084314,0.71569,0.43011
9,0.76953,1,0.10392,0.7098,0.42815
9.008,0.75977,1,0.088235,0.7098,0.42815
9.016,0.76562,1,0.088235,0.71569,0.43011
9.024,0.76562,1,0.10392,0.71569,0.435
9.032,0.75977,1,0.10392,0.71569,0.44282
9.04,0.75977,1,0.084314,0.71569,0.45259
9.048,0.75977,1,0.084314,0.72157,0.46432
9.056,0.75977,1,0.094118,0.71569,0.47703
9.064,0.75977,1,0.10392,0.71569,0.48974
9.072,0.75977,1,0.078431,0.71569,0.50147
9.08,0.75977,1,0.098039,0.71569,0.51222
9.088,0.76562,1,0.084314,0.71569,0.52102
9.096,0.75977,1,0.078431,0.72157,0.53079
9.104,0.75977,1,0.07451,0.72157,0.53861
9.112,0.75977,1,0.084314,0.71569,0.54643
9.12,0.75977,1,0.094118,0.7098,0.5523
9.128,0.76562,1,0.078431,0.71569,0.55718
9.136,0.76953,1,0.078431,0.72157,0.56012
9.144,0.75977,1,0.078431,0.71569,0.56109
9.152,0.75977,1,0.084314,0.71569,0.56207
9.16,0.76562,1,0.094118,0.71569,0.56109
9.168,0.76953,1,0.088235,0.7098,0.55816
9.176,0.76953,1,0.094118,0.71569,0.55327
9.184,0.76953,1,0.088235,0.71569,0.54839
9.192,0.76562,1,0.07451,0.7098,0.54154
9.2,0.76953,1,0.068627,0.71569,0.5347
9.208,0.75977,1,0.094118,0.7098,0.5259
9.216,0.76953,1,0.088235,0.71569,0.51711
9.224,0.77539,1,0.094118,0.7098,0.50831
9.232,0.76953,1,0.084314,0.71569,0.49951
9.24,0.76953,1,0.078431,0.71569,0.49071
9.248,0.76953,1,0.088235,0.71569,0.48192
9.256,0.77539,1,0.078431,0.7098,0.47312
9.264,0.77539,1,0.10392,0.7,0.4653
9.272,0.76953,1,0.1098,0.69608,0.45748
9.28,0.78516,1,0.12353,0.7,0.45161
9.288,0.7793,1,0.12941,0.70588,0.44575
9.296,0.7793,1,0.11961,0.7,0.43891
9.304,0.78516,1,0.12353,0.7098,0.43304
9.312,0.78516,1,0.12941,0.70588,0.4262
9.32,0.78516,1,0.1098,0.7098,0.41935
9.328,0.79492,1,0.11373,0.70588,0.41153
9.336,0.80469,1,0.11373,0.7098,0.40469
9.344,0.81055,1,0.10392,0.71569,0.39785
9.352,0.80469,1,0.098039,0.72157,0.39101
9.36,0.79492,1,0.098039,0.72157,0.38514
9.368,0.78516,1,0.088235,0.71569,0.37928
9.376,0.77539,1,0.078431,0.71569,0.37537
9.384,0.7793,1,0.078431,0.72157,0.37146
9.392,0.76953,1,0.078431,0.71569,0.36852
9.4,0.77539,1,0.07451,0.72157,0.36461
9.408,0.77539,1,0.078431,0.72549,0.35973
9.416,0.76953,1,0.07451,0.72549,0.35484
9.424,0.76562,1,0.068627,0.72157,0.34995
9.432,0.77539,1,0.062745,0.73137,0.34409
9.44,0.76562,1,0.07451,0.72549,0.3392
9.448,0.73438,1,0.068627,0.73137,0.33431
9.456,0.7207,1,0.088235,0.74118,0.32942
9.464,0.97461,1,0.28431,0.78627,0.32551
9.472,1.2852,1,0.57059,0.7549,0.32063
9.48,1.3594,1,0.59608,0.73529,0.31769
9.488,0.74414,1,0.013725,0.55098,0.31476
9.496,0.58984,1,-0.12157,0.53529,0.31085
9.504,0.68945,1,-0.041176,0.6902,0.30694
9.512,0.74023,1,0.023529,0.73529,0.30303
9.52,0.74414,1,0.04902,0.72549,0.29912
9.528,0.74414,1,0.058824,0.73137,0.29619
9.536,0.74414,1,0.062745,0.73137,0.29326
9.544,0.75391,1,0.068627,0.73137,0.29032
9.552,0.75391,1,0.068627,0.73137,0.28739
9.56,0.75977,1,0.078431,0.73137,0.28446
9.568,0.75977,1,0.078431,0.73529,0.28152
9.576,0.75977,1,0.078431,0.74118,0.27761
9.584,0.75977,1,0.078431,0.73137,0.27566
9.592,0.75977,1,0.078431,0.73529,0.2737
9.6,0.75977,1,0.078431,0.73529,0.26979
9.608,0.76562,1,0.078431,0.73529,0.26686
9.616,0.76562,1,0.084314,0.73137,0.26393
9.624,0.76953,1,0.088235,0.73137,0.261
9.632,0.77539,1,0.098039,0.73529,0.25806
9.64,0.7793,1,0.10392,0.73137,0.25611
9.648,0.78516,1,0.10392,0.73529,0.25415
9.656,0.78906,1,0.11373,0.73137,0.2522
9.664,0.79492,1,0.11961,0.73137,0.25024
9.672,0.79883,1,0.12941,0.73529,0.24927
9.68,0.81055,1,0.12941,0.73529,0.24829
9.688,0.81445,1,0.13333,0.73137,0.24927
9.696,0.82422,1,0.14902,0.73529,0.24927
9.704,0.83008,1,0.14902,0.73529,0.24829
9.712,0.83008,1,0.15882,0.73529,0.24731
9.72,0.83398,1,0.1549,0.73137,0.24633
9.728,0.83398,1,0.1549,0.73137,0.24438
9.736,0.83008,1,0.14902,0.73137,0.2434
9.744,0.83008,1,0.14314,0.73137,0.24242
9.752,0.83008,1,0.12941,0.73529,0.24145
9.76,0.82422,1,0.1098,0.74118,0.24145
9.768,0.82422,1,0.11373,0.72549,0.24145
9.776,0.84375,1,0.13333,0.73137,0.24047
9.784,0.85547,1,0.14314,0.74118,0.23949
9.792,0.82422,1,0.13333,0.73137,0.24047
9.8,0.80469,1,0.11961,0.72157,0.23949
9.808,0.78906,1,0.11373,0.71569,0.23949
9.816,0.78516,0.9912,0.1098,0.71569,0.23949
9.824,0.78906,0.9824,0.11373,0.71569,0.24047
9.832,0.78516,0.97165,0.1098,0.71569,0.24242
9.84,0.78516,0.9609,0.1098,0.71569,0.2434
9.848,0.78516,0.9521,0.1098,0.71569,0.24536
9.856,0.7793,0.9433,0.1098,0.71569,0.24633
9.864,0.7793,0.93451,0.10392,0.7098,0.24731
9.872,0.76953,0.92669,0.10392,0.71569,0.24731
9.88,0.76953,0.91887,0.10392,0.7098,0.24829
9.888,0.75977,0.91105,0.098039,0.7098,0.25024
9.896,0.76562,0.90225,0.098039,0.7098,0.25024
9.904,0.75977,0.89345,0.098039,0.7098,0.25024
9.912,0.76562,0.88465,0.098039,0.7098,0.25122
9.92,0.76953,0.87586,0.10392,0.7098,0.2522
9.928,0.77539,0.86706,0.10392,0.7098,0.25513
9.936,0.76953,0.85826,0.10392,0.71569,0.261
9.944,0.77539,0.85044,0.098039,0.71569,0.26882
9.952,0.77539,0.84262,0.10392,0.71569,0.28055
9.96,0.77539,0.8348,0.10392,0.71569,0.29326
9.968,0.7793,0.82698,0.1098,0.72157,0.30987
9.976,0.76953,0.81818,0.11373,0.71569,0.32942
9.984,0.75977,0.81036,0.14314,0.73137,0.348
9.992,1.0039,0.80156,0.28431,0.77647,0.36755
10,1.2891,0.79277,0.46078,0.76078,0.39198
10.008,1.3496,0.78397,0.20392,0.77059,0.4174
10.016,0.82031,0.77419,-0.092157,0.6,0.44575
10.024,0.70508,0.76344,-0.015686,0.57059,0.4741
10.032,0.73438,0.75269,0.058824,0.66471,0.50342
10.04,0.75,0.74096,0.078431,0.70588,0.53177
10.048,0.75,0.72825,0.094118,0.71569,0.56012
10.056,0.74023,0.71554,0.084314,0.71569,0.58651
10.064,0.74414,0.70283,0.084314,0.71569,0.6129
10.072,0.74414,0.68915,0.084314,0.71569,0.63734
10.08,0.74414,0.67644,0.078431,0.72157,0.65689
10.088,0.74414,0.66178,0.078431,0.72549,0.67351
10.096,0.74414,0.64809,0.084314,0.72157,0.69208
10.104,0.74414,0.63441,0.078431,0.72549,0.70968
10.112,0.75,0.61975,0.078431,0.72549,0.72727
10.12,0.75,0.60606,0.07451,0.73137,0.74291
10.128,0.75391,0.59335,0.078431,0.73137,0.7566
10.136,0.75,0.57967,0.078431,0.73137,0.76833
10.144,0.75391,0.56696,0.084314,0.73137,0.7781
10.152,0.75977,0.55327,0.084314,0.73529,0.78495
10.16,0.75977,0.54057,0.094118,0.73529,0.78983
10.168,0.76562,0.52688,0.098039,0.73137,0.79277
10.176,0.76953,0.51222,0.10392,0.73529,0.79277
10.184,0.77539,0.49756,0.10392,0.73137,0.78983
10.192,0.7793,0.48192,0.1098,0.73529,0.7869
10.2,0.78516,0.4653,0.11373,0.73529,0.78397
10.208,0.78516,0.44966,0.11373,0.73529,0.77908
10.216,0.78516,0.43304,0.11961,0.74118,0.77322
10.224,0.79492,0.41642,0.12353,0.74118,0.7654
10.232,0.80469,0.39883,0.12941,0.74118,0.7566
10.24,0.81055,0.38221,0.12941,0.74118,0.74682
10.248,0.81055,0.36559,0.12941,0.74118,0.73607
10.256,0.81055,0.348,0.11961,0.74118,0.72532
10.264,0.81445,0.3304,0.11373,0.73529,0.71359
10.272,0.81055,0.31378,0.11373,0.74118,0.70283
10.28,0.81055,0.29619,0.11373,0.73529,0.69306
10.288,0.81055,0.27761,0.1098,0.74118,0.68328
10.296,0.81055,0.26002,0.1098,0.73529,0.67351
10.304,0.80469,0.24145,0.10392,0.73137,0.66373
10.312,0.80469,0.22483,0.10392,0.73137,0.65591
10.32,0.79883,0.20723,0.10392,0.73137,0.64712
10.328,0.79492,0.19159,0.10392,0.72549,0.63832
10.336,0.78906,0.17595,0.10392,0.72549,0.62952
10.344,0.78516,0.16031,0.098039,0.72549,0.6217
10.352,0.7793,0.14565,0.098039,0.72157,0.6129
10.36,0.77539,0.13001,0.088235,0.72157,0.60411
10.368,0.76953,0.11535,0.094118,0.71569,0.59433
10.376,0.76953,0.10068,0.088235,0.72157,0.58553
10.384,0.76953,0.086022,0.088235,0.72549,0.57674
10.392,0.76562,0.070381,0.088235,0.72157,0.56696
10.4,0.76562,0.055718,0.088235,0.71569,0.55816
10.408,0.76562,0.040078,0.094118,0.71569,0.54936
10.416,0.75977,0.025415,0.088235,0.71569,0.54154
10.424,0.75977,0.012708,0.094118,0.71569,0.53275
10.432,0.76562,0,0.098039,0.71569,0.52395
10.44,0.76562,0,0.094118,0.71569,0.51711
10.448,0.76562,0,0.098039,0.71569,0.50929
10.456,0.75977,0,0.094118,0.71569,0.50049
10.464,0.75977,0,0.094118,0.71569,0.49169
10.472,0.76953,0,0.094118,0.72157,0.48387
10.48,0.75977,0,0.10392,0.71569,0.47801
10.488,0.76953,0,0.10392,0.71569,0.4741
10.496,0.76953,0,0.098039,0.71569,0.47019
10.504,0.75977,0,0.094118,0.71569,0.46921
10.512,0.75977,0,0.088235,0.71569,0.47019
10.52,0.76562,0,0.084314,0.71569,0.4741
10.528,0.75977,0,0.078431,0.71569,0.47996
10.536,0.76562,0,0.078431,0.72157,0.4868
10.544,0.75977,0,0.078431,0.71569,0.4956
10.552,0.76562,0,0.078431,0.71569,0.50538
10.56,0.75977,0,0.084314,0.71569,0.51613
10.568,0.76562,0,0.084314,0.71569,0.5259
10.576,0.75977,0,0.084314,0.71569,0.5347
10.584,0.75977,0,0.084314,0.71569,0.54154
10.592,0.75977,0,0.084314,0.71569,0.54839
10.6,0.76562,0,0.084314,0.71569,0.55523
10.608,0.76562,0,0.078431,0.71569,0.56012
10.616,0.76562,0,0.078431,0.71569,0.56305
10.624,0.76562,0,0.084314,0.71569,0.56403
10.632,0.76562,0,0.088235,0.71569,0.56305
10.64,0.76562,0,0.084314,0.71569,0.56109
10.648,0.76562,0,0.078431,0.71569,0.55914
10.656,0.76562,0,0.084314,0.71569,0.55621
10.664,0.77539,0,0.088235,0.71569,0.55327
10.672,0.76953,0,0.084314,0.71569,0.54839
10.68,0.76953,0,0.088235,0.71569,0.5435
10.688,0.77539,0,0.088235,0.71569,0.53861
10.696,0.76953,0,0.088235,0.72157,0.52884
10.704,0.76953,0,0.084314,0.71569,0.51711
10.712,0.76953,0,0.088235,0.71569,0.50733
10.72,0.77539,0,0.10392,0.7098,0.49853
10.728,0.76953,0,0.11961,0.7098,0.49071
10.736,0.78516,0,0.11961,0.70588,0.48192
10.744,0.7793,0,0.12941,0.70588,0.47312
10.752,0.78516,0,0.12353,0.71569,0.4653
10.76,0.78906,0,0.11961,0.71569,0.45846
10.768,0.78516,0,0.10392,0.71569,0.45259
10.776,0.78906,0,0.1098,0.72157,0.44673
10.784,0.79883,0,0.098039,0.72157,0.44184
10.792,0.81055,0,0.094118,0.73137,0.43695
10.8,0.82031,0,0.098039,0.73137,0.43109
10.808,0.81055,0,0.11373,0.72157,0.42522
10.816,0.78906,0,0.098039,0.71569,0.42033
10.824,0.7793,0,0.088235,0.71569,0.41642
10.832,0.77539,0,0.084314,0.72157,0.41251
10.84,0.77539,0,0.078431,0.72549,0.4086
10.848,0.7793,0,0.078431,0.72549,0.40469
10.856,0.77539,0,0.078431,0.72549,0.40078
10.864,0.76953,0,0.078431,0.72549,0.39589
10.872,0.76562,0,0.078431,0.73137,0.39101
10.88,0.76953,0,0.07451,0.72549,0.3871
10.888,0.77539,0,0.078431,0.72549,0.38319
10.896,0.74414,0,0.084314,0.71569,0.3783
10.904,0.71484,0,0.094118,0.71569,0.37341
10.912,0.85938,0,0.2,0.77059,0.3695
10.92,1.2402,0,0.4451,0.83137,0.36461
10.928,1.4883,0,0.53922,0.86078,0.36168
10.936,1.1094,0,0.078431,0.72157,0.35777
10.944,0.6543,0,-0.13137,0.5549,0.35484
10.952,0.65039,0,-0.060784,0.64118,0.35093
10.96,0.74023,0,0.017647,0.71569,0.348
10.968,0.75,0,0.052941,0.72549,0.34409
10.976,0.74414,0,0.068627,0.72157,0.34213
10.984,0.74414,0,0.07451,0.72157,0.34115
10.992,0.74023,0,0.078431,0.72157,0.3392
11,0.75,0,0.078431,0.72549,0.33627
11.008,0.74414,0,0.084314,0.72549,0.33333
11.016,0.75391,0,0.088235,0.73137,0.32942
11.024,0.75977,0,0.084314,0.73137,0.32649
11.032,0.75391,0,0.088235,0.72549,0.32356
11.04,0.75977,0,0.094118,0.72549,0.31965
11.048,0.75977,0,0.098039,0.73137,0.31769
11.056,0.75977,0,0.098039,0.73137,0.31476
11.064,0.76562,0,0.10392,0.73137,0.31378
11.072,0.76562,0,0.10392,0.73137,0.31183
11.08,0.7793,0,0.10392,0.73529,0.30987
11.088,0.78516,0,0.1098,0.73137,0.3089
11.096,0.78906,0,0.1098,0.73529,0.30596
11.104,0.79492,0,0.1098,0.74118,0.30401
11.112,0.80469,0,0.11961,0.74118,0.30108
11.12,0.80469,0,0.12941,0.73529,0.29814
11.128,0.81055,0,0.12941,0.74118,0.29619
11.136,0.82031,0,0.13333,0.74118,0.29521
11.144,0.82422,0,0.13922,0.7451,0.29326
11.152,0.83984,0,0.14314,0.7451,0.29228
11.16,0.83398,0,0.14902,0.75098,0.29032
11.168,0.84961,0,0.1549,0.75098,0.28935
11.176,0.84375,0,0.14902,0.7451,0.28935
11.184,0.85547,0,0.1549,0.75098,0.28935
11.192,0.85547,0,0.14902,0.7451,0.28837
11.2,0.84375,0,0.13333,0.75098,0.28837
11.208,0.84375,0,0.12941,0.7451,0.28739
11.216,0.83398,0,0.12941,0.74118,0.28641
11.224,0.82422,0,0.12353,0.73137,0.28543
11.232,0.82031,0,0.1098,0.73529,0.28446
11.24,0.82031,0,0.088235,0.74118,0.28348
11.248,0.81055,0,0.07451,0.74118,0.2825
11.256,0.81445,0,0.078431,0.72157,0.28152
11.264,0.83398,0,0.098039,0.73137,0.28152
11.272,0.85547,0,0.12353,0.74118,0.28055
11.28,0.84375,0,0.12941,0.74118,0.28055
11.288,0.81055,0,0.12353,0.72157,0.27957
11.296,0.80469,0,0.11961,0.71569,0.27859
11.304,0.79883,0,0.11373,0.71569,0.27761
11.312,0.79492,0,0.11373,0.71569,0.27664
11.32,0.78516,0,0.10392,0.71569,0.27566
11.328,0.78516,0,0.1098,0.71569,0.27566
11.336,0.78516,0,0.10392,0.71569,0.27566
11.344,0.7793,0,0.1098,0.7098,0.27566
11.352,0.77539,0,0.10392,0.7098,0.27566
11.36,0.77539,0,0.1098,0.7098,0.27566
11.368,0.77539,0,0.10392,0.7098,0.27566
11.376,0.77539,0,0.10392,0.7098,0.27664
11.384,0.77539,0,0.10392,0.7098,0.27859
11.392,0.77539,0,0.11373,0.7098,0.2825
11.4,0.76953,0,0.11373,0.7098,0.28935
11.408,0.7793,0,0.12353,0.70588,0.29912
11.416,0.76953,0,0.12941,0.7098,0.31281
11.424,0.75977,0,0.14314,0.70588,0.32845
11.432,0.96484,0,0.2451,0.78039,0.34702
11.44,1.2988,0,0.41961,0.81569,0.36755
11.448,1.4043,0,0.2549,0.83529,0.38905
11.456,0.90039,0,-0.096078,0.62941,0.41251
11.464,0.69531,0,-0.047059,0.55098,0.43695
11.472,0.73438,0,0.04902,0.65098,0.46041
11.48,0.75,0,0.098039,0.6902,0.48192
11.488,0.74414,0,0.10392,0.70588,0.50049
11.496,0.74023,0,0.1098,0.7098,0.52199
11.504,0.73438,0,0.10392,0.7098,0.5435
11.512,0.73438,0,0.10392,0.71569,0.565
11.52,0.74414,0,0.10392,0.71569,0.58651
11.528,0.74023,0,0.098039,0.7098,0.60802
11.536,0.74023,0,0.084314,0.71569,0.62757
11.544,0.73438,0,0.088235,0.71569,0.64614
11.552,0.74023,0,0.094118,0.71569,0.66373
11.56,0.74414,0,0.098039,0.71569,0.67937
11.568,0.74023,0,0.094118,0.71569,0.69306
11.576,0.74414,0,0.088235,0.72157,0.70283
11.584,0.75977,0,0.098039,0.71569,0.71065
11.592,0.75,0,0.10392,0.72157,0.71945
11.6,0.75977,0,0.098039,0.72157,0.72727
11.608,0.75977,0,0.10392,0.72157,0.73509
11.616,0.76562,0,0.10392,0.72549,0.73998
11.624,0.75977,0,0.11373,0.72549,0.74389
11.632,0.77539,0,0.11961,0.73137,0.74487
11.64,0.7793,0,0.11373,0.73529,0.74389
11.648,0.77539,0,0.11961,0.73529,0.74194
11.656,0.78516,0,0.12941,0.73529,0.73803
11.664,0.78516,0,0.11961,0.73529,0.73216
11.672,0.78516,0,0.12353,0.73529,0.72532
11.68,0.78906,0,0.12941,0.73529,0.7175
11.688,0.78516,0,0.12353,0.73137,0.7087
11.696,0.78906,0,0.12941,0.73137,0.69892
11.704,0.78906,0,0.12353,0.73137,0.68915
11.712,0.79492,0,0.11373,0.73529,0.67937
11.72,0.78906,0,0.11373,0.73137,0.6696
11.728,0.78906,0,0.1098,0.73137,0.6608
11.736,0.79492,0,0.11373,0.72549,0.652
11.744,0.78516,0,0.11373,0.72549,0.64223
11.752,0.78906,0,0.11373,0.72157,0.63343
11.76,0.78516,0,0.1098,0.72549,0.62463
11.768,0.78906,0,0.10392,0.72157,0.61584
11.776,0.78516,0,0.11373,0.71569,0.60606
11.784,0.77539,0,0.10392,0.71569,0.59824
11.792,0.77539,0,0.10392,0.71569,0.58944
11.8,0.76562,0,0.094118,0.71569,0.58065
11.808,0.76562,0,0.098039,0.71569,0.57283
11.816,0.76562,0,0.088235,0.71569,0.565
11.824,0.75977,0,0.094118,0.7098,0.55621
11.832,0.75977,0,0.094118,0.7098,0.54741
11.84,0.75391,0,0.098039,0.70588,0.53959
11.848,0.75391,0,0.094118,0.7098,0.53177
11.856,0.75977,0,0.098039,0.7098,0.52395
11.864,0.75391,0,0.098039,0.70588,0.51613
11.872,0.75,0,0.098039,0.7,0.50929
11.88,0.75977,0,0.098039,0.7098,0.50244
11.888,0.75,0,0.094118,0.7098,0.49756
11.896,0.75977,0,0.098039,0.70588,0.49071
11.904,0.75391,0,0.094118,0.7098,0.48485
11.912,0.75977,0,0.10392,0.70588,0.47801
11.92,0.75391,0,0.098039,0.70588,0.47312
11.928,0.75391,0,0.094118,0.70588,0.46823
11.936,0.75,0,0.088235,0.70588,0.46725
11.944,0.75391,0,0.098039,0.70588,0.46823
11.952,0.75,0,0.084314,0.7098,0.47116
11.96,0.75391,0,0.088235,0.7098,0.47801
11.968,0.75,0,0.088235,0.7098,0.4868
11.976,0.75391,0,0.088235,0.7098,0.4956
11.984,0.75,0,0.094118,0.70588,0.5044
11.992,0.75,0,0.084314,0.7098,0.51613
12,0.74023,0,0.078431,0.7098,0.52688
12.008,0.74414,0,0.078431,0.70588,0.53763
12.016,0.75391,0,0.078431,0.71569,0.54741
12.024,0.75391,0,0.078431,0.7098,0.55718
12.032,0.75,0,0.084314,0.71569,0.56696
12.04,0.74414,0,0.088235,0.70588,0.57478
12.048,0.75,0,0.088235,0.7098,0.58162
12.056,0.74414,0,0.078431,0.7098,0.58553
12.064,0.75391,0,0.078431,0.71569,0.58944
12.072,0.75977,0,0.078431,0.71569,0.58944
12.08,0.75391,0,0.084314,0.71569,0.58944
12.088,0.75,0,0.078431,0.7098,0.58749
12.096,0.75391,0,0.084314,0.71569,0.58456
12.104,0.75391,0,0.078431,0.7098,0.58162
12.112,0.75,0,0.084314,0.7098,0.57771
12.12,0.75391,0,0.078431,0.71569,0.57283
12.128,0.75391,0,0.078431,0.7098,0.56696
12.136,0.75391,0,0.078431,0.7098,0.55914
12.144,0.75,0,0.078431,0.7098,0.55132
12.152,0.75977,0,0.078431,0.71569,0.54154
12.16,0.75391,0,0.088235,0.70588,0.53275
12.168,0.75977,0,0.078431,0.7098,0.52493
12.176,0.75391,0,0.084314,0.7098,0.51711
12.184,0.76562,0,0.098039,0.7,0.51026
12.192,0.75977,0,0.1098,0.69608,0.5044
12.2,0.76562,0,0.12353,0.7,0.49756
12.208,0.76953,0,0.12941,0.70588,0.49071
12.216,0.76562,0,0.12941,0.70588,0.48289
12.224,0.76953,0,0.12353,0.7098,0.47507
12.232,0.7793,0,0.11373,0.71569,0.46823
12.24,0.77539,0,0.10392,0.71569,0.46139
12.248,0.78516,0,0.10392,0.71569,0.45455
12.256,0.78906,0,0.098039,0.71569,0.44868
12.264,0.80469,0,0.10392,0.72549,0.44282
12.272,0.80469,0,0.10392,0.73137,0.43695
12.28,0.79492,0,0.1098,0.72157,0.43206
12.288,0.76953,0,0.094118,0.71569,0.42717
12.296,0.76562,0,0.088235,0.71569,0.42131
12.304,0.75977,0,0.078431,0.71569,0.41544
12.312,0.76562,0,0.07451,0.72157,0.41056
12.32,0.75977,0,0.07451,0.71569,0.40469
12.328,0.75977,0,0.07451,0.71569,0.3998
12.336,0.75977,0,0.068627,0.71569,0.39394
12.344,0.75977,0,0.068627,0.71569,0.38905
12.352,0.75977,0,0.07451,0.71569,0.38416
12.36,0.75391,0,0.062745,0.71569,0.37928
12.368,0.71484,0,0.078431,0.70588,0.37537
12.376,0.69531,0,0.094118,0.7,0.37243
12.384,0.98047,0,0.26471,0.8,0.3695
12.392,1.375,0,0.49412,0.85098,0.36559
12.4,1.4883,0,0.30392,0.8902,0.3607
12.408,0.85547,0,-0.082353,0.6098,0.35582
12.416,0.63477,0,-0.15098,0.5451,0.35093
12.424,0.70508,0,-0.041176,0.66078,0.34702
12.432,0.73047,0,0.033333,0.70588,0.34311
12.44,0.72461,0.001955,0.052941,0.70588,0.34018
12.448,0.73438,0.0048876,0.058824,0.7098,0.33724
12.456,0.73047,0.013685,0.062745,0.7098,0.33431
12.464,0.73438,0.022483,0.068627,0.71569,0.33138
12.472,0.73047,0.030303,0.078431,0.71569,0.3304
12.48,0.73047,0.038123,0.078431,0.7098,0.32942
12.488,0.73438,0.044966,0.07451,0.71569,0.32747
12.496,0.73438,0.052786,0.078431,0.71569,0.32551
12.504,0.73438,0.059629,0.078431,0.71569,0.32356
12.512,0.74023,0.066471,0.084314,0.71569,0.31965
12.52,0.74414,0.073314,0.078431,0.71569,0.31672
12.528,0.74414,0.079179,0.084314,0.71569,0.31281
12.536,0.74414,0.084066,0.088235,0.71569,0.3089
12.544,0.75391,0.089932,0.094118,0.72157,0.30596
12.552,0.75977,0.094819,0.098039,0.71569,0.30303
12.56,0.75977,0.099707,0.10392,0.71569,0.3001
12.568,0.76562,0.10362,0.10392,0.71569,0.29912
12.576,0.76953,0.1085,0.10392,0.72157,0.29912
12.584,0.7793,0.11144,0.1098,0.72157,0.29912
12.592,0.7793,0.11535,0.11961,0.72157,0.29814
12.6,0.78906,0.1173,0.12941,0.72157,0.29717
12.608,0.79492,0.11926,0.13333,0.72549,0.29521
12.616,0.80469,0.12023,0.13922,0.72549,0.29326
12.624,0.80469,0.12023,0.13333,0.73137,0.2913
12.632,0.81445,0.11828,0.13922,0.73137,0.28935
12.64,0.82031,0.1173,0.13333,0.73529,0.28739
12.648,0.82031,0.11632,0.12941,0.74118,0.28641
12.656,0.82031,0.11437,0.13333,0.74118,0.28348
12.664,0.81445,0.11437,0.13333,0.73529,0.28152
12.672,0.81445,0.11339,0.12941,0.73529,0.28055
12.68,0.81055,0.11437,0.12353,0.73529,0.28055
12.688,0.80469,0.11535,0.10392,0.73137,0.27957
12.696,0.79883,0.1173,0.10392,0.73137,0.27859
12.704,0.79492,0.11926,0.098039,0.72549,0.27859
12.712,0.78516,0.12317,0.088235,0.72157,0.27761
12.72,0.7793,0.12805,0.088235,0.72157,0.27761
12.728,0.7793,0.13294,0.078431,0.71569,0.27566
12.736,0.78516,0.13881,0.052941,0.73137,0.2737
12.744,0.78516,0.14565,0.058824,0.73529,0.26588
12.752,0.78516,0.15347,0.07451,0.71569,0.25611
12.76,0.81445,0.16129,0.094118,0.73137,0.25024
12.768,0.82422,0.17009,0.1098,0.74118,0.24731
12.776,0.80469,0.17986,0.10392,0.73529,0.24536
12.784,0.76953,0.18866,0.094118,0.71569,0.24438
12.792,0.76562,0.19941,0.098039,0.71569,0.2434
12.8,0.75977,0.20919,0.10392,0.7098,0.24242
12.808,0.75977,0.21994,0.098039,0.71569,0.24047
12.816,0.75391,0.23069,0.094118,0.70588,0.23949
12.824,0.75391,0.2434,0.094118,0.7098,0.23851
12.832,0.75977,0.25611,0.10392,0.7098,0.23851
12.84,0.75391,0.27273,0.10392,0.70588,0.23949
12.848,0.75977,0.28935,0.10392,0.70588,0.24242
12.856,0.75391,0.30987,0.10392,0.7,0.24731
12.864,0.75977,0.33138,0.10392,0.70588,0.25611
12.872,0.75977,0.3607,0.10392,0.7098,0.26588
12.88,0.75977,0.39003,0.10392,0.70588,0.27859
12.888,0.75391,0.42717,0.12353,0.7,0.29326
12.896,0.75977,0.46432,0.12941,0.7,0.31183
12.904,0.73047,0.51222,0.12941,0.7,0.33138
12.912,0.83008,0.56109,0.16471,0.7451,0.35288
12.92,1.1484,0.61681,0.34902,0.78039,0.37634
12.928,1.3398,0.67351,0.41961,0.76667,0.3998
12.936,0.94922,0.73021,-0.015686,0.63529,0.42522
12.944,0.60547,0.78592,-0.096078,0.50588,0.45161
12.952,0.67578,0.83871,0.039216,0.6098,0.47801
12.96,0.73047,0.8915,0.094118,0.68627,0.5044
12.968,0.73438,0.93353,0.1098,0.70588,0.53079
12.976,0.74023,0.97556,0.11373,0.70588,0.5523
12.984,0.73438,0.98827,0.11373,0.7098,0.57185
12.992,0.74023,1,0.12941,0.70588,0.5914
13,0.73438,1,0.11961,0.7098,0.61193
13.008,0.73438,1,0.1098,0.7098,0.63148
13.016,0.74023,1,0.11373,0.71569,0.65103
13.024,0.74414,1,0.1098,0.71569,0.66764
13.032,0.74023,1,0.10392,0.7098,0.68328
13.04,0.75,1,0.11961,0.71569,0.69697
13.048,0.74414,1,0.12353,0.71569,0.7087
13.056,0.75,1,0.10392,0.71569,0.72043
13.064,0.75391,1,0.10392,0.71569,0.73021
13.072,0.75391,1,0.10392,0.71569,0.73509
13.08,0.75391,1,0.10392,0.71569,0.73803
13.088,0.75977,1,0.098039,0.72157,0.73998
13.096,0.76953,1,0.11961,0.71569,0.74096
13.104,0.77539,1,0.12353,0.71569,0.73998
13.112,0.78516,1,0.12941,0.72549,0.73705
13.12,0.78516,1,0.12353,0.72549,0.73314
13.128,0.79492,1,0.13333,0.73137,0.72727
13.136,0.79883,1,0.13922,0.73137,0.72043
13.144,0.80469,1,0.13333,0.73137,0.71163
13.152,0.79883,1,0.14314,0.73137,0.70186
13.16,0.81055,1,0.13922,0.73137,0.6911
13.168,0.81055,1,0.13333,0.73529,0.68035
13.176,0.79883,1,0.12941,0.73137,0.66862
13.184,0.80469,1,0.12941,0.73529,0.65787
13.192,0.79883,1,0.13333,0.73137,0.64614
13.2,0.79492,1,0.12353,0.72549,0.63539
13.208,0.78906,1,0.12353,0.72549,0.62463
13.216,0.78906,1,0.11961,0.72157,0.61486
13.224,0.78906,1,0.10392,0.72549,0.60508
13.232,0.78516,1,0.10392,0.72549,0.59433
13.24,0.78516,1,0.12353,0.72157,0.58456
13.248,0.7793,1,0.10392,0.72157,0.57478
13.256,0.78516,1,0.098039,0.72549,0.56403
13.264,0.7793,1,0.1098,0.72157,0.5523
13.272,0.77539,1,0.10392,0.71569,0.54154
13.28,0.76562,1,0.1098,0.71569,0.53177
13.288,0.76562,1,0.098039,0.71569,0.52199
13.296,0.75977,1,0.094118,0.71569,0.51124
13.304,0.75977,1,0.098039,0.71569,0.50147
13.312,0.76562,1,0.11373,0.71569,0.49169
13.32,0.75977,1,0.10392,0.71569,0.48289
13.328,0.75977,1,0.088235,0.71569,0.4741
13.336,0.75977,1,0.10392,0.71569,0.46628
13.344,0.75977,1,0.1098,0.71569,0.45748
13.352,0.75977,1,0.094118,0.71569,0.44868
13.36,0.76562,1,0.10392,0.71569,0.44086
13.368,0.75977,1,0.1098,0.71569,0.43402
13.376,0.76562,1,0.10392,0.71569,0.42717
13.384,0.76562,1,0.10392,0.71569,0.42131
13.392,0.76562,1,0.1098,0.71569,0.41544
13.4,0.75977,1,0.098039,0.71569,0.41153
13.408,0.76562,1,0.088235,0.71569,0.40762
13.416,0.76562,1,0.10392,0.71569,0.40567
13.424,0.75977,1,0.098039,0.71569,0.40567
13.432,0.76953,1,0.10392,0.71569,0.4086
13.44,0.76953,1,0.1098,0.7098,0.41447
13.448,0.76953,1,0.098039,0.71569,0.42229
13.456,0.76562,1,0.10392,0.71569,0.43304
13.464,0.76953,1,0.094118,0.71569,0.44477
13.472,0.75977,1,0.088235,0.71569,0.4565
13.48,0.75977,1,0.10392,0.7098,0.46823
13.488,0.76562,1,0.084314,0.71569,0.48094
13.496,0.76953,1,0.084314,0.72157,0.49462
13.504,0.76562,1,0.084314,0.71569,0.50733
13.512,0.76953,1,0.094118,0.71569,0.52004
13.52,0.76562,1,0.10392,0.7098,0.53079
13.528,0.76953,1,0.098039,0.71569,0.54057
13.536,0.77539,1,0.084314,0.71569,0.54936
13.544,0.76562,1,0.078431,0.71569,0.55621
13.552,0.75977,1,0.094118,0.71569,0.56207
13.56,0.77539,1,0.084314,0.71569,0.565
13.568,0.77539,1,0.088235,0.71569,0.56794
13.576,0.76953,1,0.088235,0.71569,0.56794
13.584,0.76562,1,0.078431,0.71569,0.56598
13.592,0.7793,1,0.098039,0.71569,0.56403
13.6,0.7793,1,0.10392,0.7098,0.55914
13.608,0.77539,1,0.088235,0.71569,0.55425
13.616,0.77539,1,0.078431,0.72157,0.54741
13.624,0.7793,1,0.088235,0.71569,0.53959
13.632,0.7793,1,0.098039,0.71569,0.53079
13.64,0.78516,1,0.094118,0.72549,0.52102
13.648,0.7793,1,0.078431,0.72157,0.51124
13.656,0.78516,1,0.098039,0.71569,0.50147
13.664,0.77539,1,0.088235,0.72157,0.49169
13.672,0.77539,1,0.084314,0.71569,0.48289
13.68,0.7793,1,0.11373,0.7098,0.4741
13.688,0.7793,1,0.1098,0.7098,0.4653
13.696,0.7793,1,0.10392,0.71569,0.45552
13.704,0.7793,1,0.12353,0.7098,0.44673
13.712,0.78516,1,0.13333,0.71569,0.43793
13.72,0.78906,1,0.11961,0.71569,0.43011
13.728,0.78906,1,0.12353,0.71569,0.42131
13.736,0.78906,1,0.12941,0.71569,0.41447
13.744,0.78906,1,0.094118,0.72549,0.40762
13.752,0.80469,1,0.098039,0.73137,0.40176
13.76,0.81055,1,0.1098,0.73137,0.39589
13.768,0.81445,1,0.11961,0.72549,0.39101
13.776,0.78906,1,0.098039,0.72549,0.38612
13.784,0.77539,1,0.084314,0.72157,0.38025
13.792,0.78516,1,0.094118,0.72549,0.37439
13.8,0.7793,1,0.084314,0.72549,0.36755
13.808,0.7793,1,0.078431,0.72549,0.3607
13.816,0.77539,1,0.084314,0.72549,0.35386
13.824,0.77539,1,0.078431,0.73137,0.34702
13.832,0.77539,1,0.084314,0.72549,0.34115
13.84,0.77539,1,0.07451,0.73137,0.33529
13.848,0.7793,1,0.07451,0.73529,0.32942
13.856,0.75391,1,0.078431,0.73137,0.32454
13.864,0.72461,1,0.084314,0.73529,0.32063
13.872,0.85938,1,0.20392,0.77647,0.31769
13.88,1.1895,1,0.4902,0.78627,0.31476
13.888,1.3691,1,0.6,0.7549,0.31183
13.896,0.98047,1,0.1549,0.63529,0.30792
13.904,0.58984,1,-0.11176,0.5451,0.30303
13.912,0.6543,1,-0.056863,0.6549,0.29814
13.92,0.74023,1,0.017647,0.73137,0.29228
13.928,0.75391,1,0.052941,0.74118,0.28739
13.936,0.75391,1,0.068627,0.73137,0.28348
13.944,0.75391,1,0.07451,0.73137,0.27957
13.952,0.75977,1,0.078431,0.73529,0.27664
13.96,0.75977,1,0.078431,0.73529,0.2737
13.968,0.75977,1,0.084314,0.73529,0.27175
13.976,0.75977,1,0.084314,0.74118,0.27077
13.984,0.76562,1,0.088235,0.73529,0.26882
13.992,0.76562,1,0.088235,0.73529,0.26686
14,0.76953,1,0.094118,0.73137,0.26393
14.008,0.76953,1,0.098039,0.73529,0.261
14.016,0.77539,1,0.098039,0.74118,0.25806
14.024,0.77539,1,0.10392,0.73529,0.25513
14.032,0.77539,1,0.10392,0.73529,0.25122
14.04,0.7793,1,0.11373,0.73529,0.24731
14.048,0.78516,1,0.11961,0.73137,0.24438
14.056,0.78516,1,0.12353,0.72549,0.24242
14.064,0.78906,1,0.12941,0.73137,0.23949
14.072,0.79883,1,0.13922,0.73137,0.23851
14.08,0.81055,1,0.14314,0.73137,0.23851
14.088,0.81445,1,0.14902,0.73137,0.23656
14.096,0.82031,1,0.14902,0.73137,0.2346
14.104,0.82422,1,0.15882,0.73529,0.23265
14.112,0.83008,1,0.16471,0.73529,0.23167
14.12,0.83398,1,0.17451,0.73529,0.22972
14.128,0.83984,1,0.16863,0.74118,0.22874
14.136,0.84375,1,0.16863,0.74118,0.22776
14.144,0.83984,1,0.16863,0.74118,0.22581
14.152,0.83008,1,0.1549,0.74118,0.22483
14.16,0.83008,1,0.14314,0.73137,0.22385
14.168,0.83008,1,0.12941,0.74118,0.22287
14.176,0.83008,1,0.11373,0.73529,0.22287
14.184,0.82031,1,0.1098,0.72549,0.22287
14.192,0.83984,1,0.13333,0.73137,0.2219
14.2,0.84961,1,0.14902,0.74118,0.22092
14.208,0.82422,1,0.14314,0.73137,0.22092
14.216,0.80469,1,0.12941,0.72157,0.22092
14.224,0.79883,1,0.12353,0.72157,0.21994
14.232,0.79883,0.99804,0.11961,0.71569,0.21896
14.24,0.79883,0.99609,0.12353,0.71569,0.21799
14.248,0.78906,0.98925,0.11961,0.71569,0.21701
14.256,0.79492,0.9824,0.11961,0.71569,0.21701
14.264,0.78516,0.97654,0.11961,0.71569,0.21701
14.272,0.78516,0.97067,0.11373,0.71569,0.21896
14.28,0.78516,0.96383,0.11373,0.71569,0.22092
14.288,0.7793,0.95797,0.11373,0.71569,0.22287
14.296,0.77539,0.9521,0.1098,0.71569,0.22385
14.304,0.77539,0.94526,0.10392,0.71569,0.22385
14.312,0.77539,0.93842,0.1098,0.71569,0.22385
14.32,0.77539,0.9306,0.10392,0.71569,0.22385
14.328,0.76953,0.92278,0.11373,0.71569,0.22385
14.336,0.77539,0.91496,0.11373,0.71569,0.22581
14.344,0.77539,0.90518,0.11373,0.71569,0.22972
14.352,0.77539,0.89638,0.12353,0.71569,0.23558
14.36,0.7793,0.88759,0.11961,0.71569,0.2434
14.368,0.7793,0.87781,0.11961,0.71569,0.25415
14.376,0.76953,0.86901,0.14902,0.71569,0.26686
14.384,0.87891,0.85924,0.22941,0.7549,0.28348
14.392,1.1836,0.85044,0.4549,0.77647,0.30303
14.4,1.375,0.84164,0.5098,0.76667,0.32551
14.408,1.1152,0.83089,0.017647,0.78039,0.34995
14.416,0.73438,0.82111,-0.060784,0.58039,0.37732
14.424,0.7207,0.81036,0.043137,0.63529,0.40469
14.432,0.75,0.79863,0.088235,0.68627,0.43402
14.44,0.75391,0.78592,0.10392,0.7098,0.46334
14.448,0.74414,0.77419,0.10392,0.71569,0.49267
14.456,0.74023,0.75953,0.098039,0.71569,0.52102
14.464,0.74023,0.74585,0.098039,0.71569,0.54741
14.472,0.74023,0.73021,0.098039,0.71569,0.56989
14.48,0.74414,0.71457,0.094118,0.71569,0.58847
14.488,0.74023,0.69795,0.094118,0.71569,0.60997
14.496,0.75,0.68133,0.094118,0.72157,0.63148
14.504,0.75,0.66471,0.088235,0.72157,0.652
14.512,0.74414,0.64712,0.084314,0.72157,0.67155
14.52,0.75391,0.6305,0.088235,0.72157,0.69013
14.528,0.75977,0.6129,0.088235,0.72549,0.70772
14.536,0.75977,0.59531,0.094118,0.72549,0.72434
14.544,0.75977,0.57771,0.098039,0.72157,0.73705
14.552,0.75977,0.56012,0.10392,0.72549,0.7478
14.56,0.76562,0.54252,0.10392,0.73137,0.75758
14.568,0.76953,0.52493,0.10392,0.73137,0.76344
14.576,0.76953,0.50635,0.10392,0.73137,0.7654
14.584,0.77539,0.48778,0.1098,0.73137,0.76833
14.592,0.7793,0.46921,0.11961,0.73529,0.76833
14.6,0.78516,0.44966,0.11961,0.73529,0.76735
14.608,0.78906,0.43011,0.12353,0.73529,0.76442
14.616,0.79492,0.40958,0.11961,0.74118,0.75953
14.624,0.79883,0.39003,0.12941,0.74118,0.75367
14.632,0.79883,0.3695,0.12941,0.74118,0.74682
14.64,0.80469,0.34995,0.13333,0.74118,0.73998
14.648,0.81055,0.32942,0.12941,0.74118,0.73118
14.656,0.81445,0.30987,0.12353,0.74118,0.72336
14.664,0.81445,0.29032,0.12353,0.74118,0.71359
14.672,0.82031,0.27077,0.11961,0.74118,0.70479
14.68,0.81445,0.25122,0.11373,0.74118,0.69501
14.688,0.81055,0.23265,0.11373,0.74118,0.68524
14.696,0.80469,0.2131,0.11373,0.74118,0.67449
14.704,0.79883,0.19355,0.11373,0.73529,0.66276
14.712,0.79883,0.174,0.1098,0.73529,0.65298
14.72,0.79492,0.15445,0.10392,0.73137,0.64223
14.728,0.78516,0.13587,0.10392,0.73137,0.63245
14.736,0.7793,0.1173,0.10392,0.71569,0.62366
14.744,0.78516,0.10068,0.10392,0.71569,0.61486
14.752,0.77539,0.083089,0.094118,0.71569,0.60606
14.76,0.76953,0.066471,0.088235,0.71569,0.59629
14.768,0.76562,0.049853,0.094118,0.71569,0.58749
14.776,0.76562,0.032258,0.088235,0.71569,0.57869
14.784,0.76562,0.01564,0.084314,0.71569,0.56989
14.792,0.75977,0.0078201,0.088235,0.71569,0.56109
14.8,0.75977,0,0.084314,0.71569,0.5523
14.808,0.75977,0,0.094118,0.71569,0.5435
14.816,0.75977,0,0.094118,0.71569,0.53568
14.824,0.76562,0,0.094118,0.71569,0.52786
14.832,0.76953,0,0.098039,0.71569,0.52004
14.84,0.76562,0,0.10392,0.7098,0.51124
14.848,0.76953,0,0.098039,0.7098,0.50342
14.856,0.76953,0,0.098039,0.7098,0.4956
14.864,0.76953,0,0.098039,0.7098,0.48876
14.872,0.76953,0,0.094118,0.7098,0.48289
14.88,0.76953,0,0.098039,0.71569,0.47703
14.888,0.76953,0,0.094118,0.7098,0.47214
14.896,0.76953,0,0.088235,0.71569,0.46823
14.904,0.77539,0,0.094118,0.7098,0.4653
14.912,0.76562,0,0.094118,0.70588,0.46432
14.92,0.75977,0,0.088235,0.70588,0.4653
14.928,0.76562,0,0.084314,0.71569,0.46921
14.936,0.76953,0,0.078431,0.7098,0.47507
14.944,0.76562,0,0.078431,0.71569,0.48289
14.952,0.75977,0,0.078431,0.7098,0.49071
14.96,0.75977,0,0.078431,0.71569,0.49951
14.968,0.76562,0,0.078431,0.7098,0.50733
14.976,0.75977,0,0.078431,0.7098,0.5132
14.984,0.75977,0,0.078431,0.71569,0.52004
14.992,0.75977,0,0.078431,0.71569,0.5259
15,0.75977,0,0.078431,0.7098,0.53079
15.008,0.75977,0,0.078431,0.71569,0.5347
15.016,0.75977,0,0.078431,0.7098,0.53666
15.024,0.75977,0,0.078431,0.71569,0.53763
15.032,0.76562,0,0.078431,0.7098,0.53666
15.04,0.76562,0,0.07451,0.71569,0.53666
15.048,0.76562,0,0.07451,0.71569,0.53568
15.056,0.76562,0,0.078431,0.71569,0.53372
15.064,0.75977,0,0.07451,0.7098,0.53177
15.072,0.76562,0,0.078431,0.7098,0.52786
15.08,0.75977,0,0.07451,0.71569,0.52297
15.088,0.75977,0,0.07451,0.71569,0.51613
15.096,0.76562,0,0.068627,0.71569,0.50831
15.104,0.76953,0,0.07451,0.71569,0.49951
15.112,0.76562,0,0.068627,0.71569,0.49169
15.12,0.76953,0,0.078431,0.71569,0.48485
15.128,0.76953,0,0.094118,0.7098,0.47801
15.136,0.77539,0,0.10392,0.70588,0.47116
15.144,0.76953,0,0.1098,0.7098,0.46432
15.152,0.77539,0,0.11373,0.7098,0.4565
15.16,0.7793,0,0.10392,0.71569,0.44966
15.168,0.78516,0,0.10392,0.71569,0.44379
15.176,0.7793,0,0.098039,0.71569,0.43891
15.184,0.78516,0,0.098039,0.71569,0.43304
15.192,0.78906,0,0.084314,0.72157,0.42815
15.2,0.79883,0,0.088235,0.72549,0.42326
15.208,0.81055,0,0.088235,0.73137,0.41935
15.216,0.81055,0,0.094118,0.73137,0.41447
15.224,0.79492,0,0.094118,0.72549,0.4086
15.232,0.77539,0,0.07451,0.72157,0.40274
15.24,0.76953,0,0.062745,0.72549,0.39687
15.248,0.76562,0,0.068627,0.72157,0.39101
15.256,0.75977,0,0.062745,0.72157,0.38612
15.264,0.76562,0,0.058824,0.72549,0.38221
15.272,0.76562,0,0.062745,0.72549,0.38025
15.28,0.76562,0,0.068627,0.72549,0.37732
15.288,0.75977,0,0.068627,0.72549,0.37439
15.296,0.76562,0,0.062745,0.72549,0.37146
15.304,0.75,0,0.078431,0.72157,0.36852
15.312,0.70898,0,0.088235,0.71569,0.36461
15.32,0.77539,0,0.12941,0.7451,0.3607
15.328,1.1094,0,0.3549,0.82157,0.35582
15.336,1.4395,0,0.53922,0.84118,0.35191
15.344,1.4785,0,0.20392,0.86078,0.348
15.352,0.70898,0,-0.12745,0.56078,0.34409
15.36,0.63477,0,-0.14118,0.60588,0.34018
15.368,0.7207,0,-0.021569,0.69608,0.33724
15.376,0.74023,0,0.039216,0.71569,0.33529
15.384,0.73438,0,0.052941,0.71569,0.33236
15.392,0.73438,0,0.052941,0.71569,0.3304
15.4,0.74023,0,0.062745,0.71569,0.32747
15.408,0.74414,0,0.062745,0.71569,0.32454
15.416,0.73438,0,0.062745,0.71569,0.3216
15.424,0.74023,0,0.068627,0.72157,0.31965
15.432,0.75,0,0.07451,0.71569,0.31769
15.44,0.74023,0,0.068627,0.72157,0.31574
15.448,0.75,0,0.07451,0.71569,0.31378
15.456,0.75391,0,0.07451,0.71569,0.31183
15.464,0.75391,0,0.078431,0.71569,0.31085
15.472,0.75977,0,0.088235,0.71569,0.31085
15.48,0.75977,0,0.088235,0.71569,0.30987
15.488,0.76562,0,0.094118,0.72157,0.30987
15.496,0.76953,0,0.098039,0.72549,0.3089
15.504,0.76562,0,0.094118,0.72549,0.30792
15.512,0.7793,0,0.1098,0.73137,0.30694
15.52,0.78516,0,0.1098,0.73137,0.30499
15.528,0.78516,0,0.11373,0.73529,0.30303
15.536,0.79492,0,0.11373,0.73529,0.30108
15.544,0.80469,0,0.12353,0.73529,0.29912
15.552,0.81055,0,0.12941,0.74118,0.29717
15.56,0.81445,0,0.13922,0.73529,0.29619
15.568,0.82031,0,0.14902,0.74118,0.29619
15.576,0.82031,0,0.14902,0.74118,0.29619
15.584,0.82422,0,0.14314,0.74118,0.29521
15.592,0.83008,0,0.14902,0.74118,0.29423
15.6,0.83008,0,0.14314,0.74118,0.29228
15.608,0.83008,0,0.13333,0.74118,0.29032
15.616,0.82031,0,0.12941,0.74118,0.28837
15.624,0.81445,0,0.11961,0.73529,0.28641
15.632,0.81055,0,0.1098,0.73137,0.28446
15.64,0.79883,0,0.10392,0.72549,0.28348
15.648,0.79492,0,0.094118,0.72157,0.2825
15.656,0.79492,0,0.088235,0.72157,0.28152
15.664,0.79883,0,0.07451,0.73137,0.28055
15.672,0.78906,0,0.068627,0.72157,0.28055
15.68,0.79492,0,0.078431,0.71569,0.27957
15.688,0.83008,0,0.10392,0.73137,0.27761
15.696,0.83984,0,0.11961,0.74118,0.27664
15.704,0.82031,0,0.12353,0.73529,0.27566
15.712,0.78906,0,0.10392,0.71569,0.27468
15.72,0.78516,0,0.1098,0.71569,0.2737
15.728,0.7793,0,0.10392,0.7098,0.2737
15.736,0.77539,0,0.1098,0.71569,0.27273
15.744,0.76953,0,0.10392,0.7098,0.27273
15.752,0.76562,0,0.098039,0.7098,0.27273
15.76,0.75977,0,0.10392,0.70588,0.27175
15.768,0.76562,0,0.10392,0.70588,0.27273
15.776,0.75977,0,0.10392,0.70588,0.2737
15.784,0.76562,0,0.10392,0.70588,0.27468
15.792,0.75977,0,0.098039,0.7098,0.27664
15.8,0.76953,0,0.10392,0.70588,0.28055
15.808,0.75977,0,0.10392,0.7098,0.28641
15.816,0.76953,0,0.1098,0.7098,0.29521
15.824,0.76562,0,0.10392,0.70588,0.30694
15.832,0.75977,0,0.11373,0.7098,0.3216
15.84,0.74414,0,0.13333,0.70588,0.3392
15.848,0.86914,0,0.16863,0.76667,0.35875
15.856,1.1934,0,0.3549,0.80588,0.37928
15.864,1.3887,0,0.4098,0.82549,0.39785
15.872,1.0195,0,-0.056863,0.69608,0.41642
15.88,0.67969,0,-0.11176,0.55098,0.43793
15.888,0.72461,0,0.039216,0.63529,0.46041
15.896,0.74023,0,0.088235,0.6902,0.48387
15.904,0.74414,0,0.098039,0.7098,0.50831
15.912,0.73438,0,0.094118,0.7098,0.53177
15.92,0.73438,0,0.094118,0.71569,0.55425
15.928,0.73438,0,0.094118,0.71569,0.57674
15.936,0.73438,0,0.088235,0.71569,0.59824
15.944,0.74023,0,0.094118,0.71569,0.61975
15.952,0.73438,0,0.088235,0.71569,0.6393
15.96,0.73438,0,0.098039,0.71569,0.65787
15.968,0.74023,0,0.10392,0.71569,0.67253
15.976,0.74414,0,0.088235,0.71569,0.68426
15.984,0.74023,0,0.094118,0.71569,0.69697
15.992,0.75,0,0.098039,0.72157,0.7087
16,0.74414,0,0.10392,0.72157,0.71945
16.008,0.75,0,0.10392,0.71569,0.72727
16.016,0.75391,0,0.1098,0.72157,0.73412
16.024,0.75977,0,0.10392,0.72549,0.739
16.032,0.76562,0,0.11373,0.73137,0.74194
16.04,0.77539,0,0.11961,0.72549,0.74389
16.048,0.76953,0,0.12353,0.72549,0.74487
16.056,0.78516,0,0.12941,0.73137,0.74291
16.064,0.78906,0,0.12941,0.73529,0.73998
16.072,0.79492,0,0.13333,0.73529,0.73412
16.08,0.79492,0,0.13333,0.74118,0.72825
16.088,0.80469,0,0.13922,0.74118,0.72141
16.096,0.79883,0,0.13333,0.74118,0.71359
16.104,0.80469,0,0.13922,0.73529,0.70479
16.112,0.79883,0,0.12941,0.73137,0.69501
16.12,0.80469,0,0.12941,0.73529,0.68524
16.128,0.79883,0,0.12941,0.73137,0.67546
16.136,0.79883,0,0.11961,0.72549,0.66569
16.144,0.79883,0,0.11373,0.72549,0.65591
16.152,0.79883,0,0.11373,0.73137,0.64712
16.16,0.79492,0,0.11961,0.72157,0.63734
16.168,0.79492,0,0.12353,0.72157,0.62854
16.176,0.79883,0,0.11961,0.72157,0.62072
16.184,0.79492,0,0.1098,0.72157,0.61193
16.192,0.78906,0,0.1098,0.71569,0.60411
16.2,0.78906,0,0.11961,0.71569,0.59531
16.208,0.79492,0,0.11961,0.71569,0.58651
16.216,0.7793,0,0.1098,0.71569,0.57771
16.224,0.7793,0,0.1098,0.71569,0.56989
16.232,0.76953,0,0.10392,0.71569,0.56109
16.24,0.76953,0,0.1098,0.7098,0.5523
16.248,0.76562,0,0.10392,0.7098,0.54448
16.256,0.76953,0,0.1098,0.70588,0.53666
16.264,0.76562,0,0.1098,0.70588,0.52884
16.272,0.76562,0,0.11373,0.71569,0.52199
16.28,0.76953,0,0.11373,0.7098,0.51515
16.288,0.76562,0,0.1098,0.70588,0.50733
16.296,0.75977,0,0.11961,0.70588,0.49951
16.304,0.76953,0,0.1098,0.71569,0.49169
16.312,0.76562,0,0.1098,0.70588,0.48387
16.32,0.76562,0,0.11373,0.70588,0.47703
16.328,0.75977,0,0.11961,0.70588,0.47019
16.336,0.76562,0,0.11373,0.70588,0.46628
16.344,0.77539,0,0.11961,0.7,0.46334
16.352,0.76953,0,0.11373,0.70588,0.46237
16.36,0.76562,0,0.1098,0.7098,0.46432
16.368,0.76953,0,0.10392,0.7098,0.46628
16.376,0.76562,0,0.10392,0.7098,0.47019
16.384,0.75977,0,0.10392,0.7098,0.47703
16.392,0.76562,0,0.10392,0.7098,0.4868
16.4,0.75977,0,0.10392,0.7098,0.49756
16.408,0.76953,0,0.10392,0.7098,0.50929
16.416,0.76953,0,0.10392,0.71569,0.52102
16.424,0.76953,0,0.098039,0.70588,0.53372
16.432,0.76562,0,0.10392,0.70588,0.54545
16.44,0.76953,0,0.10392,0.7098,0.55718
16.448,0.76562,0,0.10392,0.7098,0.56794
16.456,0.76562,0,0.098039,0.7098,0.57771
16.464,0.76562,0,0.098039,0.7098,0.58456
16.472,0.76953,0,0.094118,0.70588,0.58944
16.48,0.76953,0,0.094118,0.7098,0.59335
16.488,0.76953,0,0.094118,0.70588,0.59629
16.496,0.76562,0,0.084314,0.7098,0.59824
16.504,0.76953,0,0.084314,0.7098,0.59824
16.512,0.77539,0,0.088235,0.7098,0.59726
16.52,0.76953,0,0.078431,0.7098,0.59531
16.528,0.76953,0,0.084314,0.7098,0.59238
16.536,0.77539,0,0.094118,0.7098,0.58847
16.544,0.76953,0,0.078431,0.7098,0.58358
16.552,0.7793,0,0.078431,0.7098,0.57771
16.56,0.77539,0,0.088235,0.70588,0.57087
16.568,0.7793,0,0.078431,0.70588,0.56305
16.576,0.77539,0,0.084314,0.70588,0.55523
16.584,0.77539,0,0.078431,0.70588,0.54643
16.592,0.77539,0,0.078431,0.70588,0.53763
16.6,0.77539,0,0.094118,0.7098,0.52981
16.608,0.77539,0,0.1098,0.69608,0.52102
16.616,0.77539,0,0.11961,0.69608,0.51222
16.624,0.7793,0,0.12941,0.69608,0.50342
16.632,0.7793,0,0.12941,0.7,0.49462
16.64,0.78516,0,0.12941,0.70588,0.4868
16.648,0.78516,0.021505,0.12941,0.70588,0.47898
16.656,0.78516,0.043011,0.11373,0.71569,0.47214
16.664,0.78516,0.086999,0.1098,0.7098,0.46628
16.672,0.79492,0.13196,0.10392,0.71569,0.46139
16.68,0.81055,0.18768,0.10392,0.71569,0.45748
16.688,0.81055,0.2434,0.1098,0.71569,0.45161
16.696,0.81445,0.3089,0.12941,0.71569,0.44575
16.704,0.79883,0.37341,0.12353,0.7098,0.43988
16.712,0.78516,0.44575,0.1098,0.7098,0.43402
16.72,0.77539,0.51906,0.10392,0.70588,0.42717
16.728,0.77539,0.59433,0.098039,0.7098,0.42131
16.736,0.76953,0.6696,0.088235,0.7098,0.41544
16.744,0.76562,0.73314,0.094118,0.71569,0.40958
16.752,0.76953,0.79765,0.094118,0.7098,0.40274
16.76,0.77539,0.85044,0.088235,0.7098,0.39687
16.768,0.76953,0.90225,0.098039,0.70588,0.39198
16.776,0.76953,0.9433,0.088235,0.70588,0.3871
16.784,0.77539,0.98338,0.094118,0.7098,0.38319
16.792,0.7207,0.99218,0.10392,0.69608,0.3783
16.8,0.70898,1,0.12941,0.72157,0.37341
16.808,1.0547,1,0.32941,0.79608,0.36852
16.816,1.3945,1,0.56078,0.81176,0.36364
16.824,1.4648,1,0.3,0.82157,0.35875
16.832,0.71484,1,-0.072549,0.53529,0.35386
16.84,0.60938,1,-0.12745,0.52941,0.34604
16.848,0.70898,1,-0.0058823,0.68039,0.33529
16.856,0.74023,1,0.04902,0.71569,0.32845
16.864,0.75,1,0.068627,0.71569,0.32454
16.872,0.74414,1,0.084314,0.71569,0.3216
16.88,0.74023,1,0.078431,0.71569,0.31769
16.888,0.74023,1,0.07451,0.71569,0.31378
16.896,0.75,1,0.078431,0.71569,0.31085
16.904,0.75,1,0.084314,0.71569,0.30694
16.912,0.75391,1,0.088235,0.72157,0.30303
16.92,0.75,1,0.084314,0.71569,0.29912
16.928,0.75977,1,0.094118,0.71569,0.29521
16.936,0.75977,1,0.088235,0.71569,0.29228
16.944,0.75977,1,0.084314,0.72157,0.28935
16.952,0.75977,1,0.084314,0.72157,0.28543
16.96,0.76562,1,0.088235,0.72157,0.2825
16.968,0.76953,1,0.10392,0.71569,0.28055
16.976,0.76562,1,0.098039,0.71569,0.27859
16.984,0.77539,1,0.098039,0.72157,0.27664
16.992,0.78516,1,0.11373,0.72157,0.2737
17,0.78516,1,0.10392,0.72549,0.27175
17.008,0.79492,1,0.10392,0.73137,0.26882
17.016,0.79883,1,0.10392,0.73137,0.26588
17.024,0.81055,1,0.12353,0.72549,0.26393
17.032,0.81055,1,0.13333,0.73529,0.261
17.04,0.82031,1,0.12941,0.73529,0.25904
17.048,0.83008,1,0.13922,0.74118,0.25611
17.056,0.83008,1,0.14314,0.74118,0.2522
17.064,0.83008,1,0.13333,0.74118,0.25024
17.072,0.83984,1,0.14314,0.74118,0.24829
17.08,0.83398,1,0.14902,0.74118,0.24536
17.088,0.83008,1,0.13922,0.74118,0.24242
17.096,0.82422,1,0.11373,0.73529,0.23851
17.104,0.81055,1,0.11961,0.74118,0.23558
17.112,0.81055,1,0.12353,0.72549,0.23363
17.12,0.80469,1,0.098039,0.73137,0.23069
17.128,0.80469,1,0.078431,0.73137,0.22874
17.136,0.81055,1,0.088235,0.73529,0.22581
17.144,0.80469,1,0.078431,0.72549,0.22385
17.152,0.82422,1,0.088235,0.74118,0.22287
17.16,0.83008,1,0.11373,0.74118,0.22092
17.168,0.80469,1,0.11961,0.72157,0.22092
17.176,0.79492,1,0.094118,0.72549,0.22092
17.184,0.78516,1,0.084314,0.71569,0.21994
17.192,0.7793,1,0.10392,0.71569,0.21896
17.2,0.77539,1,0.10392,0.71569,0.21799
17.208,0.76562,1,0.094118,0.71569,0.21701
17.216,0.76562,1,0.098039,0.7098,0.21505
17.224,0.76953,1,0.1098,0.7098,0.21408
17.232,0.75977,1,0.10392,0.7098,0.21212
17.24,0.76562,1,0.084314,0.7098,0.21114
17.248,0.75977,1,0.084314,0.70588,0.21017
17.256,0.75977,1,0.094118,0.7098,0.20919
17.264,0.75977,1,0.084314,0.7098,0.20919
17.272,0.76953,1,0.10392,0.71569,0.21114
17.28,0.76562,1,0.10392,0.7098,0.2131
17.288,0.77539,1,0.098039,0.7098,0.21603
17.296,0.76953,1,0.10392,0.7098,0.22287
17.304,0.75977,1,0.10392,0.71569,0.23265
17.312,0.7793,1,0.13922,0.72549,0.24536
17.32,0.97461,1,0.26863,0.76667,0.261
17.328,1.2637,1,0.49412,0.75098,0.27859
17.336,1.3301,1,0.5,0.72157,0.29814
17.344,0.79883,1,-0.05098,0.56471,0.31965
17.352,0.62891,1,-0.066667,0.51569,0.34213
17.36,0.70898,1,0.058824,0.6451,0.36559
17.368,0.75391,1,0.088235,0.70588,0.38612
17.376,0.75,1,0.094118,0.71569,0.40567
17.384,0.74414,1,0.084314,0.72157,0.42717
17.392,0.74023,1,0.078431,0.71569,0.45064
17.4,0.74414,1,0.07451,0.73137,0.4741
17.408,0.75,1,0.078431,0.73137,0.49756
17.416,0.75,1,0.078431,0.73137,0.51906
17.424,0.74414,1,0.068627,0.73137,0.54057
17.432,0.75,1,0.084314,0.73137,0.56109
17.44,0.75391,1,0.10392,0.72157,0.57967
17.448,0.75977,1,0.11373,0.72157,0.59726
17.456,0.75977,1,0.084314,0.73529,0.6129
17.464,0.75977,1,0.07451,0.73529,0.62561
17.472,0.75977,1,0.068627,0.74118,0.63539
17.48,0.75391,1,0.088235,0.73529,0.64418
17.488,0.76562,1,0.094118,0.73137,0.65298
17.496,0.76953,1,0.088235,0.72549,0.65982
17.504,0.7793,1,0.12941,0.73137,0.66569
17.512,0.78516,1,0.098039,0.72549,0.6696
17.52,0.79492,1,0.1098,0.74118,0.67253
17.528,0.78906,1,0.13333,0.72549,0.67351
17.536,0.78516,1,0.13333,0.73137,0.67155
17.544,0.80469,1,0.12941,0.73529,0.66862
17.552,0.80469,1,0.12353,0.74118,0.66276
17.56,0.81055,1,0.12941,0.74118,0.65689
17.568,0.81055,1,0.12941,0.74118,0.64907
17.576,0.81055,1,0.13922,0.74118,0.64027
17.584,0.81055,1,0.12941,0.74118,0.6305
17.592,0.81055,1,0.12353,0.73137,0.6217
17.6,0.81445,1,0.12941,0.72549,0.61193
17.608,0.81055,1,0.14314,0.72549,0.60215
17.616,0.81445,1,0.1098,0.73137,0.59238
17.624,0.80469,1,0.10392,0.72549,0.5826
17.632,0.81055,1,0.12353,0.72157,0.57283
17.64,0.80469,1,0.11961,0.72549,0.56403
17.648,0.79883,1,0.10392,0.73137,0.55523
17.656,0.80469,1,0.10392,0.72549,0.54545
17.664,0.78516,1,0.11373,0.72157,0.53763
17.672,0.7793,1,0.10392,0.71569,0.52981
17.68,0.7793,1,0.10392,0.71569,0.52102
17.688,0.77539,1,0.094118,0.71569,0.51222
17.696,0.7793,1,0.07451,0.72549,0.50342
17.704,0.77539,1,0.088235,0.71569,0.49462
17.712,0.76562,1,0.094118,0.71569,0.48583
17.72,0.75977,1,0.078431,0.71569,0.47801
17.728,0.76953,1,0.098039,0.7098,0.47019
17.736,0.75977,1,0.088235,0.71569,0.46237
17.744,0.77539,1,0.084314,0.72549,0.45455
17.752,0.76953,1,0.088235,0.72157,0.44673
17.76,0.76562,1,0.084314,0.72157,0.43988
17.768,0.76953,1,0.088235,0.72157,0.43304
17.776,0.76953,1,0.084314,0.72157,0.42522
17.784,0.76562,1,0.094118,0.71569,0.4174
17.792,0.76953,1,0.10392,0.71569,0.40958
17.8,0.76953,1,0.1098,0.71569,0.40274
17.808,0.77539,1,0.11373,0.71569,0.39589
17.816,0.7793,1,0.11373,0.71569,0.38905
17.824,0.77539,1,0.11373,0.71569,0.38416
17.832,0.7793,1,0.11961,0.71569,0.38123
17.84,0.7793,1,0.11373,0.71569,0.38025
17.848,0.7793,1,0.11961,0.7098,0.38123
17.856,0.77539,1,0.11373,0.71569,0.38514
17.864,0.76953,1,0.1098,0.71569,0.39003
17.872,0.77539,1,0.1098,0.71569,0.39687
17.88,0.76953,1,0.1098,0.71569,0.40665
17.888,0.76953,1,0.11373,0.7098,0.4174
17.896,0.76953,1,0.1098,0.7098,0.42913
17.904,0.77539,1,0.1098,0.71569,0.44086
17.912,0.77539,1,0.11373,0.7098,0.45064
17.92,0.7793,1,0.11961,0.7098,0.46041
17.928,0.7793,1,0.11961,0.7098,0.46823
17.936,0.7793,1,0.11373,0.7098,0.47312
17.944,0.77539,1,0.11961,0.7098,0.47801
17.952,0.78516,1,0.12353,0.7098,0.48094
17.96,0.78516,1,0.12941,0.70588,0.48289
17.968,0.78516,1,0.12941,0.70588,0.48387
17.976,0.78516,1,0.12941,0.70588,0.48387
17.984,0.7793,1,0.12353,0.70588,0.48387
17.992,0.78516,1,0.12941,0.70588,0.48192
18,0.7793,1,0.12353,0.70588,0.47898
18.008,0.78516,1,0.12941,0.7098,0.47507
18.016,0.7793,1,0.12941,0.70588,0.47019
18.024,0.78516,1,0.12941,0.70588,0.46432
18.032,0.78516,1,0.12941,0.70588,0.45846
18.04,0.78516,1,0.12941,0.70588,0.45259
18.048,0.78516,1,0.12941,0.7098,0.44575
18.056,0.78516,1,0.12941,0.70588,0.43891
18.064,0.78516,1,0.12941,0.70588,0.43304
18.072,0.78516,1,0.12941,0.70588,0.42717
18.08,0.78516,1,0.12941,0.70588,0.42033
18.088,0.78516,1,0.12941,0.70588,0.41349
18.096,0.78516,1,0.12941,0.7098,0.40665
18.104,0.78516,1,0.13922,0.70588,0.40078
18.112,0.78906,1,0.14314,0.69608,0.39492
18.12,0.79492,1,0.1549,0.7,0.38905
18.128,0.78906,1,0.15882,0.7,0.38416
18.136,0.78906,1,0.1549,0.7,0.37928
18.144,0.79883,1,0.14902,0.70588,0.37439
18.152,0.79492,1,0.13922,0.7098,0.3695
18.16,0.79883,1,0.13922,0.7098,0.36657
18.168,0.80469,1,0.12941,0.71569,0.36461
18.176,0.81055,1,0.12941,0.71569,0.36168
18.184,0.82031,0.99218,0.12941,0.71569,0.35777
18.192,0.82031,0.98436,0.13922,0.71569,0.35484
18.2,0.80469,0.97556,0.13333,0.71569,0.35093
18.208,0.78516,0.96774,0.11961,0.7098,0.348
18.216,0.78516,0.95894,0.1098,0.71569,0.34506
18.224,0.7793,0.95015,0.10392,0.71569,0.34213
18.232,0.7793,0.94135,0.098039,0.71569,0.3392
18.24,0.7793,0.93353,0.098039,0.71569,0.33822
18.248,0.7793,0.92473,0.098039,0.71569,0.33627
18.256,0.77539,0.91593,0.10392,0.71569,0.33431
18.264,0.7793,0.90714,0.098039,0.71569,0.33333
18.272,0.77539,0.89834,0.10392,0.71569,0.33236
18.28,0.76562,0.88856,0.10392,0.71569,0.3304
18.288,0.73047,0.87879,0.10392,0.7098,0.32942
18.296,0.7207,0.86804,0.14314,0.73137,0.32845
18.304,1.0488,0.85728,0.37059,0.7902,0.32747
18.312,1.3691,0.84555,0.60588,0.78627,0.32551
18.32,1.4395,0.83382,0.33922,0.8,0.32454
18.328,0.74414,0.82014,-0.047059,0.56078,0.32356
18.336,0.64453,0.80743,-0.10588,0.5549,0.32356
18.344,0.7207,0.79277,-0.0019608,0.68627,0.32356
18.352,0.75,0.7781,0.058824,0.71569,0.32356
18.36,0.74414,0.76246,0.078431,0.7098,0.32356
18.368,0.74023,0.74585,0.078431,0.71569,0.32356
18.376,0.74414,0.73021,0.078431,0.71569,0.32258
18.384,0.74023,0.71457,0.078431,0.71569,0.3216
18.392,0.75,0.69892,0.084314,0.71569,0.32063
18.4,0.75,0.68231,0.088235,0.71569,0.31965
18.408,0.75391,0.66667,0.084314,0.71569,0.31769
18.416,0.75391,0.65103,0.088235,0.72157,0.31574
18.424,0.75391,0.63441,0.088235,0.72157,0.31378
18.432,0.75,0.61877,0.088235,0.71569,0.31085
18.44,0.75391,0.60215,0.084314,0.71569,0.3089
18.448,0.75977,0.58553,0.094118,0.72157,0.30596
18.456,0.76562,0.56794,0.094118,0.72157,0.30303
18.464,0.76953,0.55034,0.094118,0.72549,0.30108
18.472,0.76562,0.53177,0.098039,0.72157,0.3001
18.48,0.77539,0.5132,0.10392,0.72549,0.29717
18.488,0.78516,0.49462,0.10392,0.72549,0.29521
18.496,0.78516,0.47605,0.1098,0.73137,0.29326
18.504,0.78516,0.45748,0.11373,0.73137,0.29228
18.512,0.78906,0.43793,0.11961,0.72549,0.2913
18.52,0.79883,0.41838,0.12353,0.73529,0.2913
18.528,0.81055,0.39883,0.12941,0.74118,0.29032
18.536,0.81445,0.37732,0.14314,0.73529,0.29032
18.544,0.82031,0.35679,0.14902,0.73529,0.29032
18.552,0.82422,0.33431,0.14902,0.74118,0.29032
18.56,0.83008,0.31183,0.14902,0.74118,0.2913
18.568,0.83008,0.29032,0.14314,0.74118,0.2913
18.576,0.83008,0.26784,0.13333,0.74118,0.29032
18.584,0.82422,0.24731,0.12941,0.73529,0.29032
18.592,0.81445,0.22581,0.12353,0.73137,0.28935
18.6,0.81445,0.20626,0.11373,0.73137,0.28935
18.608,0.81445,0.18671,0.098039,0.74118,0.28935
18.616,0.81055,0.16813,0.084314,0.73529,0.28837
18.624,0.81055,0.14956,0.10392,0.72549,0.28739
18.632,0.83398,0.13294,0.11373,0.73529,0.28641
18.64,0.83984,0.11535,0.12353,0.74118,0.28543
18.648,0.81055,0.099707,0.11373,0.73137,0.28348
18.656,0.79883,0.083089,0.1098,0.71569,0.28152
18.664,0.78906,0.066471,0.1098,0.71569,0.27957
18.672,0.78906,0.050831,0.11373,0.71569,0.27859
18.68,0.78516,0.034213,0.10392,0.71569,0.27664
18.688,0.78516,0.017595,0.1098,0.7098,0.27566
18.696,0.78516,0.0087977,0.1098,0.71569,0.27468
18.704,0.7793,0,0.1098,0.7098,0.27468
18.712,0.77539,0,0.10392,0.7098,0.2737
18.72,0.76953,0,0.10392,0.7098,0.2737
18.728,0.76562,0,0.10392,0.70588,0.2737
18.736,0.76953,0,0.10392,0.70588,0.2737
18.744,0.75977,0,0.10392,0.7098,0.27273
18.752,0.75977,0,0.10392,0.7098,0.27175
18.76,0.76562,0,0.10392,0.7098,0.27273
18.768,0.75977,0,0.10392,0.7098,0.27468
18.776,0.76953,0,0.1098,0.7098,0.27761
18.784,0.76562,0,0.11373,0.7098,0.2825
18.792,0.76953,0,0.11373,0.7098,0.28837
18.8,0.77539,0,0.12353,0.71569,0.29717
18.808,0.75977,0,0.15882,0.7098,0.3089
18.816,0.93945,0,0.2451,0.77059,0.32258
18.824,1.2598,0,0.4451,0.78627,0.3392
18.832,1.3789,0,0.44902,0.8,0.35973
18.84,0.96875,0,-0.060784,0.66471,0.38025
18.848,0.71484,0,-0.076471,0.57059,0.40274
18.856,0.73047,0,0.052941,0.64118,0.4262
18.864,0.74023,0,0.088235,0.6902,0.44673
18.872,0.74023,0,0.098039,0.7,0.46628
18.88,0.74414,0,0.098039,0.70588,0.4868
18.888,0.73438,0,0.10392,0.70588,0.52493
18.896,0.73438,0,0.098039,0.7098,0.57185
18.904,0.73438,0,0.094118,0.7098,0.60704
18.912,0.73438,0,0.098039,0.7098,0.63539
18.92,0.74023,0,0.098039,0.7098,0.65982
18.928,0.74023,0,0.094118,0.7098,0.68231
18.936,0.74023,0,0.094118,0.70588,0.70283
18.944,0.74414,0,0.094118,0.7098,0.72141
18.952,0.74414,0,0.094118,0.7098,0.739
18.96,0.75,0,0.10392,0.7098,0.75073
18.968,0.75391,0,0.098039,0.71569,0.75953
18.976,0.75,0,0.10392,0.7098,0.76931
18.984,0.75391,0,0.10392,0.71569,0.77908
18.992,0.76562,0,0.10392,0.71569,0.7869
19,0.76953,0,0.1098,0.71569,0.79472
19.008,0.76953,0,0.11961,0.71569,0.80059
19.016,0.7793,0,0.12353,0.71569,0.80352
19.024,0.7793,0,0.12941,0.72157,0.80547
19.032,0.78516,0,0.12353,0.72549,0.80547
19.04,0.78516,0,0.12941,0.72549,0.80254
19.048,0.79492,0,0.13333,0.72157,0.79863
19.056,0.79883,0,0.13922,0.72549,0.79277
19.064,0.79883,0,0.13922,0.73137,0.78495
19.072,0.80469,0,0.13922,0.73137,0.77615
19.08,0.80469,0,0.13333,0.73137,0.76637
19.088,0.81055,0,0.12941,0.73529,0.75562
19.096,0.81055,0,0.12353,0.73137,0.74487
19.104,0.81055,0,0.12941,0.73529,0.73509
19.112,0.81055,0,0.11961,0.73137,0.72434
19.12,0.80469,0,0.11373,0.73529,0.71457
19.128,0.80469,0,0.11961,0.73137,0.70381
19.136,0.80469,0,0.11373,0.72157,0.69306
19.144,0.79883,0,0.11961,0.72157,0.68231
19.152,0.79883,0,0.11373,0.72157,0.67155
19.16,0.79492,0,0.11961,0.71569,0.6608
19.168,0.78906,0,0.11373,0.71569,0.65103
19.176,0.78516,0,0.1098,0.71569,0.64125
19.184,0.77539,0,0.10392,0.7098,0.63148
19.192,0.76953,0,0.098039,0.7098,0.62268
19.2,0.76953,0,0.098039,0.7098,0.61388
19.208,0.76562,0,0.098039,0.7098,0.60508
19.216,0.75977,0,0.094118,0.7098,0.59629
19.224,0.75977,0,0.094118,0.7098,0.58847
19.232,0.76562,0,0.098039,0.70588,0.57967
19.24,0.75977,0,0.098039,0.70588,0.57185
19.248,0.76562,0,0.094118,0.7098,0.56305
19.256,0.75977,0,0.098039,0.70588,0.55621
19.264,0.76562,0,0.098039,0.70588,0.54936
19.272,0.75977,0,0.098039,0.7098,0.54252
19.28,0.75977,0,0.098039,0.7098,0.53568
19.288,0.76562,0,0.10392,0.70588,0.52786
19.296,0.76562,0,0.098039,0.70588,0.52004
19.304,0.75977,0,0.10392,0.70588,0.5132
19.312,0.76562,0,0.098039,0.7098,0.50733
19.32,0.75977,0,0.098039,0.70588,0.50244
19.328,0.75977,0,0.094118,0.7,0.50049
19.336,0.75977,0,0.088235,0.70588,0.50147
19.344,0.76562,0,0.088235,0.7098,0.5044
19.352,0.75977,0,0.088235,0.70588,0.51026
19.36,0.76562,0,0.094118,0.7098,0.51711
19.368,0.75977,0,0.094118,0.70588,0.52395
19.376,0.76562,0,0.088235,0.70588,0.53275
19.384,0.75977,0,0.078431,0.70588,0.5435
19.392,0.75977,0,0.084314,0.70588,0.55425
19.4,0.75977,0,0.084314,0.70588,0.565
19.408,0.75977,0,0.078431,0.70588,0.57478
19.416,0.76562,0,0.084314,0.70588,0.58358
19.424,0.76953,0,0.084314,0.7098,0.5914
19.432,0.76562,0,0.078431,0.70588,0.59629
19.44,0.76562,0,0.078431,0.7098,0.6002
19.448,0.75977,0,0.078431,0.70588,0.60215
19.456,0.75977,0,0.078431,0.70588,0.60215
19.464,0.75977,0,0.078431,0.7098,0.60117
19.472,0.75977,0,0.078431,0.70588,0.59922
19.48,0.76562,0,0.078431,0.70588,0.59629
19.488,0.76953,0,0.084314,0.7098,0.59238
19.496,0.77539,0,0.078431,0.70588,0.58847
19.504,0.76953,0,0.078431,0.7098,0.5826
19.512,0.76953,0,0.078431,0.7098,0.57674
19.52,0.76953,0,0.078431,0.7098,0.56891
19.528,0.77539,0,0.078431,0.7098,0.56109
19.536,0.75977,0,0.078431,0.7098,0.55425
19.544,0.76562,0,0.084314,0.70588,0.54643
19.552,0.77539,0,0.084314,0.7098,0.53959
19.56,0.7793,0,0.088235,0.70588,0.53275
19.568,0.77539,0,0.094118,0.70588,0.5259
19.576,0.7793,0,0.1098,0.7,0.51906
19.584,0.78516,0,0.12941,0.7,0.51124
19.592,0.7793,0,0.13333,0.7,0.50244
19.6,0.78906,0,0.12941,0.70588,0.49462
19.608,0.78906,0,0.11961,0.7098,0.4868
19.616,0.78516,0,0.1098,0.7098,0.47996
19.624,0.78906,0,0.11373,0.7098,0.47312
19.632,0.79492,0,0.098039,0.71569,0.46823
19.64,0.81055,0,0.098039,0.72157,0.46334
19.648,0.81445,0,0.098039,0.72549,0.45943
19.656,0.82031,0,0.1098,0.72157,0.45552
19.664,0.78516,0,0.098039,0.71569,0.45259
19.672,0.77539,0,0.078431,0.7098,0.44868
19.68,0.76953,0,0.078431,0.71569,0.44379
19.688,0.77539,0,0.078431,0.71569,0.43891
19.696,0.76953,0,0.078431,0.71569,0.43304
19.704,0.76562,0,0.068627,0.71569,0.42815
19.712,0.75977,0,0.07451,0.71569,0.42424
19.72,0.75977,0,0.078431,0.71569,0.41935
19.728,0.76562,0,0.078431,0.71569,0.41544
19.736,0.75977,0,0.078431,0.71569,0.41056
19.744,0.74414,0,0.078431,0.7098,0.40567
19.752,0.70508,0,0.088235,0.69608,0.3998
19.76,0.80469,0,0.16471,0.74118,0.39589
19.768,1.1836,0,0.4,0.83137,0.39198
19.776,1.4883,0,0.51961,0.86667,0.38807
19.784,1.2344,0,0.12353,0.87647,0.38416
19.792,0.67969,0,-0.13725,0.55098,0.38025
19.8,0.64453,0,-0.076471,0.62941,0.37634
19.808,0.73438,0,0.0078431,0.7,0.37341
19.816,0.74414,0,0.04902,0.71569,0.3695
19.824,0.73047,0,0.052941,0.71569,0.36657
19.832,0.73438,0,0.058824,0.71569,0.36461
19.84,0.73438,0,0.068627,0.71569,0.36168
19.848,0.73438,0,0.07451,0.71569,0.35875
19.856,0.74023,0,0.07451,0.71569,0.35679
19.864,0.73438,0,0.07451,0.71569,0.35386
19.872,0.74414,0,0.07451,0.71569,0.35093
19.88,0.74414,0,0.078431,0.72157,0.34702
19.888,0.75,0,0.084314,0.71569,0.34311
19.896,0.75,0,0.078431,0.71569,0.34018
19.904,0.75391,0,0.078431,0.72157,0.33724
19.912,0.75977,0,0.078431,0.72157,0.33627
19.92,0.75977,0,0.084314,0.72549,0.33529
19.928,0.76562,0,0.088235,0.72157,0.33431
19.936,0.76562,0,0.088235,0.72549,0.33236
19.944,0.77539,0,0.094118,0.73529,0.33138
19.952,0.78516,0,0.098039,0.72549,0.32942
19.96,0.78516,0,0.10392,0.73529,0.32845
19.968,0.78906,0,0.1098,0.73137,0.32845
19.976,0.79492,0,0.10392,0.73529,0.32747
19.984,0.80469,0,0.1098,0.74118,0.32649
19.992,0.81445,0,0.12353,0.74118,0.32454
20,0.81445,0,0.12941,0.74118,0.32356
20.008,0.82422,0,0.13922,0.74118,0.3216
20.016,0.82422,0,0.13333,0.74118,0.31867
20.024,0.83008,0,0.13333,0.74118,0.31672
20.032,0.83008,0,0.13922,0.74118,0.31476
20.04,0.83008,0,0.12941,0.74118,0.31281
20.048,0.82422,0,0.11961,0.73529,0.31183
20.056,0.82422,0,0.1098,0.73137,0.31183
20.064,0.81055,0,0.094118,0.72157,0.31183
20.072,0.81055,0,0.094118,0.73137,0.31281
20.08,0.81055,0,0.078431,0.73529,0.31281
20.088,0.80469,0,0.068627,0.72549,0.31281
20.096,0.81055,0,0.098039,0.71569,0.31281
20.104,0.84375,0,0.11961,0.73137,0.31281
20.112,0.84961,0,0.12353,0.73529,0.31183
20.12,0.81055,0,0.10392,0.72157,0.30987
20.128,0.79883,0,0.10392,0.71569,0.30792
20.136,0.78906,0,0.10392,0.7098,0.30499
20.144,0.78516,0,0.10392,0.7098,0.30303
20.152,0.78516,0,0.10392,0.70588,0.30108
20.16,0.7793,0,0.10392,0.70588,0.29912
20.168,0.7793,0,0.1098,0.70588,0.29912
20.176,0.77539,0,0.10392,0.70588,0.29814
20.184,0.77539,0,0.10392,0.70588,0.29717
20.192,0.7793,0,0.10392,0.70588,0.29619
20.2,0.76953,0,0.098039,0.70588,0.29619
20.208,0.77539,0,0.11373,0.70588,0.29521
20.216,0.76953,0,0.1098,0.70588,0.29521
20.224,0.76562,0,0.1098,0.70588,0.29619
20.232,0.77539,0,0.11373,0.70588,0.29814
20.24,0.76953,0,0.12353,0.70588,0.30205
20.248,0.77539,0,0.12941,0.70588,0.3089
20.256,0.76953,0,0.12941,0.70588,0.31769
20.264,0.75977,0,0.16471,0.7098,0.32942
20.272,0.99414,0,0.27451,0.7902,0.34311
20.28,1.3496,0,0.46078,0.83529,0.3607
20.288,1.4531,0,0.27451,0.86078,0.38025
20.296,0.96875,0,-0.082353,0.6549,0.40274
20.304,0.72461,0,-0.086275,0.56471,0.4262
20.312,0.73438,0,0.058824,0.6451,0.45161
20.32,0.75,0,0.098039,0.68627,0.47801
20.328,0.74023,0,0.10392,0.69608,0.50342
20.336,0.73438,0,0.1098,0.7,0.52981
20.344,0.73047,0,0.10392,0.70588,0.55425
20.352,0.73047,0,0.10392,0.7,0.57967
20.36,0.73438,0,0.10392,0.7,0.6002
20.368,0.73047,0,0.10392,0.70588,0.61779
20.376,0.73047,0,0.10392,0.7098,0.63832
20.384,0.72461,0,0.098039,0.7098,0.65885
20.392,0.73438,0,0.10392,0.7098,0.67937
20.4,0.73438,0,0.098039,0.7098,0.6999
20.408,0.74023,0,0.098039,0.71569,0.71945
20.416,0.73438,0,0.10392,0.71569,0.73803
20.424,0.74414,0,0.098039,0.71569,0.75367
20.432,0.75,0,0.10392,0.71569,0.76833
20.44,0.74414,0,0.10392,0.71569,0.78104
20.448,0.75391,0,0.10392,0.71569,0.79081
20.456,0.75,0,0.10392,0.72157,0.79765
20.464,0.76562,0,0.1098,0.72157,0.80156
20.472,0.76953,0,0.1098,0.72157,0.80352
20.48,0.77539,0,0.11961,0.72549,0.8045
20.488,0.77539,0,0.12941,0.72549,0.80352
20.496,0.78516,0,0.12941,0.72549,0.80156
20.504,0.78906,0,0.12941,0.73529,0.79863
20.512,0.79492,0,0.12941,0.73529,0.79277
20.52,0.79883,0,0.12941,0.73137,0.78592
20.528,0.80469,0,0.13333,0.73137,0.7781
20.536,0.81055,0,0.12941,0.73137,0.76931
20.544,0.81055,0,0.12941,0.73137,0.75953
20.552,0.80469,0,0.13922,0.73137,0.75073
20.56,0.80469,0,0.12941,0.73137,0.74096
20.568,0.80469,0.024438,0.13333,0.73137,0.73118
20.576,0.80469,0.049853,0.12941,0.72549,0.72141
20.584,0.80469,0.10753,0.12353,0.72157,0.71261
20.592,0.80469,0.16422,0.12941,0.72549,0.70186
20.6,0.79883,0.23069,0.12941,0.71569,0.69208
20.608,0.78906,0.29717,0.12353,0.71569,0.68133
20.616,0.78516,0.37048,0.12353,0.71569,0.67058
20.624,0.7793,0.44379,0.11961,0.7098,0.65885
20.632,0.76953,0.52102,0.1098,0.7098,0.64809
20.64,0.76562,0.59726,0.10392,0.70588,0.63734
20.648,0.75977,0.66569,0.11961,0.69608,0.62757
20.656,0.75977,0.73412,0.10392,0.70588,0.61877
20.664,0.75391,0.79374,0.11373,0.70588,0.60997
20.672,0.75977,0.85337,0.10392,0.7098,0.60215
20.68,0.75977,0.90029,0.10392,0.7098,0.59335
20.688,0.75977,0.94624,0.1098,0.70588,0.58553
20.696,0.75391,0.97361,0.1098,0.7,0.57674
20.704,0.75977,1,0.10392,0.7,0.56891
20.712,0.75977,1,0.11373,0.70588,0.56109
20.72,0.75977,1,0.1098,0.70588,0.55327
20.728,0.75977,1,0.1098,0.70588,0.54545
20.736,0.75977,1,0.10392,0.7,0.53763
20.744,0.75391,1,0.12353,0.69608,0.52981
20.752,0.75977,1,0.11961,0.70588,0.52199
20.76,0.75977,1,0.11961,0.70588,0.51515
20.768,0.75977,1,0.11961,0.70588,0.51026
20.776,0.76562,1,0.1098,0.7098,0.50538
20.784,0.75391,1,0.094118,0.7098,0.50244
20.792,0.75977,1,0.10392,0.71569,0.50244
20.8,0.76562,1,0.10392,0.71569,0.5044
20.808,0.75391,1,0.088235,0.71569,0.50831
20.816,0.75977,1,0.098039,0.7098,0.51417
20.824,0.75977,1,0.10392,0.71569,0.52102
20.832,0.75391,1,0.088235,0.7098,0.52981
20.84,0.75977,1,0.088235,0.7098,0.53763
20.848,0.75391,1,0.084314,0.71569,0.54545
20.856,0.75977,1,0.078431,0.71569,0.5523
20.864,0.76562,1,0.084314,0.71569,0.55816
20.872,0.75977,1,0.084314,0.71569,0.56305
20.88,0.75977,1,0.088235,0.71569,0.56891
20.888,0.75977,1,0.088235,0.7098,0.5738
20.896,0.75977,1,0.098039,0.71569,0.57771
20.904,0.75977,1,0.10392,0.7,0.57967
20.912,0.75977,1,0.088235,0.71569,0.58065
20.92,0.76562,1,0.078431,0.71569,0.58065
20.928,0.75977,1,0.084314,0.7098,0.57771
20.936,0.76562,1,0.098039,0.71569,0.56109
20.944,0.75977,1,0.094118,0.7098,0.53666
20.952,0.76953,1,0.078431,0.71569,0.52004
20.96,0.75977,1,0.084314,0.71569,0.50929
20.968,0.76953,1,0.088235,0.71569,0.50049
20.976,0.76562,1,0.078431,0.71569,0.49169
20.984,0.75977,1,0.084314,0.71569,0.48289
20.992,0.76953,1,0.10392,0.7098,0.47312
21,0.77539,1,0.084314,0.71569,0.46432
21.008,0.77539,1,0.084314,0.71569,0.45552
21.016,0.76953,1,0.084314,0.71569,0.44673
21.024,0.76562,1,0.088235,0.71569,0.43695
21.032,0.76953,1,0.078431,0.71569,0.42815
21.04,0.76953,1,0.098039,0.7098,0.42033
21.048,0.76953,1,0.11373,0.70588,0.41349
21.056,0.77539,1,0.11961,0.7098,0.40665
21.064,0.76953,1,0.11373,0.70588,0.40176
21.072,0.78516,1,0.13922,0.7,0.39589
21.08,0.78516,1,0.1098,0.71569,0.38905
21.088,0.78516,1,0.10392,0.71569,0.38319
21.096,0.78516,1,0.10392,0.71569,0.37732
21.104,0.78906,1,0.084314,0.71569,0.37146
21.112,0.79883,1,0.094118,0.72157,0.36657
21.12,0.80469,1,0.088235,0.72549,0.3607
21.128,0.80469,1,0.11373,0.72157,0.35582
21.136,0.78516,1,0.10392,0.71569,0.34995
21.144,0.76953,1,0.078431,0.71569,0.34409
21.152,0.76953,1,0.078431,0.72157,0.3392
21.16,0.76953,1,0.084314,0.72157,0.33529
21.168,0.77539,1,0.078431,0.72157,0.3304
21.176,0.76562,1,0.078431,0.72549,0.32551
21.184,0.75977,1,0.078431,0.71569,0.32063
21.192,0.76562,1,0.07451,0.71569,0.31672
21.2,0.75977,1,0.062745,0.72549,0.31183
21.208,0.76562,1,0.07451,0.73137,0.30792
21.216,0.76953,1,0.084314,0.72549,0.30401
21.224,0.71484,1,0.078431,0.72157,0.3001
21.232,0.79883,1,0.14314,0.7549,0.29619
21.24,1.125,1,0.41961,0.7902,0.29326
21.248,1.375,1,0.59608,0.76078,0.29032
21.256,1.1484,1,0.25882,0.6902,0.28739
21.264,0.61523,1,-0.072549,0.51961,0.28641
21.272,0.58398,1,-0.10588,0.6098,0.28348
21.28,0.72461,1,-0.0019608,0.70588,0.28055
21.288,0.75391,1,0.039216,0.73137,0.27664
21.296,0.74023,1,0.052941,0.71569,0.27273
21.304,0.74414,1,0.058824,0.72549,0.26979
21.312,0.75,1,0.068627,0.72549,0.26588
21.32,0.75977,1,0.058824,0.73137,0.26197
21.328,0.75,1,0.052941,0.73529,0.25806
21.336,0.75977,1,0.07451,0.73137,0.25415
21.344,0.75391,1,0.078431,0.73137,0.24927
21.352,0.75391,1,0.062745,0.73137,0.24731
21.36,0.75977,1,0.062745,0.73529,0.24536
21.368,0.75391,1,0.07451,0.73137,0.24438
21.376,0.75977,1,0.078431,0.72549,0.24242
21.384,0.76953,1,0.07451,0.73529,0.24145
21.392,0.76953,1,0.078431,0.73529,0.23949
21.4,0.77539,1,0.078431,0.73137,0.23851
21.408,0.7793,1,0.084314,0.73529,0.23754
21.416,0.78516,1,0.10392,0.73137,0.23558
21.424,0.78516,1,0.098039,0.73529,0.23167
21.432,0.78516,1,0.088235,0.73529,0.22874
21.44,0.78906,1,0.078431,0.74118,0.22678
21.448,0.79492,1,0.098039,0.73529,0.22581
21.456,0.79883,1,0.11373,0.73529,0.22483
21.464,0.81055,1,0.10392,0.74118,0.22483
21.472,0.82031,1,0.11373,0.74118,0.22385
21.48,0.82422,1,0.12353,0.73529,0.22287
21.488,0.82031,1,0.13333,0.74118,0.2219
21.496,0.83008,1,0.12941,0.74118,0.22092
21.504,0.82422,1,0.12353,0.74118,0.21994
21.512,0.83008,1,0.11961,0.74118,0.21799
21.52,0.83008,1,0.12941,0.74118,0.21701
21.528,0.82031,1,0.11373,0.74118,0.21603
21.536,0.81055,1,0.098039,0.74118,0.21408
21.544,0.81055,1,0.10392,0.73137,0.2131
21.552,0.80469,1,0.10392,0.73137,0.2131
21.56,0.79492,1,0.088235,0.72157,0.2131
21.568,0.78906,1,0.088235,0.71569,0.2131
21.576,0.79492,1,0.084314,0.72157,0.21408
21.584,0.78516,1,0.078431,0.71569,0.21408
21.592,0.79492,1,0.098039,0.72157,0.2131
21.6,0.78516,1,0.07451,0.71569,0.21212
21.608,0.78516,1,0.068627,0.72157,0.21114
21.616,0.78516,1,0.084314,0.71569,0.21017
21.624,0.78516,1,0.098039,0.71569,0.20919
21.632,0.7793,1,0.078431,0.71569,0.20919
21.64,0.77539,1,0.078431,0.72157,0.20919
21.648,0.76562,1,0.084314,0.71569,0.20919
21.656,0.75977,1,0.078431,0.71569,0.20919
21.664,0.76562,1,0.084314,0.71569,0.21017
21.672,0.76953,1,0.078431,0.71569,0.21017
21.68,0.76562,1,0.078431,0.71569,0.21017
21.688,0.77539,1,0.078431,0.71569,0.20919
21.696,0.76953,1,0.078431,0.71569,0.20919
21.704,0.76562,1,0.088235,0.71569,0.20919
21.712,0.76953,1,0.084314,0.71569,0.21017
21.72,0.76562,1,0.084314,0.72157,0.21408
21.728,0.76953,1,0.084314,0.72157,0.22092
21.736,0.76953,1,0.094118,0.71569,0.22972
21.744,0.77539,1,0.098039,0.71569,0.24145
21.752,0.7793,1,0.10392,0.71569,0.25415
21.76,0.7793,1,0.10392,0.72157,0.26784
21.768,0.78516,1,0.1098,0.71569,0.28543
21.776,0.7793,1,0.11373,0.71569,0.30596
21.784,0.78516,1,0.1098,0.71569,0.32845
21.792,0.7793,1,0.11373,0.71569,0.35191
21.8,0.7793,1,0.11373,0.71569,0.37732
21.808,0.7793,1,0.11373,0.71569,0.40274
21.816,0.7793,1,0.1098,0.71569,0.42913
21.824,0.77539,1,0.1098,0.71569,0.45357
21.832,0.77539,1,0.11373,0.71569,0.47703
21.84,0.7793,1,0.11373,0.71569,0.49951
21.848,0.7793,1,0.11373,0.71569,0.52199
21.856,0.7793,1,0.11373,0.71569,0.53959
21.864,0.7793,1,0.11373,0.71569,0.55523
21.872,0.7793,1,0.11961,0.71569,0.57185
21.88,0.7793,1,0.11961,0.71569,0.58749
21.888,0.78516,1,0.12353,0.71569,0.60313
21.896,0.7793,1,0.12353,0.7098,0.61681
21.904,0.78516,1,0.14314,0.7,0.62952
21.912,0.78516,1,0.14902,0.7,0.64027
21.92,0.78516,1,0.1549,0.69608,0.65005
21.928,0.78516,1,0.15882,0.69608,0.65885
21.936,0.78906,1,0.15882,0.7,0.66569
21.944,0.79492,1,0.14902,0.70588,0.67058
21.952,0.78906,1,0.13922,0.7098,0.67253
21.96,0.79492,1,0.12941,0.7098,0.67155
21.968,0.79883,1,0.12941,0.71569,0.6696
21.976,0.81055,1,0.12941,0.71569,0.66764
21.984,0.82031,1,0.13922,0.71569,0.66373
21.992,0.81055,1,0.14902,0.71569,0.65787
22,0.79492,1,0.13333,0.71569,0.652
22.008,0.78516,1,0.12353,0.71569,0.64321
22.016,0.78516,1,0.11373,0.71569,0.63539
22.024,0.78516,1,0.11373,0.71569,0.62659
22.032,0.7793,1,0.1098,0.71569,0.61681
22.04,0.77539,1,0.10392,0.71569,0.60704
22.048,0.7793,1,0.10392,0.71569,0.59824
22.056,0.77539,1,0.10392,0.71569,0.58944
22.064,0.77539,1,0.10392,0.71569,0.5826
22.072,0.7793,0.99511,0.1098,0.71569,0.57478
22.08,0.76953,0.98925,0.10392,0.71569,0.56696
22.088,0.73047,0.97556,0.1098,0.71569,0.55914
22.096,0.7207,0.9609,0.13333,0.73137,0.55132
22.104,1.0254,0.94624,0.34902,0.78627,0.5435
22.112,1.3438,0.93157,0.58431,0.7902,0.53666
22.12,1.4199,0.91691,0.36471,0.78039,0.52981
22.128,0.73438,0.90127,-0.027451,0.5549,0.52395
22.136,0.625,0.88563,-0.096078,0.55098,0.51808
22.144,0.71484,0.86999,-0.0019608,0.68039,0.51124
22.152,0.75391,0.85435,0.062745,0.71569,0.50635
22.16,0.75977,0.83871,0.084314,0.71569,0.50049
22.168,0.75391,0.82307,0.088235,0.71569,0.4956
22.176,0.75,0.80841,0.084314,0.71569,0.49071
22.184,0.75391,0.79374,0.088235,0.71569,0.48583
22.192,0.75391,0.77908,0.084314,0.72157,0.48094
22.2,0.75977,0.7654,0.088235,0.72157,0.47703
22.208,0.75391,0.75073,0.094118,0.72157,0.47214
22.216,0.75977,0.73509,0.094118,0.72157,0.46823
22.224,0.75977,0.72043,0.098039,0.72549,0.46432
22.232,0.76562,0.70479,0.094118,0.72157,0.46041
22.24,0.75977,0.68817,0.098039,0.72157,0.45748
22.248,0.76562,0.67155,0.10392,0.72549,0.45357
22.256,0.76562,0.65494,0.098039,0.72157,0.45064
22.264,0.76953,0.63734,0.098039,0.72157,0.4477
22.272,0.77539,0.61877,0.10392,0.72549,0.44477
22.28,0.7793,0.6002,0.10392,0.72549,0.44086
22.288,0.78516,0.58065,0.10392,0.73137,0.43695
22.296,0.78516,0.56109,0.10392,0.73137,0.43304
22.304,0.79492,0.54057,0.11961,0.73529,0.42913
22.312,0.80469,0.52004,0.12353,0.73529,0.42424
22.32,0.81055,0.49853,0.12941,0.73137,0.41935
22.328,0.81445,0.47703,0.12941,0.73529,0.41544
22.336,0.82422,0.45455,0.13922,0.74118,0.41153
22.344,0.83008,0.43109,0.14902,0.74118,0.4086
22.352,0.83398,0.40665,0.1549,0.74118,0.40567
22.36,0.83398,0.38123,0.16471,0.74118,0.40274
22.368,0.83984,0.35679,0.15882,0.74118,0.3998
22.376,0.83398,0.32942,0.1549,0.74118,0.39589
22.384,0.83398,0.30303,0.14902,0.74118,0.39198
22.392,0.83008,0.27468,0.13922,0.74118,0.38807
22.4,0.82422,0.24731,0.13333,0.73529,0.38319
22.408,0.81445,0.22092,0.12353,0.73137,0.3783
22.416,0.81055,0.19453,0.12353,0.72549,0.37439
22.424,0.80469,0.17009,0.11373,0.72549,0.37048
22.432,0.79883,0.14467,0.1098,0.71569,0.36755
22.44,0.79492,0.12121,0.1098,0.72157,0.36559
22.448,0.78906,0.096774,0.1098,0.71569,0.36364
22.456,0.7793,0.073314,0.10392,0.71569,0.36168
22.464,0.78516,0.049853,0.10392,0.71569,0.35973
22.472,0.7793,0.026393,0.10392,0.71569,0.35777
22.48,0.76953,0.0039101,0.098039,0.71569,0.35484
22.488,0.76562,0.001955,0.094118,0.71569,0.35288
22.496,0.75977,0,0.088235,0.7098,0.34995
22.504,0.75977,0,0.098039,0.70588,0.34702
22.512,0.76562,0,0.098039,0.7098,0.34409
22.52,0.75977,0,0.094118,0.7098,0.34115
22.528,0.75977,0,0.094118,0.70588,0.33822
22.536,0.75977,0,0.098039,0.70588,0.33529
22.544,0.75977,0,0.094118,0.7,0.33431
22.552,0.75977,0,0.094118,0.7,0.33333
22.56,0.75977,0,0.094118,0.70588,0.33236
22.568,0.75977,0,0.098039,0.7,0.33236
22.576,0.75977,0,0.10392,0.70588,0.33236
22.584,0.76953,0,0.10392,0.7098,0.33333
22.592,0.75977,0,0.10392,0.7098,0.33529
22.6,0.76562,0,0.10392,0.70588,0.34018
22.608,0.76562,0,0.1098,0.7098,0.348
22.616,0.75977,0,0.10392,0.7098,0.35875
22.624,0.75977,0,0.10392,0.7098,0.37243
22.632,0.76953,0,0.10392,0.7098,0.38807
22.64,0.77539,0,0.10392,0.7098,0.40665
22.648,0.77539,0,0.10392,0.71569,0.4262
22.656,0.76953,0,0.10392,0.7098,0.44379
22.664,0.76953,0,0.1098,0.70588,0.46139
22.672,0.76953,0,0.1098,0.70588,0.47996
22.68,0.76953,0,0.1098,0.70588,0.50049
22.688,0.76562,0,0.10392,0.70588,0.52102
22.696,0.76562,0,0.10392,0.70588,0.54154
22.704,0.76562,0,0.10392,0.7098,0.56207
22.712,0.76953,0,0.10392,0.7098,0.58162
22.72,0.76953,0,0.098039,0.7098,0.6002
22.728,0.76562,0,0.098039,0.7098,0.61877
22.736,0.77539,0,0.1098,0.7098,0.63539
22.744,0.76953,0,0.11961,0.7,0.65103
22.752,0.77539,0,0.12941,0.69608,0.66276
22.76,0.77539,0,0.13333,0.69608,0.67253
22.768,0.76953,0,0.13333,0.7,0.68231
22.776,0.7793,0,0.12941,0.7,0.69208
22.784,0.78516,0,0.12941,0.7098,0.70088
22.792,0.7793,0,0.11373,0.71569,0.70772
22.8,0.78516,0,0.11961,0.7098,0.71359
22.808,0.78906,0,0.10392,0.71569,0.7175
22.816,0.79883,0,0.098039,0.72157,0.71945
22.824,0.81055,0,0.1098,0.72549,0.72043
22.832,0.80469,0,0.11961,0.71569,0.71945
22.84,0.78516,0,0.11373,0.71569,0.7175
22.848,0.76953,0,0.10392,0.71569,0.71359
22.856,0.76562,0,0.084314,0.71569,0.7087
22.864,0.75977,0,0.078431,0.71569,0.70283
22.872,0.75977,0,0.084314,0.71569,0.69599
22.88,0.75977,0,0.084314,0.71569,0.68817
22.888,0.75977,0,0.078431,0.71569,0.67937
22.896,0.75977,0,0.078431,0.71569,0.66862
22.904,0.75977,0,0.078431,0.71569,0.65787
22.912,0.75977,0,0.084314,0.71569,0.64614
22.92,0.75977,0,0.088235,0.71569,0.63636
22.928,0.73047,0,0.094118,0.7098,0.62659
22.936,0.70898,0,0.098039,0.70588,0.61779
22.944,0.90039,0,0.22353,0.77647,0.60802
22.952,1.2852,0,0.48431,0.82549,0.59922
22.96,1.4746,0,0.53922,0.86078,0.5914
22.968,0.98047,0,0.0039216,0.66078,0.5826
22.976,0.64062,0,-0.12745,0.5549,0.5738
22.984,0.68945,0,-0.041176,0.6549,0.57283
22.992,0.73047,0,0.039216,0.70588,0.57576
23,0.73438,0,0.062745,0.71569,0.57283
23.008,0.73438,0,0.07451,0.7098,0.56696
23.016,0.73438,0,0.078431,0.71569,0.56012
23.024,0.73438,0,0.07451,0.71569,0.5523
23.032,0.74023,0,0.078431,0.71569,0.5435
23.04,0.74414,0,0.078431,0.72549,0.53568
23.048,0.74023,0,0.078431,0.72157,0.52884
23.056,0.74414,0,0.078431,0.72157,0.52199
23.064,0.74023,0,0.078431,0.72157,0.51515
23.072,0.75391,0,0.078431,0.72549,0.50733
23.08,0.75,0,0.078431,0.71569,0.50049
23.088,0.75391,0,0.084314,0.71569,0.49365
23.096,0.75977,0,0.098039,0.71569,0.4868
23.104,0.75977,0,0.098039,0.72157,0.48094
23.112,0.75977,0,0.098039,0.72157,0.4741
23.12,0.76953,0,0.10392,0.72157,0.46628
23.128,0.77539,0,0.10392,0.72157,0.45943
23.136,0.78516,0,0.1098,0.72549,0.45259
23.144,0.78516,0,0.11373,0.72549,0.44673
23.152,0.78516,0,0.11373,0.72549,0.44282
23.16,0.80469,0,0.12941,0.73137,0.43793
23.168,0.80469,0,0.12941,0.73137,0.43402
23.176,0.81445,0,0.14314,0.73529,0.42913
23.184,0.82422,0,0.14314,0.74118,0.42326
23.192,0.83008,0,0.14902,0.74118,0.41838
23.2,0.83398,0,0.1549,0.73529,0.41349
23.208,0.83398,0,0.14314,0.74118,0.4086
23.216,0.83008,0,0.13922,0.74118,0.40371
23.224,0.84961,0,0.12941,0.7451,0.39883
23.232,0.84961,0,0.12353,0.75098,0.39394
23.24,0.83984,0,0.12941,0.74118,0.38905
