Time [s], RESP, II, V, AVR, PLETH
0,0.1301,1.5039,1.5039,-0.49805,0.50049
0.008,0.11262,1.5039,1.5039,-0.49805,0.49756
0.016,0.093204,1.5039,1.4529,-0.44336,0.49462
0.024,0.069903,1.5039,1.3529,-0.35938,0.49169
0.032,0.046602,1.4235,1.2529,-0.27344,0.48778
0.04,0.021359,1.3078,1.1569,-0.20508,0.48485
0.048,-0.0038835,1.1863,1.0824,-0.12891,0.48289
0.056,-0.025243,1.0961,1.0275,-0.074219,0.47996
0.064,-0.046602,1.0471,0.99216,-0.044922,0.47801
0.072,-0.066019,1.002,0.96667,-0.013672,0.47507
0.08,-0.083495,0.96667,0.96078,0.0097656,0.47214
0.088,-0.095146,0.94706,0.95098,0.019531,0.46921
0.096,-0.1068,0.93725,0.95098,0.019531,0.46628
0.104,-0.11456,0.92157,0.95098,0.041016,0.46334
0.112,-0.12039,0.90588,0.95098,0.050781,0.46041
0.12,-0.12233,0.92157,0.96078,0.03125,0.45748
0.128,-0.12233,0.91176,0.94706,0.041016,0.45455
0.136,-0.11845,0.93137,0.95686,0.03125,0.45161
0.144,-0.11262,0.92549,0.95098,0.035156,0.44966
0.152,-0.10097,0.91569,0.95686,0.044922,0.44868
0.16,-0.091262,0.92549,0.96078,0.035156,0.44575
0.168,-0.073786,0.92157,0.95686,0.044922,0.43206
0.176,-0.056311,0.93725,0.95098,0.03125,0.41251
0.184,-0.03301,0.92549,0.95098,0.041016,0.40078
0.192,-0.0097087,0.92157,0.95098,0.03125,0.39198
0.2,0.021359,0.92549,0.94706,0.041016,0.38612
0.208,0.050485,0.93725,0.94706,0.019531,0.38025
0.216,0.085437,0.92549,0.95098,0.03125,0.37537
0.224,0.12233,0.92549,0.94118,0.03125,0.37146
0.232,0.16311,0.92157,0.94118,0.035156,0.36755
0.24,0.20583,0.92549,0.94706,0.019531,0.36364
0.248,0.25049,0.92157,0.93725,0.03125,0.35973
0.256,0.29515,0.92549,0.93725,0.025391,0.35777
0.264,0.34175,0.92549,0.94118,0.025391,0.35484
0.272,0.39029,0.92549,0.93137,0.019531,0.35191
0.28,0.43689,0.92157,0.93137,0.03125,0.35093
0.288,0.48544,0.93137,0.94118,0.019531,0.34995
0.296,0.53398,0.93725,0.95686,0.025391,0.34995
0.304,0.58252,0.96078,0.98627,0.015625,0.35093
0.312,0.62913,0.97647,1.002,0.0097656,0.35191
0.32,0.67573,0.95686,0.99608,0.025391,0.35484
0.328,0.71845,0.96667,0.97059,0.015625,0.35875
0.336,0.76311,0.95098,0.93137,0.019531,0.36364
0.344,0.80388,0.95686,0.90588,0,0.3695
0.352,0.8466,0.95098,0.90588,0.0058594,0.37439
0.36,0.88544,0.93137,0.90588,0.015625,0.38025
0.368,0.92427,0.91569,0.90588,0.025391,0.3871
0.376,0.96311,0.90196,0.91176,0.044922,0.39492
0.384,1,0.89608,0.90588,0.044922,0.40274
0.392,1.035,0.90196,0.91176,0.041016,0.41153
0.4,1.0699,0.8902,0.91176,0.044922,0.41935
0.408,1.101,0.90196,0.91176,0.041016,0.42815
0.416,1.134,0.91569,0.90588,0.025391,0.43597
0.424,1.1631,0.98627,0.88627,-0.035156,0.44477
0.432,1.1903,1.0373,0.72549,-0.064453,0.45259
0.44,1.2155,0.38431,0.26863,0.38086,0.46139
0.448,1.2388,-0.50196,-0.37843,0.95508,0.47019
0.456,1.2602,-0.50196,-0.50196,1.4883,0.47801
0.464,1.2816,-0.50196,-0.50196,1.5,0.48387
0.472,1.299,-0.50196,-0.50196,1.4883,0.48876
0.48,1.3165,-0.50196,-0.36667,1.2051,0.49365
0.488,1.332,-0.50196,0.052941,0.91406,0.49756
0.496,1.3476,-0.28235,0.37059,0.67578,0.50049
0.504,1.3592,0.11373,0.66078,0.42969,0.50244
0.512,1.3728,0.52549,0.91176,0.17969,0.50147
0.52,1.3825,0.82549,1.1118,-0.0039062,0.50049
0.528,1.3942,1.0059,1.2275,-0.11914,0.49951
0.536,1.4039,1.1961,1.3569,-0.17969,0.49756
0.544,1.4136,1.3216,1.4176,-0.22461,0.49462
0.552,1.4233,1.3529,1.4235,-0.24023,0.49169
0.56,1.433,1.3725,1.4235,-0.25,0.48974
0.568,1.4427,1.3784,1.4235,-0.25,0.48778
0.576,1.4505,1.3784,1.4118,-0.25977,0.48485
0.584,1.4602,1.3882,1.402,-0.25391,0.48289
0.592,1.4699,1.3922,1.398,-0.25977,0.47996
0.6,1.4757,1.3922,1.398,-0.25977,0.47801
0.608,1.4835,1.398,1.3922,-0.26953,0.47507
0.616,1.4893,1.4078,1.3922,-0.27344,0.47312
0.624,1.4932,1.4235,1.3922,-0.28516,0.47019
0.632,1.4932,1.4333,1.398,-0.29492,0.46823
0.64,1.4932,1.4569,1.398,-0.30859,0.46725
0.648,1.4932,1.4882,1.398,-0.33398,0.4653
0.656,1.4932,1.5039,1.4118,-0.35938,0.46334
0.664,1.4932,1.5039,1.4333,-0.38867,0.46237
0.672,1.4932,1.5039,1.4529,-0.44336,0.46139
0.68,1.4932,1.5039,1.4882,-0.49805,0.46041
0.688,1.4932,1.5039,1.5039,-0.49805,0.45846
0.696,1.4893,1.5039,1.5039,-0.49805,0.4565
0.704,1.4854,1.5039,1.5039,-0.49805,0.45357
0.712,1.4699,1.5039,1.5039,-0.49805,0.44966
0.72,1.4563,1.5039,1.5039,-0.49805,0.44673
0.728,1.435,1.5039,1.5039,-0.49805,0.44379
0.736,1.4155,1.5039,1.4882,-0.49805,0.43988
0.744,1.3883,1.5039,1.3882,-0.44922,0.43793
0.752,1.3612,1.5039,1.2882,-0.35352,0.435
0.76,1.3282,1.3725,1.1824,-0.27344,0.43304
0.768,1.2971,1.2569,1.0961,-0.19922,0.43304
0.776,1.2641,1.1667,1.0314,-0.14453,0.43206
0.784,1.2291,1.0922,0.99608,-0.09375,0.43206
0.792,1.1922,1.0373,0.96667,-0.064453,0.43206
0.8,1.1553,1.002,0.95098,-0.039062,0.43109
0.808,1.1146,0.98235,0.94706,-0.029297,0.43011
0.816,1.0757,0.96078,0.94118,-0.013672,0.42913
0.824,1.035,0.95686,0.93725,-0.013672,0.42815
0.832,0.99417,0.95098,0.93725,0,0.42815
0.84,0.9534,0.95098,0.93725,0,0.42815
0.848,0.91262,0.95098,0.93725,0,0.42815
0.856,0.87184,0.95098,0.93725,0,0.42815
0.864,0.83301,0.95098,0.94118,0,0.42815
0.872,0.79417,0.95098,0.94706,0,0.42815
0.88,0.75534,0.95098,0.94118,0,0.42815
0.888,0.72039,0.96078,0.94118,-0.0097656,0.42815
0.896,0.6835,0.95686,0.94118,-0.0039062,0.4262
0.904,0.65243,0.96078,0.94706,-0.0097656,0.42522
0.912,0.61942,0.96078,0.94706,-0.0039062,0.42424
0.92,0.59223,0.96078,0.94706,-0.0097656,0.42326
0.928,0.56699,0.96078,0.94118,-0.0039062,0.42131
0.936,0.54369,0.95686,0.94706,-0.0097656,0.42033
0.944,0.52039,0.96078,0.93725,-0.0039062,0.41935
0.952,0.50291,0.95686,0.94118,-0.0039062,0.4174
0.96,0.48544,0.95686,0.93725,-0.0039062,0.41642
0.968,0.4699,0.95686,0.94118,0,0.41544
0.976,0.45631,0.95686,0.93725,-0.0039062,0.41544
0.984,0.44466,0.95098,0.94118,0,0.41544
0.992,0.43301,0.95098,0.93137,-0.0039062,0.41544
1,0.42136,0.95098,0.93725,-0.0039062,0.41544
1.008,0.41165,0.94706,0.93725,0,0.41544
1.016,0.40194,0.94706,0.94118,-0.0039062,0.41544
1.024,0.39223,0.95098,0.93725,-0.0039062,0.41642
1.032,0.38252,0.95098,0.94118,-0.0039062,0.41838
1.04,0.37282,0.96078,0.94706,-0.0039062,0.42229
1.048,0.36311,0.97059,0.97059,-0.0097656,0.4262
1.056,0.3534,0.99216,0.99608,-0.013672,0.43206
1.064,0.34369,1.002,1.0059,-0.019531,0.43988
1.072,0.33398,0.99608,1.0118,-0.0097656,0.44673
1.08,0.32621,0.98627,0.98235,-0.019531,0.45552
1.088,0.3165,0.97647,0.93725,-0.013672,0.46237
1.096,0.30874,0.97647,0.91176,-0.025391,0.46921
1.104,0.29903,0.96667,0.92157,-0.013672,0.47605
1.112,0.29126,0.94706,0.92157,0,0.48485
1.12,0.2835,0.92549,0.92157,0.019531,0.49462
1.128,0.27573,0.90588,0.92157,0.03125,0.5044
1.136,0.2699,0.90588,0.92549,0.03125,0.51417
1.144,0.26408,0.90588,0.92549,0.03125,0.52493
1.152,0.25825,0.90588,0.92549,0.03125,0.53568
1.16,0.25243,0.90588,0.92549,0.03125,0.54643
1.168,0.24854,0.93137,0.92549,0.0058594,0.55523
1.176,0.24272,1.0118,0.8902,-0.054688,0.565
1.184,0.23883,1.0314,0.61569,0.041016,0.5738
1.192,0.23301,0.13922,0.04902,0.50977,0.58065
1.2,0.22913,-0.50196,-0.50196,1.0391,0.58651
1.208,0.2233,-0.50196,-0.50196,1.4746,0.59238
1.216,0.21942,-0.50196,-0.50196,1.5,0.59726
1.224,0.21359,-0.50196,-0.50196,1.3086,0.60117
1.232,0.20777,-0.50196,-0.28824,1.0391,0.60313
1.24,0.20388,-0.49804,0.068627,0.7793,0.60411
1.248,0.19806,-0.16667,0.4098,0.57422,0.60411
1.256,0.19223,0.22941,0.7098,0.33008,0.60313
1.264,0.18641,0.61961,0.97647,0.099609,0.60117
1.272,0.18252,0.86078,1.151,-0.054688,0.59922
1.28,0.1767,1.0412,1.2725,-0.13867,0.59531
1.288,0.17087,1.2275,1.4235,-0.16992,0.59238
1.296,0.16699,1.302,1.4627,-0.19336,0.58847
1.304,0.16311,1.3275,1.4686,-0.20898,0.58358
1.312,0.15922,1.3373,1.4627,-0.21484,0.57967
1.32,0.15728,1.3431,1.4529,-0.20898,0.57478
1.328,0.15534,1.3529,1.4471,-0.21484,0.56891
1.336,0.15534,1.3529,1.4471,-0.21875,0.56207
1.344,0.1534,1.3569,1.4373,-0.22461,0.55523
1.352,0.15534,1.3627,1.4333,-0.22852,0.54839
1.36,0.15534,1.3667,1.4275,-0.23438,0.54154
1.368,0.1534,1.3725,1.4235,-0.23438,0.5347
1.376,0.1534,1.3824,1.4235,-0.25,0.52884
1.384,0.15146,1.398,1.4333,-0.25977,0.52395
1.392,0.14951,1.4275,1.4373,-0.28516,0.51808
1.4,0.14757,1.4569,1.4471,-0.29883,0.5132
1.408,0.14563,1.502,1.4569,-0.33398,0.50831
1.416,0.14369,1.5039,1.4824,-0.36914,0.50342
1.424,0.14175,1.5039,1.5039,-0.41992,0.49853
1.432,0.13592,1.5039,1.5039,-0.46484,0.49365
1.44,0.13204,1.5039,1.5039,-0.49805,0.48876
1.448,0.12621,1.5039,1.5039,-0.49805,0.48387
1.456,0.12039,1.5039,1.5039,-0.49805,0.47996
1.464,0.10874,1.5039,1.5039,-0.49805,0.47507
1.472,0.099029,1.5039,1.5039,-0.49805,0.47116
1.48,0.083495,1.5039,1.5039,-0.49805,0.46725
1.488,0.067961,1.5039,1.502,-0.48828,0.46334
1.496,0.048544,1.5039,1.398,-0.4082,0.45846
1.504,0.029126,1.4686,1.2824,-0.31445,0.45455
1.512,0.007767,1.3373,1.1824,-0.24023,0.45064
1.52,-0.01165,1.2275,1.0961,-0.17383,0.4477
1.528,-0.03301,1.1412,1.0314,-0.125,0.44379
1.536,-0.052427,1.0765,0.99216,-0.083984,0.44086
1.544,-0.071845,1.0275,0.95098,-0.054688,0.43695
1.552,-0.091262,0.99608,0.94118,-0.035156,0.43304
1.56,-0.11068,0.97059,0.93137,-0.019531,0.42913
1.568,-0.1301,0.95686,0.93725,-0.0039062,0.42522
1.576,-0.14757,0.95098,0.93725,0,0.42131
1.584,-0.16505,0.95686,0.94118,0,0.4174
1.592,-0.18252,0.95686,0.93725,0,0.41544
1.6,-0.19806,0.95098,0.94706,0,0.41251
1.608,-0.21359,0.95098,0.94118,0,0.41056
1.616,-0.22718,0.95098,0.94706,0,0.4086
1.624,-0.24078,0.95098,0.95098,0,0.40762
1.632,-0.25243,0.95098,0.95686,0,0.40567
1.64,-0.26019,0.95098,0.96667,0,0.40371
1.648,-0.2699,0.95686,0.96667,0,0.40176
1.656,-0.27573,0.96078,0.96078,0,0.3998
1.664,-0.28155,0.96078,0.96078,-0.0039062,0.39687
1.672,-0.2835,0.96078,0.95686,-0.0039062,0.39394
1.68,-0.28544,0.96078,0.95098,-0.0039062,0.39101
1.688,-0.2835,0.96078,0.95686,0,0.38807
1.696,-0.28155,0.95686,0.95686,-0.0039062,0.38514
1.704,-0.27573,0.95098,0.95098,0,0.38221
1.712,-0.2699,0.95686,0.95098,0,0.37928
1.72,-0.26214,0.95686,0.95098,-0.0039062,0.37732
1.728,-0.25437,0.95686,0.95098,-0.0097656,0.37634
1.736,-0.24466,0.95098,0.94706,-0.0097656,0.37439
1.744,-0.23301,0.96078,0.94706,-0.013672,0.37341
1.752,-0.2233,0.95686,0.94706,-0.0097656,0.37439
1.76,-0.21359,0.95686,0.95098,-0.0097656,0.37537
1.768,-0.20388,0.96078,0.95098,-0.013672,0.37732
1.776,-0.19417,0.97059,0.95686,-0.013672,0.38025
1.784,-0.18447,0.97647,0.98235,-0.0097656,0.38514
1.792,-0.17476,1.002,1.0059,-0.025391,0.39003
1.8,-0.16699,1.0059,1.0216,-0.025391,0.39687
1.808,-0.15728,1.002,1.002,-0.019531,0.40371
1.816,-0.14951,0.99216,0.98235,-0.025391,0.41153
1.824,-0.13981,0.97647,0.93725,-0.019531,0.41838
1.832,-0.13204,0.98235,0.92157,-0.025391,0.42522
1.84,-0.12233,0.97059,0.92549,-0.013672,0.43304
1.848,-0.11456,0.94706,0.91569,0.0058594,0.44282
1.856,-0.10485,0.92549,0.91569,0.015625,0.45357
1.864,-0.097087,0.91176,0.92157,0.025391,0.4653
1.872,-0.08932,0.91176,0.92157,0.03125,0.47605
1.88,-0.081553,0.91176,0.91569,0.025391,0.4868
1.888,-0.071845,0.91176,0.92157,0.025391,0.49756
1.896,-0.064078,0.91569,0.91569,0.025391,0.50929
1.904,-0.056311,0.94706,0.90588,0,0.52102
1.912,-0.048544,1.0314,0.87059,-0.064453,0.53177
1.92,-0.042718,0.83529,0.5451,0.064453,0.54252
1.928,-0.034951,0.078431,-0.027451,0.55078,0.55034
1.936,-0.029126,-0.50196,-0.50196,1.084,0.55718
1.944,-0.023301,-0.50196,-0.50196,1.5,0.56403
1.952,-0.017476,-0.50196,-0.50196,1.5,0.57087
1.96,-0.013592,-0.50196,-0.50196,1.2734,0.57674
1.968,-0.007767,-0.50196,-0.25686,1.0098,0.58065
1.976,-0.0038835,-0.44706,0.094118,0.74414,0.58358
1.984,0,-0.11765,0.43529,0.53906,0.58651
1.992,0.0038835,0.27451,0.74118,0.30469,0.58749
2,0.007767,0.66078,1.002,0.076172,0.58749
2.008,0.01165,0.88627,1.1667,-0.074219,0.58553
2.016,0.017476,1.0569,1.2922,-0.14844,0.5826
2.024,0.021359,1.2471,1.4275,-0.18359,0.57967
2.032,0.025243,1.3118,1.4686,-0.20508,0.57576
2.04,0.031068,1.3275,1.4686,-0.21484,0.57087
2.048,0.036893,1.3373,1.4686,-0.21484,0.56696
2.056,0.042718,1.3471,1.4627,-0.21875,0.56305
2.064,0.048544,1.3529,1.4529,-0.22461,0.55914
2.072,0.054369,1.3529,1.4431,-0.22461,0.55425
2.08,0.062136,1.3529,1.4373,-0.21875,0.55034
2.088,0.067961,1.3627,1.4373,-0.22852,0.54448
2.096,0.073786,1.3667,1.4373,-0.23438,0.53861
2.104,0.07767,1.3824,1.4275,-0.24414,0.53372
2.112,0.083495,1.3922,1.4275,-0.25,0.52884
2.12,0.08932,1.4078,1.4373,-0.26367,0.52493
2.128,0.095146,1.4275,1.4431,-0.2793,0.52102
2.136,0.099029,1.4627,1.4471,-0.30469,0.51711
2.144,0.10485,1.5039,1.4627,-0.33398,0.5132
2.152,0.10874,1.5039,1.4784,-0.375,0.50831
2.16,0.11456,1.5039,1.5039,-0.42383,0.50342
2.168,0.1165,1.5039,1.5039,-0.47461,0.49756
2.176,0.11845,1.5039,1.5039,-0.49805,0.49071
2.184,0.11845,1.5039,1.5039,-0.49805,0.48583
2.192,0.11845,1.5039,1.5039,-0.49805,0.48094
2.2,0.11262,1.5039,1.5039,-0.49805,0.47605
2.208,0.1068,1.5039,1.5039,-0.49805,0.47116
2.216,0.097087,1.5039,1.5039,-0.49805,0.46725
2.224,0.085437,1.5039,1.4824,-0.47852,0.46334
2.232,0.069903,1.5039,1.3824,-0.38867,0.45943
2.24,0.056311,1.4471,1.2667,-0.30469,0.45552
2.248,0.036893,1.3176,1.1667,-0.22461,0.45943
2.256,0.019417,1.2118,1.0824,-0.16016,0.46628
2.264,0,1.1216,1.0275,-0.10938,0.46823
2.272,-0.019417,1.0569,0.98235,-0.070312,0.46725
2.28,-0.038835,1.0216,0.95686,-0.048828,0.4653
2.288,-0.056311,0.98235,0.94706,-0.025391,0.46237
2.296,-0.075728,0.96667,0.94118,-0.013672,0.45943
2.304,-0.093204,0.95686,0.93725,-0.0039062,0.45552
2.312,-0.11068,0.95098,0.94706,0.0058594,0.45259
2.32,-0.12816,0.95098,0.94118,0,0.44966
2.328,-0.14369,0.95098,0.93725,0,0.44673
2.336,-0.15922,0.94118,0.94706,0.015625,0.44477
2.344,-0.17476,0.95098,0.94118,0.0058594,0.44282
2.352,-0.18835,0.94706,0.94706,0.0097656,0.44184
2.36,-0.2,0.94118,0.94118,0.015625,0.44086
2.368,-0.21165,0.95098,0.95098,0.0058594,0.43891
2.376,-0.21942,0.94118,0.94706,0.019531,0.43695
2.384,-0.22718,0.94706,0.95098,0.015625,0.43597
2.392,-0.23301,0.95098,0.95098,0.0058594,0.43402
2.4,-0.23689,0.95098,0.95098,0.015625,0.43206
2.408,-0.23883,0.93725,0.94118,0.025391,0.43011
2.416,-0.23883,0.94706,0.95098,0.015625,0.42913
2.424,-0.23883,0.92549,0.94706,0.025391,0.42717
2.432,-0.23883,0.93725,0.95098,0.019531,0.42522
2.44,-0.23883,0.92549,0.94706,0.03125,0.42326
2.448,-0.23689,0.94118,0.95098,0.019531,0.42131
2.456,-0.23495,0.92157,0.94118,0.015625,0.42033
2.464,-0.23107,0.91569,0.93725,0.041016,0.41935
2.472,-0.22524,0.92157,0.94706,0.03125,0.4174
2.48,-0.21748,0.93137,0.94706,0.025391,0.41642
2.488,-0.20971,0.90588,0.93725,0.044922,0.41544
2.496,-0.20194,0.93725,0.94706,0.019531,0.41544
2.504,-0.19029,0.92157,0.95098,0.035156,0.41642
2.512,-0.17864,0.94118,0.96078,0.041016,0.41838
2.52,-0.16505,0.95098,0.98235,0.019531,0.42033
2.528,-0.15146,0.95686,1.002,0.025391,0.42424
2.536,-0.13398,0.95098,1.0157,0.041016,0.42913
2.544,-0.11456,0.97647,1.002,0.015625,0.435
2.552,-0.093204,0.93725,0.96078,0.035156,0.44086
2.56,-0.071845,0.93137,0.91176,0.019531,0.44673
2.568,-0.046602,0.95098,0.91176,0.0058594,0.45259
2.576,-0.021359,0.94706,0.91569,0.015625,0.45846
2.584,0.007767,0.90588,0.91176,0.044922,0.4653
2.592,0.038835,0.90196,0.91569,0.044922,0.47312
2.6,0.071845,0.88627,0.92549,0.060547,0.48192
2.608,0.1068,0.89608,0.92157,0.044922,0.49071
2.616,0.14369,0.87647,0.92157,0.064453,0.49951
2.624,0.18252,0.90196,0.92549,0.044922,0.50733
2.632,0.2233,0.89608,0.91569,0.050781,0.51417
2.64,0.26408,0.93725,0.90588,0.0097656,0.52004
2.648,0.3068,1.0412,0.82157,-0.044922,0.5259
2.656,0.34951,0.6902,0.46471,0.20508,0.53177
2.664,0.39223,-0.18235,-0.027451,0.76953,0.53568
2.672,0.43689,-0.50196,-0.50196,1.3633,0.54057
2.68,0.48155,-0.50196,-0.50196,1.5,0.54448
2.688,0.52427,-0.50196,-0.50196,1.5,0.54936
2.696,0.56893,-0.50196,-0.50196,1.375,0.5523
2.704,0.61165,-0.50196,-0.011765,1.0586,0.55425
2.712,0.65437,-0.42745,0.29412,0.78516,0.55523
2.72,0.69709,-0.021569,0.58039,0.54492,0.55523
2.728,0.73786,0.37451,0.82549,0.2793,0.55425
2.736,0.78058,0.73137,1.0412,0.054688,0.5523
2.744,0.81942,0.93137,1.1569,-0.083984,0.55132
2.752,0.86019,1.1118,1.2765,-0.1543,0.54839
2.76,0.90097,1.2922,1.3784,-0.20898,0.54643
2.768,0.93981,1.3431,1.3922,-0.22461,0.54252
2.776,0.97864,1.3569,1.3922,-0.23438,0.53861
2.784,1.0175,1.3667,1.3882,-0.24023,0.5347
2.792,1.0544,1.3784,1.3824,-0.25,0.52981
2.8,1.0913,1.3784,1.3824,-0.25,0.52395
2.808,1.1262,1.3784,1.3725,-0.24414,0.51906
2.816,1.1612,1.3784,1.3667,-0.25391,0.51417
2.824,1.1942,1.3784,1.3569,-0.25,0.50831
2.832,1.2252,1.3922,1.3627,-0.25977,0.50244
2.84,1.2544,1.398,1.3569,-0.26953,0.49658
2.848,1.2816,1.4176,1.3569,-0.28516,0.49071
2.856,1.3068,1.4431,1.3569,-0.29883,0.48387
2.864,1.3301,1.4686,1.3569,-0.31836,0.47898
2.872,1.3515,1.5039,1.3667,-0.34961,0.47312
2.88,1.3709,1.5039,1.3784,-0.38477,0.46921
2.888,1.3864,1.5039,1.3922,-0.42969,0.46432
2.896,1.4019,1.5039,1.4176,-0.47852,0.45943
2.904,1.4097,1.5039,1.4471,-0.49805,0.45455
2.912,1.4175,1.5039,1.4784,-0.49805,0.44966
2.92,1.4194,1.5039,1.5039,-0.49805,0.44477
2.928,1.4194,1.5039,1.5039,-0.49805,0.44086
2.936,1.4136,1.5039,1.5039,-0.49805,0.43695
2.944,1.4078,1.5039,1.5039,-0.49805,0.43304
2.952,1.3961,1.5039,1.4824,-0.49805,0.42815
2.96,1.3845,1.5039,1.4078,-0.49805,0.42424
2.968,1.3709,1.5039,1.3078,-0.4043,0.42033
2.976,1.3573,1.4373,1.202,-0.30859,0.41642
2.984,1.3437,1.3118,1.1216,-0.22852,0.41349
2.992,1.3282,1.2078,1.0471,-0.16992,0.41056
3,1.3126,1.1314,1.002,-0.125,0.4086
3.008,1.2971,1.0667,0.97059,-0.083984,0.40567
3.016,1.2835,1.0275,0.95686,-0.054688,0.40371
3.024,1.268,1.002,0.95098,-0.044922,0.40176
3.032,1.2524,0.97647,0.94706,-0.025391,0.3998
3.04,1.2388,0.97647,0.94118,-0.019531,0.39883
3.048,1.2252,0.96667,0.93725,-0.013672,0.39687
3.056,1.2117,0.96667,0.95098,-0.019531,0.39492
3.064,1.1981,0.96667,0.95098,-0.013672,0.39394
3.072,1.1845,0.97059,0.94706,-0.019531,0.39296
3.08,1.1709,0.96667,0.95098,-0.013672,0.39296
3.088,1.1573,0.97059,0.95098,-0.019531,0.39198
3.096,1.1456,0.97059,0.95098,-0.019531,0.39198
3.104,1.134,0.97647,0.95098,-0.025391,0.39198
3.112,1.1223,0.97647,0.95098,-0.025391,0.39101
3.12,1.1107,0.97647,0.95686,-0.019531,0.39101
3.128,1.099,0.97647,0.95098,-0.019531,0.39101
3.136,1.0874,0.97647,0.95098,-0.025391,0.39101
3.144,1.0757,0.97059,0.94706,-0.019531,0.39003
3.152,1.0641,0.97059,0.95098,-0.019531,0.38807
3.16,1.0544,0.97059,0.94118,-0.019531,0.3871
3.168,1.0447,0.96667,0.94706,-0.019531,0.3871
3.176,1.035,0.96078,0.94118,-0.019531,0.3871
3.184,1.0252,0.95686,0.94706,-0.013672,0.3871
3.192,1.0175,0.96078,0.94118,-0.013672,0.3871
3.2,1.0078,0.96078,0.94706,-0.0097656,0.38807
3.208,1,0.96078,0.94118,-0.013672,0.39003
3.216,0.99029,0.95686,0.94706,-0.0039062,0.39101
3.224,0.98058,0.95686,0.94118,-0.0039062,0.39394
3.232,0.96893,0.95098,0.95098,0,0.39687
3.24,0.95728,0.95686,0.94706,-0.0039062,0.40176
3.248,0.94369,0.95686,0.95098,-0.0097656,0.40567
3.256,0.9301,0.95686,0.95098,-0.0039062,0.41153
3.264,0.9165,0.96667,0.96078,-0.0097656,0.41642
3.272,0.90097,0.97647,0.96667,-0.013672,0.42326
3.28,0.88738,0.99216,0.99608,-0.013672,0.43206
3.288,0.87184,1.0059,1.0118,-0.019531,0.44086
3.296,0.85825,1.002,1.0157,-0.013672,0.44966
3.304,0.84466,1.002,0.99608,-0.019531,0.45846
3.312,0.83107,0.98627,0.95686,-0.019531,0.46921
3.32,0.81942,0.98235,0.92157,-0.025391,0.48094
3.328,0.80777,0.98627,0.92157,-0.029297,0.49267
3.336,0.79612,0.95686,0.91569,-0.0039062,0.5044
3.344,0.78447,0.93725,0.91569,0,0.51613
3.352,0.77282,0.92549,0.92549,0.015625,0.52786
3.36,0.76117,0.91569,0.92157,0.019531,0.54057
3.368,0.74951,0.91176,0.92549,0.025391,0.55132
3.376,0.73786,0.91176,0.92549,0.019531,0.56207
3.384,0.72621,0.91569,0.93725,0.019531,0.57185
3.392,0.71456,0.93137,0.92157,0.0097656,0.58065
3.4,0.70291,0.99608,0.91176,-0.039062,0.58847
3.408,0.69126,1.0373,0.72549,-0.070312,0.59433
3.416,0.67767,0.3549,0.22353,0.37109,0.60117
3.424,0.66602,-0.49216,-0.50196,0.89453,0.60704
3.432,0.65243,-0.50196,-0.50196,1.3887,0.61193
3.44,0.64078,-0.50196,-0.50196,1.5,0.61584
3.448,0.62718,-0.50196,-0.50196,1.3848,0.61681
3.456,0.61359,-0.50196,-0.41765,1.1094,0.61681
3.464,0.6,-0.50196,0.0039216,0.84375,0.61584
3.472,0.58641,-0.26275,0.32353,0.62891,0.6129
3.48,0.57087,0.12353,0.64118,0.40039,0.60997
3.488,0.55728,0.52549,0.91176,0.15039,0.60704
