Time [s], RESP, II, V, AVR, PLETH
0,0.2839,0.1999,0.59531,0.54985,1.306
0.008,0.27339,0.26002,0.58016,0.53519,1.2903
0.016,0.26313,0.31476,0.54008,0.5,1.2747
0.024,0.25214,0.32991,0.5,0.47019,1.259
0.032,0.24139,0.3651,0.45992,0.45992,1.2444
0.04,0.23137,0.35973,0.45503,0.47996,1.2317
0.048,0.2216,0.34995,0.45992,0.52004,1.2209
0.056,0.21256,0.3001,0.45503,0.56012,1.2141
0.064,0.20352,0.26002,0.47996,0.58016,1.2111
0.072,0.19546,0.24976,0.47996,0.55523,1.2141
0.08,0.18739,0.28495,0.49511,0.49022,1.2248
0.088,0.18006,0.30987,0.51515,0.46481,1.2434
0.096,0.17273,0.32502,0.52493,0.43988,1.2747
0.104,0.16687,0.35484,0.47507,0.41007,1.3196
0.112,0.16125,0.37977,0.45015,0.38514,1.3793
0.12,0.15661,0.38514,0.42473,0.37488,1.4526
0.128,0.15221,0.37977,0.41496,0.39003,1.5367
0.136,0.14903,0.37977,0.40469,0.41007,1.6276
0.144,0.1461,0.37977,0.3998,0.41007,1.7214
0.152,0.14439,0.38514,0.39492,0.41496,1.8162
0.16,0.14293,0.41496,0.39492,0.41496,1.9091
0.168,0.14366,0.3998,0.38514,0.43988,1.9971
0.176,0.14439,0.37488,0.41496,0.48485,2.0704
0.184,0.14684,0.30499,0.52004,0.51515,2.132
0.192,0.14928,0.28006,0.66031,0.45992,2.1965
0.2,0.15197,0.57527,0.76002,0.20968,2.2581
0.208,0.1549,0.68524,0.27468,0.064516,2.3167
0.216,0.15783,0.60508,-0.50049,0.26002,2.3695
0.224,0.16076,0.69013,-0.50049,0.54497,2.4184
0.232,0.16394,0.46481,-0.46579,0.69501,2.4614
0.24,0.16711,0.35973,0.19501,0.71017,2.4985
0.248,0.17005,0.38514,0.54497,0.6002,2.5298
0.256,0.17322,0.42473,0.62023,0.52981,2.5543
0.264,0.17567,0.435,0.62512,0.50978,2.5718
0.272,0.17835,0.38514,0.60508,0.53519,2.5797
0.28,0.18031,0.36999,0.59531,0.52493,2.5787
0.288,0.18251,0.37977,0.58016,0.50489,2.5728
0.296,0.18275,0.37977,0.58016,0.49511,2.5591
0.304,0.183,0.37977,0.58504,0.49022,2.5386
0.312,0.18153,0.37977,0.58504,0.47996,2.5103
0.32,0.18031,0.39003,0.58993,0.45992,2.5523
0.328,0.17738,0.39492,0.58993,0.45503,2.6246
0.336,0.17469,0.39003,0.56989,0.435,2.6285
0.344,0.17054,0.42473,0.58016,0.37488,2.5963
0.352,0.16663,0.47019,0.565,0.3001,2.5484
0.36,0.16223,0.5,0.54497,0.25464,2.4936
0.368,0.15807,0.54008,0.50978,0.22483,2.4379
0.376,0.15343,0.58016,0.47996,0.21457,2.3891
0.384,0.14879,0.60997,0.45503,0.20968,2.3441
0.392,0.14342,0.64516,0.45503,0.21994,2.2991
0.4,0.13828,0.68035,0.44477,0.21994,2.2551
0.408,0.13267,0.70039,0.42473,0.22483,2.2121
0.416,0.12729,0.71017,0.41984,0.23998,2.1691
0.424,0.1224,0.72532,0.43011,0.25464,2.1261
0.432,0.11776,0.71994,0.45015,0.28006,2.0821
0.44,0.11336,0.71505,0.47507,0.29472,2.0381
0.448,0.10897,0.71017,0.47996,0.29472,1.9922
0.456,0.10408,0.70039,0.46481,0.28495,1.9472
0.464,0.099438,0.6652,0.45503,0.27468,1.9042
0.472,0.094063,0.6002,0.45503,0.30987,1.868
0.48,0.088932,0.53519,0.45015,0.3348,1.8358
0.488,0.082824,0.49022,0.47019,0.30499,1.8006
0.496,0.076961,0.44477,0.47996,0.27468,1.7644
0.504,0.070364,0.42473,0.47507,0.27468,1.7273
0.512,0.064012,0.39492,0.45503,0.28495,1.6901
0.52,0.058637,0.34506,0.435,0.31476,1.651
0.528,0.053262,0.30987,0.42473,0.34506,1.6109
0.536,0.04862,0.28006,0.41984,0.37488,1.5709
0.544,0.043978,0.26002,0.43011,0.39003,1.5318
0.552,0.038847,0.24976,0.41496,0.40469,1.4936
0.56,0.033716,0.23998,0.40469,0.41496,1.4565
0.568,0.028097,0.22972,0.41984,0.435,1.4223
0.576,0.022477,0.22483,0.43011,0.45503,1.3969
0.584,0.017835,0.22483,0.42473,0.45015,1.3754
0.592,0.013193,0.22483,0.43011,0.45015,1.3509
0.6,0.0095285,0.22483,0.435,0.45503,1.3245
0.608,0.0058637,0.22483,0.43988,0.45015,1.2981
0.616,0.0029318,0.21994,0.44477,0.43988,1.2717
0.624,0.00024432,0.21457,0.435,0.43988,1.2463
0.632,-0.00024432,0.20968,0.45015,0.45992,1.2209
0.64,-0.00048864,0.21457,0.45503,0.46481,1.1955
0.648,-0.00048864,0.20968,0.46481,0.47507,1.1672
0.656,-0.00048864,0.19501,0.45992,0.49022,1.1378
0.664,-0.00048864,0.22972,0.49511,0.45992,1.1065
0.672,-0.00048864,0.26002,0.51515,0.41007,1.0811
0.68,0.0017102,0.30987,0.52493,0.37977,1.0587
0.688,0.0039091,0.33969,0.47019,0.3651,1.0313
0.696,0.0073296,0.31965,0.45015,0.39492,1.0039
0.704,0.01075,0.28983,0.44477,0.45015,0.98143
0.712,0.016125,0.28495,0.45015,0.45992,0.96579
0.72,0.0215,0.30987,0.45015,0.45503,0.9609
0.728,0.028341,0.30987,0.44477,0.44477,0.96872
0.736,0.035426,0.30499,0.43011,0.435,0.9912
0.744,0.042512,0.27468,0.5,0.43988,1.0303
0.752,0.049841,0.25464,0.59531,0.3998,1.087
0.76,0.057171,0.52004,0.69013,0.14956,1.1613
0.768,0.064745,0.76002,0.39003,-0.040567,1.2395
0.776,0.073296,0.56012,-0.21554,0.12952,1.3226
0.784,0.082091,0.49022,-0.50049,0.5,1.4233
0.792,0.092108,0.28006,-0.50049,0.71505,1.5327
0.8,0.10213,0.18475,-0.10557,0.73021,1.6442
0.808,0.11336,0.2346,0.3348,0.54008,1.7546
0.816,0.1246,0.26979,0.47507,0.49022,1.8622
0.824,0.13657,0.3001,0.50489,0.45992,1.9648
0.832,0.14855,0.33969,0.53519,0.42473,2.0596
0.84,0.15954,0.37488,0.54008,0.39003,2.1466
0.848,0.17054,0.39492,0.54497,0.36999,2.2248
0.856,0.1808,0.41984,0.52493,0.3651,2.2952
0.864,0.19106,0.41007,0.52493,0.39003,2.3578
0.872,0.20156,0.40469,0.5,0.41496,2.4047
0.88,0.21231,0.39003,0.49511,0.435,2.4418
0.888,0.22306,0.39003,0.48485,0.45015,2.478
0.896,0.23406,0.39003,0.47996,0.45503,2.5093
0.904,0.24359,0.3998,0.48485,0.45992,2.5337
0.912,0.25336,0.41984,0.47507,0.43988,2.5494
0.92,0.26191,0.44477,0.46481,0.41007,2.5552
0.928,0.27046,0.46481,0.46481,0.39003,2.5513
0.936,0.27804,0.49511,0.47019,0.37977,2.5357
0.944,0.28561,0.50978,0.45992,0.36999,2.5093
0.952,0.29245,0.50489,0.47996,0.39003,2.4751
0.96,0.29954,0.52981,0.18475,0.40469,2.433
0.968,0.30589,0.50978,0.49511,0.34506,2.391
0.976,0.31224,0.63001,0.52493,0.28006,2.347
0.984,0.3181,0.69013,0.54008,0.24976,2.2972
0.992,0.32397,0.73021,0.54497,0.22483,2.2444
1,0.3291,0.75513,0.51515,0.21994,2.1906
1.008,0.33423,0.75513,0.51515,0.22483,2.1378
1.016,0.33887,0.73509,0.50978,0.26002,2.088
1.024,0.34351,0.70039,0.50489,0.28983,2.0411
1.032,0.3484,0.65005,0.5,0.31476,1.9971
1.04,0.35353,0.57527,0.49022,0.34506,1.957
1.048,0.35891,0.49511,0.48485,0.38514,1.9198
1.056,0.36428,0.42473,0.47996,0.41007,1.8847
1.064,0.36966,0.35973,0.47019,0.42473,1.8514
1.072,0.37503,0.32502,0.45992,0.43988,1.8221
1.08,0.38041,0.3001,0.46481,0.43988,1.7947
1.088,0.38578,0.26002,0.45992,0.45015,1.7625
1.096,0.39238,0.23998,0.46481,0.45503,1.7273
1.104,0.39922,0.21994,0.47019,0.46481,1.6901
1.112,0.40679,0.20968,0.47996,0.48485,1.654
1.12,0.41461,0.18964,0.49022,0.51515,1.6197
1.128,0.42243,0.18964,0.5,0.52493,1.5865
1.136,0.43025,0.21457,0.52004,0.50489,1.5552
1.144,0.43758,0.22483,0.54985,0.47507,1.5249
1.152,0.44515,0.24976,0.55523,0.45503,1.4976
1.16,0.45199,0.26979,0.54497,0.43988,1.4702
1.168,0.45883,0.28495,0.52004,0.435,1.4487
1.176,0.46494,0.26002,0.47996,0.45015,1.4291
1.184,0.47105,0.25464,0.46481,0.45992,1.4066
1.192,0.47618,0.24976,0.45503,0.46481,1.3832
1.2,0.48155,0.26002,0.45015,0.45503,1.3587
1.208,0.48595,0.26491,0.43988,0.45015,1.3343
1.216,0.49035,0.26491,0.435,0.45015,1.3109
1.224,0.49353,0.26002,0.43011,0.45015,1.2884
1.232,0.49695,0.26002,0.41984,0.43988,1.2678
1.24,0.49939,0.28006,0.41984,0.42473,1.2483
1.248,0.50208,0.28495,0.42473,0.41984,1.2278
1.256,0.50428,0.28495,0.42473,0.41496,1.2082
1.264,0.50647,0.25464,0.435,0.44477,1.1896
1.272,0.50867,0.2346,0.44477,0.47507,1.1779
1.28,0.51087,0.20968,0.45503,0.50978,1.172
1.288,0.51283,0.1999,0.26491,0.52493,1.1691
1.296,0.51503,0.21994,0.47507,0.5,1.176
1.304,0.51698,0.26002,0.5,0.45503,1.1945
1.312,0.51893,0.27468,0.5,0.45015,1.2278
1.32,0.52089,0.28495,0.5,0.44477,1.2776
1.328,0.52284,0.29472,0.50489,0.43988,1.3431
1.336,0.5248,0.30499,0.5,0.44477,1.4233
1.344,0.527,0.28983,0.5,0.45503,1.5152
1.352,0.53017,0.28495,0.48485,0.45992,1.6139
1.36,0.53335,0.30987,0.47507,0.45015,1.7165
1.368,0.53701,0.30987,0.74536,0.22483,1.8074
1.376,0.54092,0.30987,0.45503,0.49511,1.8895
1.384,0.54483,0.30987,0.47507,0.44477,1.9775
1.392,0.54899,0.28006,0.53519,0.435,2.0645
1.4,0.55314,0.26002,0.65005,0.37488,2.1476
1.408,0.55729,0.51515,0.77028,0.13978,2.2239
1.416,0.56194,0.71505,0.30499,-0.075269,2.2942
1.424,0.56682,0.65494,-0.50049,0.069892,2.3587
1.432,0.57195,0.71505,-0.50049,0.3998,2.4174
1.44,0.57733,0.47996,-0.50049,0.57527,2.4692
1.448,0.58344,0.28495,-0.050342,0.6002,2.5142
1.456,0.58954,0.26002,0.40469,0.50489,2.5503
1.464,0.59614,0.32991,0.54497,0.44477,2.5777
1.472,0.60274,0.35484,0.56012,0.41984,2.5924
1.48,0.60836,0.35973,0.56012,0.435,2.5973
1.488,0.61398,0.35484,0.565,0.43988,2.5963
1.496,0.61862,0.35484,0.56989,0.43988,2.5865
1.504,0.6235,0.35484,0.56989,0.45015,2.5679
1.512,0.6279,0.3651,0.56989,0.45015,2.5425
1.52,0.63254,0.38514,0.57527,0.44477,2.5093
1.528,0.6367,0.39492,0.58504,0.43988,2.4692
1.536,0.64109,0.3998,0.58993,0.43988,2.4233
1.544,0.64427,0.3998,0.58504,0.435,2.3734
1.552,0.64745,0.40469,0.56989,0.435,2.3206
1.56,0.64965,0.39492,0.56989,0.44477,2.2669
1.568,0.65184,0.39492,0.56989,0.47996,2.2199
1.576,0.65331,0.37488,0.59531,0.50978,2.176
1.584,0.65502,0.41007,0.6349,0.47019,2.132
1.592,0.656,0.46481,0.65005,0.41984,2.0899
1.6,0.65722,0.54008,0.6349,0.37977,2.0499
1.608,0.65893,0.58016,0.61486,0.37488,2.0108
1.616,0.66064,0.60508,0.6002,0.36999,1.9726
1.624,0.66259,0.61486,0.6002,0.3651,1.9345
1.632,0.66479,0.6349,0.59531,0.34995,1.8964
1.64,0.66626,0.6349,0.58993,0.34506,1.8573
1.648,0.66797,0.64516,0.58016,0.3348,1.8182
1.656,0.66895,0.6349,0.56989,0.3348,1.7801
1.664,0.67017,0.62512,0.565,0.32991,1.7439
1.672,0.67188,0.6002,0.55523,0.32991,1.7146
1.68,0.67359,0.565,0.54985,0.3348,1.6891
1.688,0.67579,0.52004,0.54008,0.33969,1.6618
1.696,0.67799,0.46481,0.52004,0.34506,1.6334
1.704,0.67994,0.41496,0.5,0.35973,1.6051
1.712,0.68214,0.34506,0.47996,0.3998,1.5758
1.72,0.68409,0.30499,0.47996,0.43011,1.5455
1.728,0.68605,0.24487,0.47996,0.48485,1.5152
1.736,0.68825,0.18475,0.47996,0.52981,1.4839
1.744,0.69069,0.17986,0.51515,0.50489,1.4526
1.752,0.69338,0.1999,0.52981,0.46481,1.4213
1.76,0.69607,0.22483,0.52493,0.42473,1.391
1.768,0.69802,0.24487,0.50978,0.41496,1.3675
1.776,0.69998,0.26491,0.49511,0.41496,1.348
1.784,0.7012,0.27468,0.47507,0.435,1.3245
1.792,0.70242,0.26979,0.46481,0.45503,1.3011
1.8,0.70266,0.26979,0.45992,0.45992,1.2786
1.808,0.70291,0.28006,0.46481,0.45015,1.2571
1.816,0.70193,0.28495,0.46481,0.43988,1.2366
1.824,0.7012,0.28983,0.45992,0.42473,1.218
1.832,0.69802,0.29472,0.45503,0.40469,1.2014
1.84,0.69509,0.30499,0.44477,0.3998,1.1848
1.848,0.6902,0.30987,0.45015,0.41007,1.1691
1.856,0.68556,0.3001,0.45503,0.42473,1.1544
1.864,0.67921,0.30499,0.45992,0.45503,1.1398
1.872,0.6731,0.29472,0.47996,0.48485,1.131
1.88,0.66553,0.27468,0.49511,0.52493,1.1232
1.888,0.65795,0.24976,0.50489,0.55523,1.1105
1.896,0.64818,0.26491,0.52981,0.52981,1.0978
1.904,0.63841,0.3001,0.54008,0.49022,1.086
1.912,0.62692,0.32502,0.52981,0.45992,1.0772
1.92,0.61544,0.34506,0.52493,0.45503,1.0753
1.928,0.60323,0.34506,0.52004,0.44477,1.0841
1.936,0.59125,0.35484,0.5,0.435,1.1085
1.944,0.57904,0.34995,0.49022,0.42473,1.1515
1.952,0.56707,0.33969,0.47507,0.42473,1.2151
1.96,0.55583,0.33969,0.46481,0.41496,1.2972
1.968,0.54459,0.3348,0.45992,0.41007,1.3822
1.976,0.53433,0.32991,0.45503,0.40469,1.4731
1.984,0.52407,0.31476,0.45503,0.40469,1.5836
1.992,0.51478,0.30987,0.45015,0.41007,1.7067
2,0.5055,0.3001,0.45015,0.42473,1.8368
2.008,0.49719,0.28495,0.44477,0.44477,1.9697
2.016,0.48913,0.24976,0.435,0.49022,2.1026
2.024,0.48253,0.22483,0.44477,0.50978,2.2346
2.032,0.47618,0.22972,0.50978,0.47019,2.3636
2.04,0.47105,0.20968,0.62512,0.435,2.4897
2.048,0.46616,0.32991,0.8001,0.27468,2.61
2.056,0.46225,0.6652,0.83529,-0.050342,2.7224
2.064,0.45834,0.74536,-0.17058,-0.14027,2.825
2.072,0.45541,0.87048,-0.50049,0.13978,2.9022
2.08,0.45248,0.75024,-0.50049,0.42473,2.9619
2.088,0.45175,0.41984,-0.44086,0.6002,3.0196
2.096,0.45101,0.27468,0.1696,0.62023,3.0684
2.104,0.45199,0.26979,0.43988,0.565,3.1056
2.112,0.45297,0.32991,0.51515,0.52004,3.132
2.12,0.45419,0.33969,0.52493,0.50489,3.1476
2.128,0.45541,0.3348,0.53519,0.49511,3.1525
2.136,0.45688,0.32991,0.54497,0.49511,3.1486
2.144,0.45859,0.30987,0.54985,0.49022,3.1339
2.152,0.46128,0.30499,0.55523,0.49511,3.1065
2.16,0.46396,0.28495,0.565,0.50978,3.0684
2.168,0.46738,0.3001,0.58504,0.52004,3.0235
2.176,0.4708,0.32991,0.60997,0.44477,2.9726
2.184,0.47349,0.36999,0.60997,0.41007,2.913
2.192,0.47618,0.39492,0.62023,0.37977,2.8485
2.2,0.47813,0.42473,0.62023,0.3651,2.781
2.208,0.48033,0.45503,0.62023,0.3651,2.7155
2.216,0.48229,0.49022,0.61486,0.3651,2.653
2.224,0.48424,0.5,0.60997,0.38514,2.5943
2.232,0.48595,0.52004,0.6002,0.3998,2.5376
2.24,0.48791,0.54497,0.59531,0.40469,2.4819
2.248,0.48913,0.58016,0.6002,0.40469,2.4242
2.256,0.49059,0.60997,0.60508,0.40469,2.3646
2.264,0.49157,0.63001,0.61486,0.40469,2.303
2.272,0.49255,0.65494,0.61486,0.40469,2.2473
2.28,0.49304,0.6652,0.61486,0.3998,2.1965
2.288,0.49377,0.67498,0.60997,0.40469,2.1457
2.296,0.49401,0.6652,0.60508,0.39003,2.0978
2.304,0.4945,0.62512,0.6002,0.41984,2.0538
2.312,0.49401,0.6002,0.6002,0.43011,2.0127
2.32,0.49377,0.55523,0.59531,0.43988,1.9736
2.328,0.49255,0.53519,0.60508,0.41984,1.9355
2.336,0.49157,0.49022,0.62023,0.39003,1.8964
2.344,0.49011,0.43988,0.60508,0.36999,1.8563
2.352,0.48864,0.39003,0.58993,0.37488,1.8133
2.36,0.48668,0.35484,0.57527,0.38514,1.7693
2.368,0.48497,0.32502,0.53519,0.3998,1.7263
2.376,0.48278,0.30499,0.50489,0.41984,1.6852
2.384,0.48082,0.27468,0.47019,0.45503,1.6461
2.392,0.47838,0.26002,0.45015,0.45992,1.608
2.4,0.47618,0.24487,0.43011,0.45992,1.5689
2.408,0.47325,0.24976,0.41496,0.45992,1.5308
2.416,0.47032,0.26002,0.41007,0.45503,1.4936
2.424,0.46665,0.26002,0.41007,0.45992,1.4585
2.432,0.46323,0.26002,0.41496,0.45015,1.4252
2.44,0.45932,0.26002,0.41984,0.43988,1.3939
2.448,0.45541,0.26979,0.41007,0.43988,1.3636
2.456,0.45101,0.26002,0.41984,0.45015,1.3343
2.464,0.44686,0.24487,0.43011,0.47019,1.306
2.472,0.44173,0.24976,0.44477,0.47507,1.2845
2.48,0.4366,0.23998,0.45503,0.48485,1.2649
2.488,0.43098,0.22972,0.48485,0.49022,1.2414
2.496,0.42536,0.26002,0.51515,0.45503,1.216
2.504,0.42023,0.26979,0.52004,0.41496,1.1906
2.512,0.41534,0.30499,0.52493,0.38514,1.1672
2.52,0.4107,0.30987,0.52493,0.41007,1.1447
2.528,0.40606,0.31965,0.52981,0.43988,1.1232
2.536,0.40068,0.32991,0.52493,0.47507,1.1017
2.544,0.39555,0.31476,0.52004,0.50978,1.0811
2.552,0.38969,0.31476,0.50978,0.51515,1.0626
2.56,0.38407,0.30987,0.50978,0.52004,1.0479
2.568,0.37772,0.31476,0.5,0.50978,1.042
2.576,0.37161,0.31476,0.5,0.50978,1.0469
2.584,0.36501,0.31965,0.5,0.50489,1.0616
2.592,0.35866,0.31965,0.5,0.49022,1.0909
2.6,0.35304,0.32502,0.5,0.48485,1.1378
2.608,0.34742,0.30987,0.49511,0.47996,1.2023
2.616,0.34254,0.29472,0.48485,0.49022,1.2835
2.624,0.33765,0.28495,0.47996,0.50978,1.3783
2.632,0.33325,0.26002,0.47507,0.52493,1.4829
2.64,0.3291,0.22483,0.47996,0.55523,1.5924
2.648,0.32519,0.21457,0.50489,0.52004,1.7028
2.656,0.32128,0.26002,0.53519,0.46481,1.8113
2.664,0.3181,0.25464,0.60997,0.41496,1.9042
2.672,0.31517,0.23998,0.73021,0.3348,1.9863
2.68,0.31273,0.565,0.81525,0.059629,2.0723
2.688,0.31053,0.75513,0.25464,-0.12561,2.1574
2.696,0.30931,0.73021,-0.50049,0.054741,2.2375
2.704,0.30809,0.82502,-0.50049,0.38514,2.3118
2.712,0.3076,0.52004,-0.50049,0.58993,2.3803
2.72,0.30711,0.3001,0.0097752,0.62512,2.4418
2.728,0.30784,0.28006,0.3998,0.57527,2.4966
2.736,0.30858,0.3348,0.52004,0.52981,2.5435
2.744,0.31004,0.35484,0.54985,0.52004,2.5836
2.752,0.31175,0.35484,0.55523,0.51515,2.6149
2.76,0.31346,0.3651,0.56989,0.5,2.6383
2.768,0.31542,0.36999,0.57527,0.49022,2.6491
2.776,0.31737,0.36999,0.565,0.47996,2.65
2.784,0.31957,0.35973,0.54497,0.47507,2.6452
2.792,0.32201,0.35484,0.54008,0.47507,2.6325
2.8,0.3247,0.35973,0.53519,0.48485,2.6119
2.808,0.32763,0.33969,0.53519,0.48485,2.5826
2.816,0.33056,0.37488,0.565,0.43011,2.5474
2.824,0.3335,0.40469,0.59531,0.37977,2.5073
2.832,0.33643,0.44477,0.6002,0.32991,2.4643
2.84,0.33887,0.47996,0.59531,0.30499,2.4203
2.848,0.34156,0.52004,0.565,0.28983,2.3754
2.856,0.34351,0.54985,0.54008,0.29472,2.3304
2.864,0.34571,0.565,0.50978,0.30987,2.2893
2.872,0.34693,0.58993,0.48485,0.31476,2.2512
2.88,0.3484,0.62023,0.47996,0.30499,2.2092
2.888,0.3484,0.65494,0.46481,0.28495,2.1632
2.896,0.3484,0.68035,0.45503,0.26979,2.1124
2.904,0.34718,0.70039,0.45015,0.26002,2.0557
2.912,0.34596,0.71994,0.43988,0.23998,1.9941
2.92,0.34376,0.73021,0.42473,0.22972,1.9277
2.928,0.34156,0.71505,0.41984,0.22483,1.8602
2.936,0.33838,0.69501,0.42473,0.2346,1.7928
2.944,0.33545,0.6652,0.42473,0.25464,1.7292
2.952,0.33032,0.62023,0.43011,0.28983,1.6735
2.96,0.32519,0.54008,0.43988,0.32991,1.6246
2.968,0.31835,0.47019,0.45503,0.35484,1.5865
2.976,0.31175,0.435,0.49511,0.32991,1.5562
2.984,0.30418,0.37488,0.50978,0.31965,1.5249
2.992,0.2966,0.35484,0.51515,0.3001,1.4917
3,0.2883,0.32502,0.50489,0.32991,1.4545
3.008,0.28023,0.28983,0.48485,0.3651,1.4125
3.016,0.27071,0.28006,0.47019,0.39492,1.3675
3.024,0.26142,0.24976,0.45503,0.435,1.3196
3.032,0.25092,0.2346,0.43988,0.45992,1.2727
3.04,0.24041,0.23998,0.44477,0.46481,1.2268
3.048,0.22893,0.2346,0.44477,0.47019,1.1828
3.056,0.21744,0.23998,0.45503,0.47019,1.1388
3.064,0.20523,0.23998,0.45015,0.45992,1.1046
3.072,0.19326,0.24487,0.43988,0.45503,1.0753
3.08,0.18251,0.24976,0.44477,0.45015,1.0401
3.088,0.172,0.25464,0.45015,0.47996,1.002
3.096,0.16247,0.24487,0.45503,0.5,0.96285
3.104,0.15319,0.24487,0.45992,0.49511,0.9218
3.112,0.1439,0.22483,0.47507,0.50978,0.88074
3.12,0.13462,0.2346,0.50489,0.50489,0.84164
3.128,0.12558,0.26491,0.54985,0.45503,0.80547
3.136,0.11654,0.28983,0.55523,0.41496,0.77322
3.144,0.10848,0.31965,0.565,0.38514,0.74682
3.152,0.10042,0.34506,0.54985,0.3651,0.72532
3.16,0.09333,0.34995,0.54008,0.39003,0.70968
3.168,0.086489,0.3348,0.52493,0.42473,0.70479
3.176,0.08087,0.31965,0.52004,0.45503,0.70674
3.184,0.07525,0.31476,0.52004,0.47019,0.70968
3.192,0.070608,0.30987,0.51515,0.47996,0.7175
3.2,0.066211,0.30987,0.50978,0.48485,0.73118
3.208,0.063279,0.30987,0.50978,0.47019,0.75367
3.216,0.060591,0.30987,0.5,0.46481,0.78788
3.224,0.059125,0.30987,0.49511,0.45503,0.83675
3.232,0.057904,0.28983,0.5,0.48485,0.90225
3.24,0.057904,0.28495,0.47996,0.49022,0.98436
3.248,0.058148,0.26979,0.46481,0.48485,1.0831
3.256,0.059614,0.2346,0.45503,0.52981,1.1955
3.264,0.061324,0.21457,0.46481,0.565,1.304
3.272,0.064012,0.23998,0.5,0.51515,1.4106
3.28,0.066944,0.28495,0.51515,0.46481,1.5327
3.288,0.070853,0.31965,0.50978,0.41984,1.6608
3.296,0.074762,0.34506,0.5,0.39003,1.7898
3.304,0.079404,0.35484,0.47996,0.40469,1.915
3.312,0.084046,0.33969,0.47019,0.42473,2.0323
3.32,0.089421,0.31476,0.49022,0.47507,2.1408
3.328,0.094796,0.26979,0.57527,0.45503,2.2395
3.336,0.10139,0.33969,0.67498,0.35484,2.3265
3.344,0.10799,0.71017,0.71505,0.059629,2.4027
3.352,0.11556,0.83529,0.15982,-0.040567,2.4692
3.36,0.12314,0.66031,-0.43548,0.31476,2.5259
3.368,0.13144,0.45015,-0.50049,0.68524,2.566
3.376,0.14,0.17498,-0.42082,0.84018,2.5943
3.384,0.14855,0.22483,0.10459,0.67498,2.6197
3.392,0.15734,0.28006,0.41007,0.58016,2.6413
3.4,0.16467,0.32502,0.49511,0.53519,2.6569
3.408,0.17225,0.30987,0.50489,0.53519,2.6637
3.416,0.1786,0.32991,0.52981,0.51515,2.6608
3.424,0.18519,0.35484,0.56012,0.47019,2.6461
3.432,0.19179,0.38514,0.56989,0.435,2.6188
3.44,0.19839,0.41496,0.56012,0.3998,2.5767
3.448,0.20498,0.43011,0.54985,0.39003,2.5191
3.456,0.21183,0.435,0.54008,0.3998,2.4467
3.464,0.21818,0.435,0.54497,0.41984,2.3734
3.472,0.22453,0.42473,0.53519,0.44477,2.2972
3.48,0.23064,0.43011,0.52493,0.43988,2.2102
3.488,0.23675,0.45015,0.52981,0.45015,2.1212
3.496,0.24359,0.47019,0.52493,0.43988,2.0381
3.504,0.25043,0.48485,0.51515,0.43011,1.9658
3.512,0.25776,0.50978,0.50978,0.40469,1.9052
3.52,0.26533,0.52493,0.49511,0.39492,1.8553
3.528,0.27339,0.54985,0.48485,0.40469,1.8143
3.536,0.28146,0.58504,0.47019,0.39003,1.7781
3.544,0.28976,0.60508,0.45992,0.39003,1.7419
3.552,0.29807,0.60997,0.45992,0.40469,1.7038
3.56,0.30613,0.65005,0.49511,0.35484,1.6608
3.568,0.31444,0.69013,0.52493,0.30987,1.6217
3.576,0.3225,0.72532,0.52981,0.26979,1.5826
3.584,0.33056,0.75513,0.52493,0.2346,1.5367
3.592,0.33936,0.75024,0.52981,0.2346,1.4888
3.6,0.34816,0.71505,0.5,0.26979,1.4409
3.608,0.35768,0.65494,0.47996,0.30987,1.3949
3.616,0.36721,0.6002,0.47996,0.35973,1.3519
3.624,0.37625,0.53519,0.47507,0.37977,1.3128
3.632,0.38529,0.47019,0.47019,0.40469,1.2776
3.64,0.39409,0.40469,0.45992,0.42473,1.2463
3.648,0.40313,0.34995,0.45503,0.43988,1.218
3.656,0.4129,0.30499,0.45503,0.45503,1.1945
3.664,0.42292,0.26979,0.45503,0.45992,1.1789
3.672,0.43391,0.2346,0.45503,0.47507,1.1681
3.68,0.44491,0.21457,0.45992,0.5,1.1554
3.688,0.45663,0.1999,0.47996,0.51515,1.1437
3.696,0.46836,0.17986,0.49022,0.53519,1.1329
3.704,0.48033,0.17498,0.50489,0.54008,1.1241
3.712,0.4923,0.21457,0.54008,0.47996,1.1163
3.72,0.50281,0.2346,0.54985,0.44477,1.1075
3.728,0.51332,0.26002,0.55523,0.41007,1.0978
3.736,0.52236,0.28495,0.54985,0.39003,1.088
3.744,0.5314,0.28495,0.54497,0.3998,1.0782
3.752,0.5397,0.28006,0.52981,0.41496,1.0674
3.76,0.54825,0.26979,0.52493,0.43988,1.0557
3.768,0.55607,0.27468,0.51515,0.45015,1.0479
3.776,0.56389,0.28006,0.50489,0.45992,1.0401
3.784,0.57,0.28006,0.49511,0.45503,1.0264
3.792,0.57611,0.28495,0.48485,0.45015,1.0098
3.8,0.58075,0.29472,0.47996,0.45015,0.9912
3.808,0.58539,0.3001,0.47507,0.43988,0.97263
3.816,0.58979,0.30499,0.47507,0.43988,0.95601
3.824,0.59419,0.28983,0.47996,0.45015,0.94135
3.832,0.59834,0.26491,0.47996,0.47996,0.92864
3.84,0.60274,0.2346,0.47996,0.52004,0.91887
3.848,0.60616,0.22972,0.50489,0.52493,0.91105
3.856,0.60982,0.26491,0.53519,0.45992,0.90714
3.864,0.613,0.30499,0.54497,0.41496,0.91105
3.872,0.61642,0.31965,0.54497,0.3998,0.92473
3.88,0.61911,0.3348,0.54985,0.38514,0.94819
3.888,0.62204,0.32991,0.52981,0.39492,0.98534
3.896,0.62473,0.30987,0.52004,0.41984,1.0401
3.904,0.62741,0.30499,0.49022,0.43988,1.1124
3.912,0.63083,0.28983,0.47996,0.45503,1.2014
3.92,0.63425,0.28983,0.46481,0.45992,1.304
3.928,0.63841,0.28983,0.45992,0.45992,1.4154
3.936,0.64256,0.28983,0.45015,0.46481,1.5318
3.944,0.64671,0.28495,0.44477,0.47996,1.6471
3.952,0.65087,0.28495,0.43988,0.48485,1.7586
3.96,0.65502,0.28495,0.44477,0.49511,1.8651
3.968,0.65942,0.26491,0.44477,0.51515,1.9531
3.976,0.66406,0.22972,0.45503,0.54008,2.0293
3.984,0.66895,0.20479,0.52981,0.54497,2.1085
3.992,0.67408,0.19501,0.65494,0.44477,2.1848
4,0.67921,0.3998,0.78543,0.21457,2.2571
4.008,0.68409,0.75513,0.58993,-0.11535,2.3236
4.016,0.68898,0.73998,-0.15054,-0.16031,2.3842
4.024,0.69338,0.79521,-0.50049,0.21994,2.4379
4.032,0.69802,0.62023,-0.50049,0.49511,2.4839
4.04,0.70193,0.3348,-0.27077,0.62512,2.522
4.048,0.70584,0.28495,0.28983,0.56012,2.5523
4.056,0.70926,0.31476,0.5,0.51515,2.5748
4.064,0.71268,0.34995,0.54985,0.47996,2.5846
4.072,0.7161,0.35484,0.55523,0.47507,2.5846
4.08,0.71952,0.34995,0.56012,0.48485,2.5777
4.088,0.72294,0.32991,0.565,0.50489,2.563
4.096,0.72661,0.32502,0.54985,0.52004,2.5386
4.104,0.72954,0.3001,0.54008,0.54985,2.5064
4.112,0.73271,0.29472,0.55523,0.55523,2.4673
4.12,0.7354,0.33969,0.58504,0.5,2.4233
4.128,0.73809,0.3651,0.6002,0.45503,2.3754
4.136,0.74102,0.39003,0.60508,0.43011,2.3265
4.144,0.74395,0.41984,0.60997,0.41007,2.2786
4.152,0.74688,0.45015,0.59531,0.38514,2.2326
4.16,0.75006,0.46481,0.58016,0.37977,2.1896
4.168,0.75226,0.47996,0.56989,0.38514,2.1525
4.176,0.75446,0.47996,0.56989,0.41007,2.1202
4.184,0.75592,0.48485,0.56989,0.42473,2.088
4.192,0.75739,0.50978,0.56989,0.41496,2.0557
4.2,0.75812,0.52981,0.565,0.41496,2.0235
4.208,0.7591,0.56012,0.565,0.3998,1.9912
4.216,0.75935,0.59531,0.565,0.37977,1.958
4.224,0.75983,0.61486,0.56989,0.36999,1.9238
4.232,0.75935,0.6349,0.57527,0.37488,1.8876
4.24,0.75886,0.61486,0.58504,0.40469,1.8504
4.248,0.75763,0.58993,0.58993,0.42473,1.8123
4.256,0.75666,0.59531,0.59531,0.43011,1.7742
4.264,0.75495,0.60997,0.60508,0.3651,1.7419
4.272,0.75324,0.61486,0.6002,0.30499,1.7116
4.28,0.75128,0.59531,0.58993,0.28495,1.6794
4.288,0.74933,0.55523,0.565,0.27468,1.6461
4.296,0.74737,0.50489,0.54497,0.27468,1.6129
4.304,0.74566,0.45503,0.52004,0.28983,1.5806
4.312,0.74395,0.40469,0.5,0.30987,1.5503
4.32,0.74224,0.35484,0.48485,0.33969,1.522
4.328,0.74004,0.31476,0.47996,0.3651,1.4936
4.336,0.73809,0.27468,0.47996,0.37977,1.4663
4.344,0.73565,0.26002,0.47996,0.39003,1.4399
4.352,0.7332,0.24487,0.46481,0.39003,1.4145
4.36,0.73052,0.23998,0.45503,0.39003,1.3959
4.368,0.72807,0.23998,0.43988,0.3998,1.3793
4.376,0.72538,0.23998,0.42473,0.41496,1.3607
4.384,0.7227,0.21994,0.41984,0.435,1.3412
4.392,0.72025,0.18475,0.435,0.47507,1.3216
4.4,0.71806,0.17498,0.45015,0.48485,1.303
4.408,0.71586,0.21457,0.46481,0.44477,1.2854
4.416,0.7139,0.26002,0.47507,0.3998,1.347
4.424,0.71219,0.28495,0.47507,0.3998,1.4477
4.432,0.71048,0.3001,0.47996,0.41496,1.4888
4.44,0.70853,0.29472,0.48485,0.44477,1.5015
4.448,0.70682,0.28983,0.5,0.47019,1.4995
4.456,0.70437,0.28495,0.50489,0.48485,1.4917
4.464,0.70193,0.27468,0.50978,0.49511,1.4858
4.472,0.69851,0.26491,0.52004,0.50978,1.48
4.48,0.69509,0.25464,0.54008,0.52493,1.4692
4.488,0.69069,0.25464,0.54985,0.51515,1.4565
4.496,0.68629,0.26491,0.55523,0.50489,1.4428
4.504,0.68092,0.29472,0.53519,0.48485,1.4311
4.512,0.67579,0.32991,0.51515,0.50978,1.4213
4.52,0.67041,0.32502,0.52981,0.58993,1.4164
4.528,0.66504,0.26491,0.565,0.62023,1.4194
4.536,0.65942,0.24976,0.54497,0.565,1.434
4.544,0.6538,0.28983,0.52981,0.47507,1.4643
4.552,0.64818,0.25464,0.58016,0.435,1.5103
4.56,0.64256,0.2346,0.69501,0.3651,1.564
4.568,0.63694,0.52493,0.81036,0.069892,1.6276
4.576,0.63157,0.71505,0.21994,-0.17058,1.7087
4.584,0.62644,0.67498,-0.50049,-0.040567,1.8035
4.592,0.62155,0.82014,-0.50049,0.26979,1.9071
4.6,0.61691,0.61486,-0.50049,0.435,2.0166
4.608,0.61251,0.30499,0.0043988,0.56989,2.1271
4.616,0.60836,0.25464,0.41007,0.55523,2.2356
4.624,0.6042,0.29472,0.54008,0.51515,2.3412
4.632,0.60029,0.30987,0.56989,0.49022,2.4418
4.64,0.59663,0.30499,0.58016,0.47996,2.5367
4.648,0.59443,0.30987,0.58993,0.47019,2.6246
4.656,0.59247,0.30499,0.58993,0.47996,2.7058
4.664,0.59174,0.3001,0.57527,0.48485,2.7693
4.672,0.59125,0.30987,0.56989,0.5,2.8221
4.68,0.59174,0.30499,0.55523,0.52493,2.8768
4.688,0.59223,0.29472,0.54985,0.53519,2.9277
4.696,0.5937,0.3348,0.58993,0.49022,2.9736
4.704,0.59516,0.36999,0.6002,0.45015,3.0127
4.712,0.59785,0.40469,0.60508,0.41007,3.044
4.72,0.60054,0.435,0.6002,0.38514,3.0674
4.728,0.60396,0.47019,0.58993,0.37488,3.0811
4.736,0.60738,0.49511,0.58016,0.36999,3.0841
4.744,0.61031,0.50489,0.56989,0.37977,3.0762
4.752,0.61349,0.52493,0.56012,0.39003,3.0587
4.76,0.61617,0.56012,0.54985,0.3651,3.0342
4.768,0.61911,0.58504,0.55523,0.35973,3.0039
4.776,0.62155,0.60508,0.56989,0.34995,2.9668
4.784,0.62424,0.61486,0.58016,0.3651,2.9247
4.792,0.62619,0.62512,0.58504,0.3651,2.8788
4.8,0.62839,0.64027,0.58016,0.36999,2.8299
4.808,0.62888,0.6349,0.58016,0.38514,2.781
4.816,0.62937,0.61486,0.56989,0.40469,2.7322
4.824,0.62839,0.58504,0.57527,0.41496,2.6843
4.832,0.62741,0.54008,0.56989,0.435,2.6383
4.84,0.6257,0.49022,0.565,0.43988,2.5924
4.848,0.62424,0.45992,0.58504,0.39492,2.5455
4.856,0.62228,0.43011,0.565,0.3651,2.4976
4.864,0.62033,0.3998,0.54985,0.3651,2.4545
4.872,0.61691,0.3651,0.54008,0.36999,2.4145
4.88,0.61373,0.33969,0.51515,0.3651,2.3705
4.888,0.60933,0.30987,0.48485,0.39003,2.3255
4.896,0.60494,0.28983,0.45992,0.41496,2.2815
4.904,0.60005,0.27468,0.43988,0.43011,2.2405
4.912,0.59541,0.26979,0.44477,0.41984,2.2033
4.92,0.59052,0.26491,0.44477,0.42473,2.1691
4.928,0.58563,0.26002,0.45503,0.41496,2.1378
4.936,0.5805,0.25464,0.45503,0.41496,2.1075
4.944,0.57562,0.26002,0.46481,0.41496,2.0772
4.952,0.57024,0.26979,0.46481,0.41496,2.0469
4.96,0.56511,0.28495,0.47507,0.40469,2.0196
4.968,0.55925,0.22972,0.48485,0.435,1.9941
4.976,0.55338,0.20968,0.49022,0.44477,1.9648
4.984,0.54703,0.22972,0.47996,0.42473,1.9335
4.992,0.54068,0.26491,0.47996,0.37977,1.9013
5,0.53457,0.28006,0.47996,0.35973,1.87
5.008,0.52846,0.26979,0.47996,0.3651,1.8397
5.016,0.52236,0.26491,0.47019,0.38514,1.8113
5.024,0.51625,0.26979,0.46481,0.40469,1.783
5.032,0.50965,0.26979,0.45503,0.43011,1.7546
5.04,0.5033,0.26002,0.45503,0.44477,1.7273
5.048,0.4967,0.26002,0.45503,0.46481,1.7009
5.056,0.49011,0.26979,0.45503,0.45992,1.6755
5.064,0.48424,0.27468,0.47019,0.45503,1.6569
5.072,0.47838,0.1999,0.58016,0.44477,1.6432
5.08,0.473,0.18964,0.72532,0.3348,1.6276
5.088,0.46787,0.62512,0.80499,-0.010264,1.6158
5.096,0.46274,0.7654,0.049853,-0.14027,1.6119
5.104,0.45761,0.71994,-0.50049,0.12463,1.6178
5.112,0.45248,0.6349,-0.50049,0.41496,1.6373
5.12,0.44735,0.35973,-0.46579,0.52981,1.6725
5.128,0.44271,0.19501,0.19501,0.54985,1.7224
5.136,0.43831,0.23998,0.54497,0.38514,1.7869
5.144,0.43416,0.32991,0.64027,0.24976,1.8631
5.152,0.43,0.38514,0.66031,0.14956,1.9482
5.16,0.42707,0.41496,0.68035,0.07478,2.0274
5.168,0.42438,0.42473,0.68524,0.054741,2.1026
5.176,0.42267,0.41496,0.67498,0.07478,2.1877
5.184,0.42121,0.41007,0.68035,0.084555,2.2757
5.192,0.41974,0.41984,0.68035,0.059629,2.3627
5.2,0.41852,0.435,0.67009,0.01955,2.4467
5.208,0.4173,0.45015,0.6652,-0.030303,2.5279
5.216,0.41632,0.45503,0.6652,-0.060606,2.6041
5.224,0.41583,0.45503,0.6652,-0.045455,2.6745
5.232,0.41559,0.45015,0.66031,-0.0053763,2.739
5.24,0.41583,0.43988,0.65494,0.039589,2.7967
5.248,0.41608,0.44477,0.65005,0.084555,2.8465
5.256,0.41656,0.42473,0.64027,0.16471,2.8895
5.264,0.4173,0.40469,0.62023,0.28983,2.9179
5.272,0.41828,0.39003,0.58993,0.40469,2.9365
5.28,0.41925,0.435,0.58016,0.44477,2.9511
5.288,0.42047,0.49511,0.58504,0.45503,2.958
5.296,0.4217,0.52981,0.565,0.49022,2.956
5.304,0.42316,0.565,0.53519,0.53519,2.9453
5.312,0.42463,0.58016,0.50978,0.59531,2.9257
5.32,0.4256,0.58993,0.48485,0.65494,2.8964
5.328,0.42683,0.58016,0.47019,0.70039,2.8583
5.336,0.42731,0.565,0.45503,0.72532,2.8143
5.344,0.42805,0.54008,0.44477,0.73998,2.7654
5.352,0.4278,0.5,0.43011,0.73998,2.7126
5.36,0.4278,0.45503,0.43011,0.75024,2.6647
5.368,0.42707,0.41007,0.41007,0.75513,2.6207
5.376,0.42634,0.35973,0.39492,0.7654,2.5748
5.384,0.4256,0.31476,0.37977,0.78543,2.5288
5.392,0.42487,0.24976,0.37488,0.8304,2.4839
5.4,0.42438,0.19501,0.36999,0.85533,2.4399
5.408,0.42389,0.1696,0.37488,0.86022,2.3988
5.416,0.42341,0.19501,0.39003,0.80499,2.3597
5.424,0.42292,0.20968,0.40469,0.73021,2.3216
5.432,0.42218,0.23998,0.41496,0.65494,2.2845
5.44,0.4217,0.26002,0.41984,0.58993,2.2473
5.448,0.42047,0.28006,0.41496,0.54985,2.2111
5.456,0.4195,0.26491,0.47996,0.51515,2.176
5.464,0.41803,0.25464,0.6002,0.41984,2.1457
5.472,0.41656,0.60508,0.70039,0.15982,2.1173
5.48,0.41485,0.82502,0.089932,0.0097752,2.085
5.488,0.41314,0.75024,-0.50049,0.24976,2.0499
5.496,0.41119,0.7654,-0.50049,0.6002,2.0147
5.504,0.40924,0.45015,-0.50049,0.64027,1.9795
5.512,0.40704,0.2346,0.054741,0.6652,1.9453
5.52,0.40484,0.21457,0.41007,0.58993,1.911
5.528,0.40239,0.28495,0.5,0.52981,1.8788
5.536,0.4002,0.26491,0.52493,0.54985,1.8475
5.544,0.39702,0.21994,0.54497,0.59531,1.8162
5.552,0.39409,0.20968,0.54985,0.60508,1.7859
5.56,0.39042,0.25464,0.58016,0.54008,1.7605
5.568,0.38676,0.28983,0.58504,0.47996,1.738
5.576,0.38212,0.30987,0.57527,0.45503,1.7126
5.584,0.37747,0.3348,0.55523,0.42473,1.6852
5.592,0.3721,0.35484,0.52493,0.41496,1.6588
5.6,0.36697,0.36999,0.51515,0.41496,1.6364
5.608,0.36159,0.37977,0.50978,0.40469,1.6207
5.616,0.35622,0.39003,0.51515,0.3998,1.6168
5.624,0.35084,0.40469,0.52493,0.40469,1.6256
5.632,0.34571,0.41496,0.54008,0.37977,1.651
5.64,0.34083,0.42473,0.56012,0.35973,1.6921
5.648,0.33618,0.44477,0.56012,0.3348,1.7488
5.656,0.33179,0.47019,0.56012,0.32502,1.8192
5.664,0.32763,0.48485,0.55523,0.3348,1.8886
5.672,0.32372,0.49022,0.56012,0.35973,1.9599
5.68,0.32006,0.45015,0.565,0.41984,2.043
5.688,0.31664,0.44477,0.55523,0.43988,2.132
5.696,0.31322,0.5,0.565,0.41007,2.2229
5.704,0.31029,0.52493,0.57527,0.39492,2.3128
5.712,0.3076,0.54008,0.565,0.40469,2.3988
5.72,0.3054,0.54497,0.54008,0.41496,2.48
5.728,0.3032,0.52981,0.52981,0.435,2.5552
5.736,0.301,0.5,0.51515,0.45015,2.6237
5.744,0.2988,0.45503,0.50978,0.46481,2.6862
5.752,0.29636,0.41007,0.5,0.49511,2.7419
5.76,0.29392,0.37488,0.49022,0.49511,2.783
5.768,0.29025,0.34506,0.47507,0.48485,2.8133
5.776,0.28683,0.31476,0.47507,0.48485,2.8416
5.784,0.28243,0.29472,0.47019,0.47019,2.8641
5.792,0.27828,0.28495,0.47507,0.45503,2.8788
5.8,0.27364,0.28006,0.47507,0.45015,2.8827
5.808,0.269,0.26002,0.47507,0.47507,2.8768
5.816,0.26411,0.23998,0.47507,0.49511,2.8602
5.824,0.25922,0.22483,0.47996,0.52493,2.8328
5.832,0.25287,0.21457,0.48485,0.55523,2.7967
5.84,0.24676,0.22972,0.51515,0.51515,2.7537
5.848,0.23968,0.24487,0.52981,0.47507,2.7058
5.856,0.23259,0.28495,0.53519,0.44477,2.654
5.864,0.226,0.30987,0.50978,0.435,2.6061
5.872,0.21964,0.32991,0.48485,0.42473,2.5611
5.88,0.21354,0.32991,0.45992,0.45503,2.5152
5.888,0.20767,0.30987,0.45015,0.47996,2.4692
5.896,0.20132,0.3001,0.435,0.49511,2.4252
5.904,0.19497,0.3001,0.43011,0.5,2.3832
5.912,0.18837,0.28983,0.43011,0.49511,2.3431
5.92,0.18177,0.28983,0.43011,0.48485,2.304
5.928,0.17518,0.28495,0.43988,0.47996,2.2659
5.936,0.16882,0.28006,0.45015,0.45503,2.2278
5.944,0.16272,0.27468,0.46481,0.435,2.1906
5.952,0.15685,0.25464,0.47507,0.44477,2.1525
5.96,0.15197,0.23998,0.47996,0.45992,2.1202
5.968,0.14732,0.2346,0.47019,0.45992,2.0899
5.976,0.14366,0.20968,0.46481,0.48485,2.0557
5.984,0.14,0.20479,0.45503,0.5,2.0215
5.992,0.13706,0.2346,0.47996,0.45503,1.9873
6,0.13438,0.27468,0.49022,0.3998,1.955
6.008,0.13218,0.30499,0.5,0.36999,1.9247
6.016,0.12998,0.31965,0.49022,0.3651,1.8983
6.024,0.12876,0.3348,0.48485,0.35484,1.8788
6.032,0.12753,0.32502,0.51515,0.35973,1.868
6.04,0.12705,0.30499,0.59531,0.33969,1.8671
6.048,0.1268,0.46481,0.69501,0.1999,1.8768
6.056,0.12753,0.84506,0.58993,-0.070381,1.8983
6.064,0.12827,0.89052,0.024438,-0.085533,1.9247
6.072,0.12973,0.64516,-0.50049,0.40469,1.957
6.08,0.1312,0.35484,-0.50049,0.75513,1.998
6.088,0.13315,0.13978,-0.2957,0.8651,2.044
6.096,0.13535,0.21994,0.21457,0.6349,2.0909
6.104,0.1378,0.26979,0.43011,0.56989,2.1349
6.112,0.14048,0.30499,0.48485,0.52981,2.174
6.12,0.14317,0.31476,0.49511,0.53519,2.2063
6.128,0.1461,0.29472,0.5,0.56012,2.2297
6.136,0.14903,0.28495,0.49511,0.565,2.2434
6.144,0.15221,0.31476,0.52493,0.49022,2.2473
6.152,0.15539,0.34506,0.52981,0.46481,2.2414
6.16,0.15856,0.37488,0.54008,0.41984,2.2287
6.168,0.16174,0.40469,0.52493,0.3998,2.2102
6.176,0.16492,0.40469,0.51515,0.39492,2.1828
6.184,0.16809,0.41496,0.49022,0.40469,2.1476
6.192,0.17127,0.41496,0.48485,0.41496,2.1075
6.2,0.17444,0.42473,0.47019,0.41984,2.0655
6.208,0.17762,0.435,0.45992,0.41496,2.0235
6.216,0.1808,0.45992,0.45503,0.40469,1.9814
6.224,0.18397,0.47507,0.44477,0.41007,1.9423
6.232,0.18715,0.49511,0.43988,0.3998,1.9062
6.24,0.19057,0.50978,0.43011,0.39492,1.8739
6.248,0.19472,0.52004,0.43011,0.40469,1.8456
6.256,0.19912,0.53519,0.43988,0.41496,1.824
6.264,0.20401,0.56012,0.45015,0.41984,1.8074
6.272,0.20889,0.565,0.45503,0.42473,1.7879
6.28,0.21329,0.56012,0.47507,0.435,1.7674
6.288,0.21793,0.58016,0.48485,0.39492,1.7458
6.296,0.22209,0.58993,0.52004,0.3651,1.7234
6.304,0.22624,0.57527,0.52981,0.33969,1.7009
6.312,0.23088,0.565,0.50489,0.30987,1.6784
6.32,0.23577,0.55523,0.48485,0.28006,1.6549
6.328,0.2409,0.52981,0.46481,0.27468,1.6305
6.336,0.24603,0.47996,0.45503,0.30499,1.607
6.344,0.25043,0.41984,0.45015,0.32502,1.5836
6.352,0.25507,0.3651,0.45015,0.34506,1.5601
6.36,0.25922,0.32991,0.45503,0.35484,1.5415
6.368,0.26362,0.30499,0.45992,0.34995,1.5259
6.376,0.26826,0.28006,0.47019,0.3651,1.5054
6.384,0.27315,0.26002,0.47507,0.39003,1.4829
6.392,0.27852,0.2346,0.48485,0.41984,1.4604
6.4,0.28414,0.21994,0.49022,0.43988,1.4389
6.408,0.28976,0.22483,0.5,0.44477,1.4174
6.416,0.29563,0.21994,0.50489,0.47507,1.3978
6.424,0.30149,0.21457,0.52004,0.48485,1.3803
6.432,0.3076,0.23998,0.54497,0.435,1.3636
6.44,0.31273,0.23998,0.54985,0.41007,1.348
6.448,0.3181,0.26002,0.54497,0.37977,1.3324
6.456,0.32275,0.28495,0.54985,0.3651,1.3236
6.464,0.32739,0.30987,0.52004,0.34995,1.2414
6.472,0.33203,0.31965,0.5,0.34506,1.1173
6.48,0.33667,0.32991,0.49511,0.36999,1.0489
6.488,0.34131,0.31476,0.49511,0.39492,1.0088
6.496,0.34596,0.31965,0.49511,0.40469,0.98338
6.504,0.3506,0.32502,0.5,0.40469,0.96481
6.512,0.35524,0.31476,0.50978,0.41496,0.95112
6.52,0.35988,0.31476,0.5,0.40469,0.93939
6.528,0.36477,0.30987,0.50489,0.435,0.92766
6.536,0.37039,0.28006,0.51515,0.45992,0.91691
6.544,0.37601,0.26491,0.52493,0.47996,0.90714
6.552,0.3826,0.24487,0.52004,0.50978,0.90029
6.56,0.38945,0.21457,0.52981,0.54497,0.90127
6.568,0.39726,0.22972,0.55523,0.51515,0.91007
6.576,0.40508,0.25464,0.56989,0.46481,0.92571
6.584,0.41363,0.30499,0.56989,0.41984,0.95406
6.592,0.42243,0.32991,0.565,0.39492,0.99902
6.6,0.43074,0.34995,0.54497,0.37488,1.0635
6.608,0.43929,0.35484,0.54008,0.39003,1.1486
6.616,0.44759,0.31476,0.63001,0.36999,1.2522
6.624,0.4559,0.30987,0.73021,0.28495,1.3715
6.632,0.46592,0.71505,0.77517,0.0043988,1.4995
6.64,0.47593,0.82502,0.22483,-0.080645,1.6315
6.648,0.48717,0.67009,-0.42082,0.26491,1.7634
6.656,0.49866,0.47996,-0.50049,0.61486,1.8759
6.664,0.50916,0.22483,-0.39052,0.7654,1.9746
6.672,0.51967,0.21457,0.15982,0.62023,2.0782
6.68,0.52944,0.27468,0.45992,0.52981,2.1779
6.688,0.53946,0.30499,0.53519,0.51515,2.2717
6.696,0.5507,0.30987,0.54985,0.52493,2.3578
6.704,0.56218,0.28006,0.54008,0.55523,2.435
6.712,0.57464,0.26979,0.56012,0.54008,2.5024
6.72,0.5871,0.30499,0.57527,0.5,2.5601
6.728,0.5998,0.3348,0.56989,0.45015,2.607
6.736,0.61275,0.3651,0.56989,0.41984,2.6422
6.744,0.62546,0.39492,0.55523,0.3998,2.6657
6.752,0.63841,0.40469,0.54985,0.39492,2.6774
6.76,0.64989,0.41496,0.54008,0.3998,2.6764
6.768,0.66162,0.42473,0.52493,0.41007,2.6657
6.776,0.67212,0.43011,0.52981,0.41007,2.6471
6.784,0.68263,0.45503,0.52493,0.40469,2.6207
6.792,0.69265,0.47507,0.52493,0.39003,2.5865
6.8,0.70266,0.5,0.50978,0.3651,2.5464
6.808,0.71219,0.52493,0.51515,0.34506,2.5034
6.816,0.72172,0.54497,0.5,0.34506,2.4594
6.824,0.73003,0.565,0.5,0.34506,2.4174
6.832,0.73833,0.58993,0.50489,0.34506,2.3763
6.84,0.74566,0.60997,0.51515,0.35484,2.3363
6.848,0.75299,0.61486,0.52493,0.3651,2.2972
6.856,0.75935,0.6002,0.52981,0.39003,2.2639
6.864,0.76594,0.61486,0.54985,0.37977,2.2336
6.872,0.77181,0.6349,0.565,0.33969,2.2014
6.88,0.77791,0.64516,0.58016,0.3001,2.1681
6.888,0.78378,0.6349,0.56989,0.28495,2.1339
6.896,0.78964,0.60997,0.54985,0.28006,2.0987
6.904,0.7955,0.56989,0.52981,0.3001,2.0635
6.912,0.80137,0.5,0.51515,0.33969,2.0274
6.92,0.80625,0.43988,0.50489,0.35973,1.9912
6.928,0.81114,0.39003,0.49511,0.38514,1.9541
6.936,0.81505,0.34506,0.48485,0.39492,1.9179
6.944,0.8192,0.31476,0.48485,0.3998,1.8827
6.952,0.82311,0.28983,0.47996,0.40469,1.8475
6.96,0.82702,0.26979,0.48485,0.41007,1.8182
6.968,0.83069,0.24487,0.47996,0.43988,1.7918
6.976,0.8346,0.21994,0.49022,0.47507,1.7625
6.984,0.83728,0.21994,0.49511,0.49022,1.7322
6.992,0.83997,0.1999,0.49511,0.52004,1.7019
7,0.84168,0.16471,0.49511,0.56989,1.6725
7.008,0.84339,0.14467,0.5,0.58016,1.6442
7.016,0.84388,0.18475,0.52493,0.52004,1.6168
7.024,0.84437,0.2346,0.54497,0.45015,1.5914
7.032,0.84364,0.26002,0.53519,0.41984,1.5679
7.04,0.84315,0.28006,0.52004,0.41496,1.5455
7.048,0.8407,0.28495,0.49511,0.43011,1.5239
7.056,0.8385,0.26979,0.48485,0.44477,1.5073
7.064,0.83484,0.26491,0.47019,0.45503,1.4917
7.072,0.83118,0.27468,0.46481,0.45503,1.4721
7.08,0.82678,0.26979,0.46481,0.45503,1.4516
7.088,0.82262,0.28495,0.46481,0.44477,1.4321
7.096,0.81774,0.28495,0.45503,0.43988,1.4115
7.104,0.8131,0.28495,0.45015,0.43988,1.391
7.112,0.80748,0.28495,0.45503,0.44477,1.3715
7.12,0.80186,0.25464,0.45503,0.47507,1.3519
7.128,0.79575,0.24487,0.46481,0.49511,1.3324
7.136,0.78964,0.22483,0.47019,0.52493,1.3148
7.144,0.78402,0.20479,0.47996,0.54008,1.3011
7.152,0.7784,0.2346,0.49511,0.51515,1.2952
7.16,0.77327,0.26002,0.51515,0.45503,1.3001
7.168,0.76839,0.29472,0.52004,0.41496,1.3177
7.176,0.76423,0.32502,0.50978,0.39003,1.35
7.184,0.76008,0.33969,0.49511,0.38514,1.3988
7.192,0.75666,0.3348,0.47996,0.3998,1.4663
7.2,0.75348,0.32502,0.46481,0.41984,1.5494
7.208,0.75177,0.31476,0.45992,0.43011,1.6452
7.216,0.75031,0.31965,0.45992,0.42473,1.7507
7.224,0.74982,0.32502,0.45992,0.41984,1.8622
7.232,0.74957,0.32991,0.45503,0.41496,1.9746
7.24,0.75006,0.32991,0.45015,0.40469,2.085
7.248,0.75079,0.3348,0.44477,0.3998,2.1916
7.256,0.7525,0.33969,0.44477,0.3998,2.2805
7.264,0.75421,0.32502,0.45015,0.41984,2.3568
7.272,0.75837,0.28983,0.45503,0.45503,2.436
7.28,0.76277,0.22972,0.50978,0.49511,2.5132
7.288,0.76912,0.14956,0.62512,0.50978,2.5855
7.296,0.77547,0.28983,0.78006,0.33969,2.6491
7.304,0.78231,0.60997,0.52981,-0.00048876,2.7038
7.312,0.7894,0.6652,-0.35582,-0.060606,2.7507
7.32,0.79697,0.81036,-0.50049,0.18475,2.7889
7.328,0.80454,0.67009,-0.50049,0.41984,2.8172
7.336,0.81334,0.37977,-0.28055,0.54497,2.8368
7.344,0.82238,0.28983,0.26491,0.54985,2.8446
7.352,0.83215,0.31965,0.47507,0.5,2.8416
7.36,0.84193,0.34506,0.52493,0.48485,2.828
7.368,0.85145,0.34995,0.52493,0.48485,2.8055
7.376,0.86123,0.34995,0.53519,0.47507,2.7752
7.384,0.87051,0.34995,0.53519,0.47507,2.7361
7.392,0.87979,0.35484,0.54008,0.47019,2.6911
7.4,0.88786,0.35484,0.52981,0.48485,2.6413
7.408,0.89592,0.33969,0.54985,0.49022,2.5894
7.416,0.90276,0.3348,0.55523,0.5,2.5376
7.424,0.90985,0.33969,0.56989,0.50978,2.4868
7.432,0.91547,0.32502,0.58504,0.52981,2.4389
7.44,0.92108,0.31476,0.59531,0.53519,2.393
7.448,0.92548,0.35484,0.62023,0.5,2.35
7.456,0.92988,0.41007,0.64027,0.42473,2.3128
7.464,0.93306,0.46481,0.64027,0.37488,2.2786
7.472,0.93623,0.50978,0.62023,0.34506,2.2414
7.48,0.93819,0.54497,0.59531,0.33969,2.2043
7.488,0.94039,0.56989,0.58993,0.34506,2.1672
7.496,0.94161,0.58993,0.58016,0.34506,2.13
7.504,0.94283,0.60997,0.57527,0.34506,2.0929
7.512,0.94332,0.62512,0.56989,0.34506,2.0557
7.52,0.94381,0.64027,0.55523,0.3348,2.0186
7.528,0.94332,0.65494,0.54985,0.31965,1.9824
7.536,0.94307,0.66031,0.54497,0.31476,1.9462
7.544,0.94185,0.65494,0.54008,0.32991,1.9101
7.552,0.94063,0.62512,0.52493,0.34995,1.8749
7.56,0.93868,0.59531,0.52493,0.3651,1.8446
7.568,0.93697,0.54008,0.51515,0.3998,1.8172
7.576,0.93452,0.45992,0.5,0.45015,1.7869
7.584,0.93232,0.39492,0.49511,0.47507,1.7566
7.592,0.92964,0.36999,0.50978,0.435,1.7253
7.6,0.92719,0.35973,0.52493,0.39003,1.694
7.608,0.92426,0.34995,0.49511,0.36999,1.6628
7.616,0.92133,0.32991,0.47019,0.37977,1.6315
7.624,0.91815,0.31476,0.45503,0.39492,1.6022
7.632,0.91522,0.3001,0.45015,0.41984,1.5728
7.64,0.9118,0.28495,0.45015,0.435,1.5445
7.648,0.90838,0.27468,0.44477,0.44477,1.5171
7.656,0.90374,0.26002,0.45015,0.44477,1.4956
7.664,0.89934,0.26002,0.45503,0.43988,1.4761
7.672,0.89372,0.27468,0.45503,0.43011,1.4536
7.68,0.8881,0.28006,0.45992,0.41496,1.4291
7.688,0.88077,0.28006,0.45503,0.42473,1.4047
7.696,0.87344,0.25464,0.45503,0.45992,1.3812
7.704,0.86489,0.23998,0.46481,0.48485,1.3578
7.712,0.85634,0.21994,0.47507,0.50489,1.3343
7.72,0.84803,0.21457,0.48485,0.50978,1.3118
7.728,0.83997,0.24976,0.5,0.47019,1.2903
7.736,0.83191,0.27468,0.50978,0.42473,1.2688
7.744,0.82409,0.3001,0.51515,0.39492,1.2483
7.752,0.81505,0.32502,0.49511,0.37977,1.2297
7.76,0.80601,0.32991,0.48485,0.38514,1.217
7.768,0.79599,0.34506,0.47996,0.3998,1.2072
7.776,0.78622,0.33969,0.47996,0.41984,1.1935
7.784,0.77645,0.32991,0.47996,0.43011,1.1799
7.792,0.76692,0.32991,0.47996,0.435,1.1662
7.8,0.75739,0.32991,0.47996,0.43011,1.1564
7.808,0.74811,0.32991,0.49022,0.41984,1.1564
7.816,0.73833,0.33969,0.48485,0.41007,1.1701
7.824,0.72881,0.3348,0.47996,0.40469,1.2014
7.832,0.71903,0.32991,0.48485,0.40469,1.2551
7.84,0.70926,0.31476,0.48485,0.42473,1.3324
7.848,0.69973,0.28495,0.47996,0.45503,1.4311
7.856,0.6902,0.26491,0.47996,0.48485,1.5327
7.864,0.68116,0.22972,0.45992,0.52981,1.6393
7.872,0.67212,0.19501,0.45992,0.55523,1.7654
7.88,0.6643,0.22483,0.47996,0.50489,1.9022
7.888,0.65649,0.26491,0.49511,0.44477,2.042
7.896,0.64965,0.3001,0.47996,0.41007,2.1799
7.904,0.64305,0.32502,0.45503,0.38514,2.3138
7.912,0.63719,0.33969,0.44477,0.37977,2.4418
7.92,0.63132,0.34506,0.41984,0.3998,2.564
7.928,0.62619,0.32991,0.41496,0.41496,2.6794
7.936,0.62106,0.32991,0.41007,0.43011,2.7869
7.944,0.61691,0.32991,0.41496,0.43011,2.8876
7.952,0.61275,0.32991,0.41007,0.43011,2.9804
7.96,0.60933,0.3348,0.42473,0.42473,3.0508
7.968,0.60591,0.32991,0.41984,0.42473,3.1075
7.976,0.60298,0.31965,0.42473,0.43011,3.1662
7.984,0.60029,0.30987,0.41984,0.435,3.2199
7.992,0.59809,0.3001,0.43011,0.45015,3.2659
8,0.5959,0.28983,0.43011,0.46481,3.3011
8.008,0.59467,0.28495,0.435,0.47507,3.3255
8.016,0.59345,0.26491,0.43988,0.50978,3.3372
8.024,0.59272,0.23998,0.45015,0.52981,3.3372
8.032,0.59199,0.26979,0.45503,0.48485,3.3255
8.04,0.59076,0.30499,0.47996,0.41984,3.3011
8.048,0.58979,0.34995,0.47996,0.38514,3.2659
8.056,0.58808,0.37977,0.47019,0.34995,3.2229
8.064,0.58661,0.34995,0.53519,0.35484,3.174
8.072,0.58466,0.32502,0.64027,0.32991,3.1173
8.08,0.5827,0.565,0.73998,0.099707,3.0557
8.088,0.5805,0.76002,0.34995,-0.13539,2.9912
8.096,0.5783,0.62512,-0.38563,0.024438,2.9277
8.104,0.57635,0.68524,-0.50049,0.37977,2.8651
8.112,0.57464,0.50489,-0.50049,0.56989,2.8035
8.12,0.57269,0.3348,-0.085533,0.59531,2.7439
8.128,0.57097,0.31965,0.35484,0.51515,2.6862
8.136,0.5678,0.37488,0.51515,0.46481,2.6285
8.144,0.56487,0.39003,0.54497,0.45992,2.5728
8.152,0.56047,0.37488,0.54008,0.48485,2.522
8.16,0.55607,0.35484,0.54497,0.50978,2.4741
8.168,0.55021,0.31965,0.52004,0.54985,2.4233
8.176,0.54459,0.30499,0.50489,0.56012,2.3705
8.184,0.53775,0.35484,0.53519,0.48485,2.3157
8.192,0.53115,0.40469,0.55523,0.435,2.26
8.2,0.52455,0.43988,0.54985,0.3998,2.2053
8.208,0.5182,0.47507,0.54497,0.37488,2.1525
8.216,0.51161,0.48485,0.54985,0.37977,2.1007
8.224,0.50525,0.48485,0.54497,0.3998,2.0489
8.232,0.49743,0.49022,0.54497,0.39492,1.998
8.24,0.48986,0.49511,0.52493,0.3998,1.9482
8.248,0.48107,0.52004,0.52004,0.38514,1.8983
8.256,0.47227,0.54497,0.52004,0.37488,1.8553
8.264,0.46421,0.56012,0.51515,0.36999,1.8172
8.272,0.45614,0.565,0.50489,0.37977,1.7761
8.28,0.44833,0.58504,0.5,0.38514,1.7351
8.288,0.44075,0.61486,0.49511,0.36999,1.694
8.296,0.4322,0.6349,0.5,0.37977,1.653
8.304,0.42365,0.64027,0.50489,0.39492,1.6129
8.312,0.41412,0.6349,0.50978,0.41007,1.5758
8.32,0.40459,0.68035,0.52981,0.35484,1.5406
8.328,0.39409,0.70528,0.54985,0.3001,1.5073
8.336,0.38383,0.71505,0.55523,0.27468,1.4751
8.344,0.37308,0.71994,0.54008,0.26491,1.4438
8.352,0.36257,0.70528,0.49511,0.26002,1.4184
8.36,0.35304,0.6652,0.47507,0.26979,1.3959
8.368,0.34351,0.58504,0.45992,0.30987,1.3695
8.376,0.33496,0.50978,0.45503,0.32502,1.3421
8.384,0.32666,0.44477,0.45015,0.35973,1.3157
8.392,0.31835,0.39003,0.44477,0.37488,1.2903
8.4,0.31029,0.35484,0.45015,0.40469,1.2659
8.408,0.30247,0.31476,0.45015,0.42473,1.2414
8.416,0.29465,0.26491,0.44477,0.45015,1.218
8.424,0.28805,0.22483,0.45992,0.46481,1.1955
8.432,0.28146,0.19501,0.46481,0.48485,1.174
8.44,0.27584,0.17986,0.47507,0.51515,1.1525
8.448,0.27046,0.17498,0.47019,0.52981,1.132
8.456,0.26606,0.20968,0.52493,0.47507,1.1183
8.464,0.26191,0.24487,0.53519,0.42473,1.1075
8.472,0.25873,0.28006,0.52004,0.3998,1.0929
8.48,0.25556,0.30499,0.5,0.39003,1.0753
8.488,0.25312,0.31965,0.47996,0.39003,1.0567
8.496,0.25067,0.31965,0.47507,0.39492,1.0391
8.504,0.24896,0.31476,0.47996,0.41496,1.0215
8.512,0.24725,0.30987,0.47507,0.41496,1.0283
8.52,0.24652,0.30987,0.47996,0.43988,1.0479
8.528,0.24579,0.30987,0.48485,0.43988,1.0518
8.536,0.24579,0.30499,0.49511,0.45503,1.0489
8.544,0.24579,0.30987,0.5,0.45503,1.042
8.552,0.24627,0.3001,0.50489,0.46481,1.0381
8.56,0.24701,0.29472,0.51515,0.47507,1.0352
8.568,0.24798,0.28006,0.52493,0.49511,1.0283
8.576,0.24896,0.25464,0.54497,0.49511,1.0205
8.584,0.25067,0.20479,0.61486,0.5,1.0156
8.592,0.25263,0.18964,0.72532,0.42473,1.0147
8.6,0.25531,0.58993,0.77517,0.12952,1.0225
8.608,0.258,0.73509,0.3348,0.0043988,1.044
8.616,0.26215,0.49511,-0.31036,0.31476,1.0802
8.624,0.26655,0.41007,-0.50049,0.60508,1.1339
8.632,0.27217,0.26002,-0.38074,0.71505,1.2063
8.64,0.27804,0.25464,0.12463,0.58016,1.2952
8.648,0.28561,0.31965,0.40469,0.5,1.3978
8.656,0.29318,0.35484,0.47996,0.46481,1.4946
8.664,0.30222,0.3651,0.49511,0.45992,1.5894
8.672,0.31151,0.3651,0.5,0.45503,1.697
8.68,0.32079,0.36999,0.50978,0.45992,1.8084
8.688,0.33032,0.36999,0.5,0.45015,1.9198
8.696,0.34009,0.37488,0.49511,0.45992,2.0283
8.704,0.34987,0.37977,0.49511,0.45503,2.132
8.712,0.36086,0.37488,0.49022,0.45015,2.2297
8.72,0.3721,0.37977,0.5,0.45503,2.3216
8.728,0.38431,0.39492,0.50978,0.43988,2.4066
8.736,0.39677,0.41007,0.51515,0.43011,2.4858
8.744,0.4085,0.41496,0.52004,0.42473,2.5562
8.752,0.42047,0.42473,0.51515,0.435,2.61
8.76,0.43171,0.43988,0.52004,0.44477,2.652
8.768,0.4432,0.45015,0.51515,0.47019,2.695
8.776,0.45443,0.49022,0.52981,0.41984,2.7341
8.784,0.46592,0.55523,0.57527,0.35973,2.7674
8.792,0.47716,0.60508,0.58016,0.31476,2.7928
8.8,0.48864,0.64027,0.565,0.29472,2.8094
8.808,0.49939,0.68035,0.53519,0.28006,2.8162
8.816,0.51038,0.70039,0.51515,0.28983,2.8133
8.824,0.52065,0.71994,0.50978,0.28495,2.7996
8.832,0.53115,0.73021,0.5,0.28495,2.7761
8.84,0.5397,0.72532,0.50489,0.28983,2.7439
8.848,0.54825,0.70528,0.50978,0.28006,2.7038
8.856,0.55534,0.65494,0.51515,0.31476,2.6618
8.864,0.56242,0.59531,0.50978,0.3348,2.6188
8.872,0.56926,0.53519,0.52004,0.35973,2.5709
8.88,0.57611,0.47019,0.52493,0.36999,2.521
8.888,0.5827,0.41007,0.50489,0.39003,2.4721
8.896,0.5893,0.34995,0.50489,0.42473,2.4252
8.904,0.59492,0.29472,0.5,0.45503,2.3793
8.912,0.60054,0.24976,0.49511,0.47996,2.3353
8.92,0.60542,0.20479,0.5,0.51515,2.2933
8.928,0.61031,0.18964,0.5,0.52493,2.2522
8.936,0.61593,0.21457,0.52493,0.47019,2.2111
8.944,0.62155,0.22972,0.54985,0.43988,2.1701
8.952,0.62815,0.25464,0.54497,0.41496,2.1339
8.96,0.63474,0.28006,0.52981,0.40469,2.0997
8.968,0.64232,0.28495,0.50978,0.41496,2.0645
8.976,0.64989,0.27468,0.49511,0.435,2.0293
8.984,0.6582,0.25464,0.48485,0.45992,1.9932
8.992,0.66675,0.24976,0.49022,0.45503,1.956
9,0.67481,0.24487,0.48485,0.45503,1.9189
9.008,0.68312,0.23998,0.5,0.45992,1.8827
9.016,0.69094,0.24487,0.49511,0.45992,1.8465
9.024,0.69875,0.23998,0.49511,0.46481,1.8104
9.032,0.70657,0.24487,0.47996,0.47507,1.7752
9.04,0.71463,0.2346,0.47507,0.50489,1.741
9.048,0.72245,0.20968,0.47019,0.52981,1.7077
9.056,0.73052,0.18964,0.47507,0.55523,1.6804
9.064,0.7376,0.20479,0.49022,0.52004,1.6559
9.072,0.74469,0.2346,0.51515,0.46481,1.6285
9.08,0.75104,0.27468,0.52493,0.43011,1.6012
9.088,0.75763,0.29472,0.52004,0.41007,1.5748
9.096,0.76399,0.30987,0.50489,0.41007,1.5484
9.104,0.77034,0.31965,0.50489,0.41984,1.523
9.112,0.77669,0.31476,0.5,0.42473,1.4995
9.12,0.78329,0.32502,0.48485,0.435,1.478
9.128,0.79013,0.32991,0.47507,0.435,1.4604
9.136,0.79721,0.31476,0.47019,0.43988,1.4487
9.144,0.8043,0.30987,0.46481,0.45015,1.4457
9.152,0.81139,0.29472,0.45503,0.45503,1.4506
9.16,0.81725,0.28495,0.45503,0.46481,1.4643
9.168,0.82311,0.26979,0.44477,0.48485,1.4897
9.176,0.828,0.26002,0.45503,0.49511,1.5269
9.184,0.83313,0.22972,0.44477,0.52493,1.5748
9.192,0.83826,0.18964,0.45015,0.55523,1.6305
9.2,0.84339,0.21457,0.47019,0.52981,1.6931
9.208,0.84852,0.25464,0.5,0.46481,1.7586
9.216,0.8539,0.30499,0.5,0.41007,1.824
9.224,0.85829,0.30987,0.52004,0.39003,1.8895
9.232,0.86269,0.28006,0.59531,0.37977,1.9521
9.24,0.86636,0.35484,0.70039,0.26491,2.0117
9.248,0.87027,0.69013,0.73998,-0.025415,2.0655
9.256,0.87393,0.79032,0.054741,-0.11535,2.1085
9.264,0.8776,0.70528,-0.50049,0.22483,2.1437
9.272,0.88102,0.6002,-0.50049,0.53519,2.1789
9.28,0.88444,0.31965,-0.50049,0.70039,2.2102
9.288,0.88688,0.26002,0.11975,0.60508,2.2366
9.296,0.88932,0.28495,0.41984,0.53519,2.2561
9.304,0.89079,0.32502,0.50489,0.5,2.2678
9.312,0.8925,0.31965,0.52493,0.50489,2.2727
9.32,0.89323,0.30499,0.52493,0.52493,2.2698
9.328,0.89421,0.26491,0.54008,0.565,2.2581
9.336,0.89445,0.26002,0.54985,0.57527,2.2385
9.344,0.8947,0.28983,0.58016,0.51515,2.2131
9.352,0.89421,0.3348,0.59531,0.45503,2.1857
9.36,0.89372,0.36999,0.6002,0.41984,2.1564
9.368,0.89226,0.41007,0.59531,0.39003,2.1212
9.376,0.89103,0.42473,0.58993,0.39492,2.0831
9.384,0.88908,0.435,0.58504,0.40469,2.045
9.392,0.88737,0.43988,0.58504,0.41496,2.0078
9.4,0.88493,0.435,0.56989,0.41984,1.9726
9.408,0.88273,0.45015,0.56989,0.41984,1.9394
9.416,0.88004,0.47019,0.56012,0.41496,1.9081
9.424,0.8776,0.49022,0.54985,0.3998,1.8788
9.432,0.87466,0.51515,0.54985,0.39003,1.8504
9.44,0.87198,0.54497,0.54497,0.37977,1.8221
9.448,0.86929,0.55523,0.54985,0.38514,1.7937
9.456,0.86685,0.565,0.55523,0.39492,1.7703
9.464,0.86465,0.56012,0.565,0.41984,1.7488
9.472,0.86245,0.56989,0.57527,0.42473,1.7243
9.48,0.86049,0.62023,0.60508,0.34995,1.6979
9.488,0.85854,0.64516,0.60508,0.30499,1.6706
9.496,0.85683,0.66031,0.58993,0.29472,1.6442
9.504,0.85512,0.65005,0.56989,0.28495,1.6178
9.512,0.85341,0.62023,0.54497,0.29472,1.5914
9.52,0.8517,0.58504,0.52493,0.30987,1.566
9.528,0.85023,0.53519,0.50489,0.32991,1.5406
9.536,0.84877,0.47507,0.5,0.34506,1.5142
9.544,0.8473,0.41496,0.47996,0.36999,1.4888
9.552,0.84583,0.35973,0.45992,0.39003,1.4682
9.56,0.84437,0.31965,0.45503,0.40469,1.4506
9.568,0.8429,0.29472,0.45015,0.41496,1.4301
9.576,0.84168,0.27468,0.45503,0.42473,1.4086
9.584,0.84046,0.23998,0.44477,0.45015,1.3881
9.592,0.83899,0.21457,0.45503,0.47507,1.3675
9.6,0.83753,0.18475,0.45503,0.51515,1.348
9.608,0.83508,0.16471,0.47019,0.53519,1.3294
9.616,0.83264,0.19501,0.5,0.50489,1.3109
9.624,0.82946,0.22972,0.50978,0.46481,1.2933
9.632,0.82629,0.27468,0.50978,0.42473,1.2766
9.64,0.82336,0.28983,0.50489,0.40469,1.261
9.648,0.82067,0.30987,0.47996,0.3998,1.2473
9.656,0.81798,0.30987,0.47996,0.40469,1.2395
9.664,0.81554,0.3001,0.46481,0.41984,1.2336
9.672,0.81163,0.29472,0.45992,0.435,1.2248
9.68,0.80796,0.29472,0.45503,0.43011,1.2151
9.688,0.80308,0.3001,0.45503,0.41984,1.2043
9.696,0.79844,0.3001,0.45992,0.43011,1.1935
9.704,0.79331,0.3001,0.45992,0.42473,1.1828
9.712,0.78817,0.30499,0.46481,0.43011,1.172
9.72,0.7828,0.29472,0.47507,0.435,1.1603
9.728,0.77742,0.26491,0.49022,0.45503,1.1505
9.736,0.77132,0.19501,0.60997,0.48485,1.1417
9.744,0.76545,0.18475,0.77517,0.36999,1.1339
9.752,0.75886,0.63001,0.85533,0.034702,1.132
9.76,0.7525,0.70039,-0.010264,-0.070381,1.1369
9.768,0.74542,0.63001,-0.50049,0.23998,1.1466
9.776,0.73858,0.72532,-0.50049,0.3998,1.1672
9.784,0.73125,0.44477,-0.29081,0.50489,1.2014
9.792,0.72416,0.28006,0.26002,0.54985,1.2522
9.8,0.71781,0.3001,0.49511,0.50978,1.3196
9.808,0.71146,0.32991,0.54497,0.50978,1.4037
9.816,0.70559,0.33969,0.54497,0.51515,1.4995
9.824,0.69998,0.32991,0.54985,0.52981,1.6031
9.832,0.69484,0.33969,0.52981,0.50978,1.7126
9.84,0.68996,0.34995,0.52981,0.50489,1.8221
9.848,0.68532,0.35484,0.52493,0.47019,1.9169
9.856,0.68067,0.36999,0.53519,0.45015,2.002
9.864,0.67677,0.37488,0.53519,0.45015,2.0938
9.872,0.6731,0.34995,0.52981,0.47507,2.1867
9.88,0.66992,0.32991,0.54985,0.49511,2.2766
9.888,0.66675,0.32502,0.565,0.5,2.3627
9.896,0.66357,0.38514,0.59531,0.435,2.4418
9.904,0.6604,0.43988,0.60997,0.39003,2.5152
9.912,0.65722,0.48485,0.60508,0.34995,2.5816
9.92,0.65429,0.52004,0.58993,0.34506,2.6403
9.928,0.6516,0.55523,0.58016,0.33969,2.6921
9.936,0.64916,0.58504,0.56989,0.34506,2.7351
9.944,0.64696,0.60508,0.565,0.33969,2.7703
9.952,0.64476,0.62512,0.55523,0.34506,2.7918
9.96,0.64232,0.64027,0.54497,0.3348,2.8035
9.968,0.63987,0.64516,0.52493,0.34995,2.8123
9.976,0.63719,0.65494,0.52493,0.34995,2.8133
9.984,0.63474,0.6652,0.50489,0.34506,2.8045
9.992,0.63132,0.66031,0.5,0.34995,2.7859
10,0.62815,0.6349,0.49022,0.35484,2.7586
10.008,0.62424,0.59531,0.5,0.3651,2.7234
10.016,0.62057,0.53519,0.50978,0.39492,2.6813
10.024,0.61617,0.46481,0.52493,0.41496,2.6364
10.032,0.61202,0.42473,0.52981,0.40469,2.5885
10.04,0.60713,0.39003,0.54985,0.36999,2.5406
10.048,0.60249,0.35484,0.56012,0.3651,2.4966
10.056,0.59638,0.32991,0.54985,0.34995,2.4545
10.064,0.59052,0.30499,0.52004,0.36999,2.4106
10.072,0.58344,0.27468,0.5,0.39492,2.3666
10.08,0.57635,0.26002,0.49511,0.435,2.3245
10.088,0.5678,0.25464,0.49022,0.45015,2.2835
10.096,0.55949,0.24487,0.47996,0.45992,2.2434
10.104,0.55021,0.23998,0.47996,0.45992,2.2043
10.112,0.54092,0.23998,0.47019,0.47019,2.1652
10.12,0.53237,0.22972,0.47019,0.48485,2.1261
10.128,0.52382,0.23998,0.46481,0.47507,2.088
10.136,0.516,0.22483,0.45992,0.48485,2.0508
10.144,0.50818,0.17986,0.565,0.49022,2.0127
10.152,0.50086,0.28006,0.65005,0.35484,1.9795
10.16,0.49377,0.69501,0.68035,0.034702,1.9492
10.168,0.48693,0.76002,0.054741,-0.035191,1.9159
10.176,0.48033,0.49022,-0.50049,0.43011,1.8827
10.184,0.47447,0.28006,-0.50049,0.73509,1.8495
10.192,0.4686,0.13978,-0.17546,0.79032,1.8162
10.2,0.46347,0.24487,0.29472,0.56012,1.783
10.208,0.45834,0.33969,0.5,0.435,1.7507
10.216,0.4537,0.37977,0.52981,0.40469,1.7175
10.224,0.4493,0.3651,0.53519,0.43011,1.6852
10.232,0.44515,0.34995,0.52981,0.45503,1.654
10.24,0.44124,0.3348,0.53519,0.47507,1.6237
10.248,0.43904,0.32991,0.52004,0.48485,1.5992
10.256,0.43684,0.3348,0.51515,0.47507,1.5787
10.264,0.43611,0.3348,0.5,0.48485,1.5572
10.272,0.43562,0.3348,0.5,0.47996,1.5376
10.28,0.43611,0.34995,0.52493,0.49022,1.523
10.288,0.43684,0.3651,0.52981,0.46481,1.5171
10.296,0.43855,0.34506,0.53519,0.48485,1.522
10.304,0.44051,0.35973,0.54985,0.47507,1.5406
10.312,0.44442,0.41007,0.56012,0.41984,1.5728
10.32,0.44833,0.43988,0.56989,0.36999,1.6168
10.328,0.45395,0.49022,0.565,0.32502,1.6716
10.336,0.45957,0.54008,0.54008,0.3001,1.7341
10.344,0.46494,0.565,0.50978,0.29472,1.8016
10.352,0.47056,0.58993,0.48485,0.29472,1.8622
10.36,0.47593,0.59531,0.49022,0.31965,1.9189
10.368,0.48155,0.60997,0.5,0.34506,1.9824
10.376,0.48815,0.60508,0.49022,0.34995,2.0469
10.384,0.49499,0.58993,0.47996,0.3651,2.1085
10.392,0.50281,0.58016,0.48485,0.3651,2.1672
10.4,0.51063,0.56012,0.49511,0.37977,2.2209
10.408,0.51869,0.52981,0.5,0.39003,2.2688
10.416,0.527,0.5,0.5,0.38514,2.3118
10.424,0.5353,0.44477,0.5,0.40469,2.348
10.432,0.54386,0.37977,0.50489,0.435,2.3763
10.44,0.55118,0.30987,0.51515,0.47019,2.3969
10.448,0.55876,0.27468,0.52493,0.48485,2.4066
10.456,0.5656,0.26491,0.56012,0.45503,2.4086
10.464,0.57244,0.24487,0.56989,0.43988,2.4047
10.472,0.57953,0.25464,0.565,0.41984,2.393
10.48,0.58686,0.26002,0.54985,0.43011,2.3734
10.488,0.59419,0.26002,0.52493,0.43988,2.3451
10.496,0.60176,0.26002,0.50978,0.45992,2.3099
10.504,0.60811,0.24976,0.50489,0.48485,2.2688
10.512,0.61446,0.23998,0.5,0.50489,2.2239
10.52,0.61984,0.23998,0.49511,0.50978,2.176
10.528,0.62521,0.23998,0.5,0.50978,2.1271
10.536,0.63059,0.23998,0.49022,0.50978,2.0802
10.544,0.63621,0.23998,0.5,0.50978,2.0362
10.552,0.64183,0.26002,0.49022,0.48485,1.999
10.56,0.64769,0.26002,0.5,0.47996,1.9873
10.568,0.65355,0.26002,0.5,0.48485,1.9853
10.576,0.65942,0.26491,0.50489,0.49022,1.9668
10.584,0.66528,0.24976,0.51515,0.5,1.9404
10.592,0.67139,0.24487,0.52493,0.50978,1.9101
10.6,0.67628,0.26491,0.54985,0.48485,1.8768
10.608,0.68141,0.26979,0.56989,0.45503,1.8436
10.616,0.68581,0.28495,0.565,0.41984,1.8094
10.624,0.6902,0.30499,0.56989,0.41007,1.7761
10.632,0.69533,0.30987,0.54985,0.41496,1.7439
10.64,0.70071,0.30499,0.53519,0.43011,1.7116
10.648,0.70657,0.28983,0.50978,0.45503,1.6843
10.656,0.71244,0.27468,0.5,0.48485,1.6598
10.664,0.71781,0.26979,0.48485,0.50489,1.6325
10.672,0.72319,0.28006,0.47996,0.50489,1.6051
10.68,0.72832,0.28006,0.47019,0.49022,1.5787
10.688,0.73345,0.28006,0.46481,0.48485,1.5552
10.696,0.74004,0.28495,0.47507,0.48485,1.5386
10.704,0.74664,0.26491,0.47996,0.49022,1.5308
10.712,0.7547,0.26491,0.47996,0.47507,1.5347
10.72,0.76301,0.24487,0.52493,0.47996,1.5513
10.728,0.77254,0.21457,0.62023,0.43988,1.5826
10.736,0.78231,0.38514,0.74536,0.26002,1.6266
10.744,0.79282,0.69501,0.54985,0.0043988,1.6823
10.752,0.80332,0.61486,-0.1002,0.064516,1.737
10.76,0.81285,0.62512,-0.50049,0.39003,1.7937
10.768,0.82238,0.44477,-0.50049,0.62512,1.8592
10.776,0.83093,0.23998,-0.26051,0.70039,1.9257
10.784,0.83973,0.26979,0.26979,0.52493,1.9902
10.792,0.84828,0.32502,0.49022,0.45992,2.0499
10.8,0.85707,0.35484,0.52493,0.43988,2.1007
10.808,0.86562,0.34995,0.52004,0.43988,2.1437
10.816,0.87418,0.35484,0.51515,0.45503,2.1769
10.824,0.88102,0.34995,0.52493,0.46481,2.1984
10.832,0.88786,0.35484,0.52004,0.45992,2.2092
10.84,0.89323,0.35484,0.52981,0.46481,2.2082
10.848,0.89861,0.35484,0.52493,0.45503,2.1984
10.856,0.90398,0.35484,0.52493,0.43988,2.1818
10.864,0.9096,0.3651,0.52981,0.435,2.1554
10.872,0.91547,0.37488,0.53519,0.43988,2.1212
10.88,0.92133,0.37977,0.54008,0.41984,2.0811
10.888,0.92695,0.39492,0.52981,0.41496,2.0381
10.896,0.93257,0.3998,0.53519,0.43011,1.9941
10.904,0.9377,0.41496,0.54008,0.41984,1.9521
10.912,0.94307,0.45992,0.54985,0.38514,1.914
10.92,0.94772,0.50489,0.56989,0.34506,1.8788
10.928,0.95236,0.54497,0.55523,0.31965,1.8475
10.936,0.95651,0.58016,0.54985,0.31476,1.8182
10.944,0.96066,0.60508,0.54497,0.31965,1.7908
10.952,0.96531,0.61486,0.51515,0.3348,1.7683
10.96,0.96995,0.61486,0.50978,0.34506,1.7488
10.968,0.97484,0.61486,0.50489,0.35484,1.7273
10.976,0.97997,0.60997,0.50489,0.3651,1.7058
10.984,0.98436,0.60508,0.5,0.35484,1.6833
10.992,0.98876,0.56989,0.49511,0.3651,1.6618
11,0.99267,0.54008,0.47996,0.36999,1.6403
11.008,0.99658,0.50978,0.47996,0.36999,1.6188
11.016,0.99829,0.47019,0.47019,0.36999,1.5973
11.024,1,0.43011,0.47996,0.37488,1.5758
11.032,1,0.39003,0.47019,0.37977,1.5543
11.04,1,0.34506,0.47019,0.38514,1.5318
11.048,1,0.30499,0.45992,0.41496,1.5132
11.056,1,0.28495,0.45992,0.41984,1.4966
11.064,1,0.25464,0.46481,0.45503,1.477
11.072,1,0.22972,0.49022,0.47507,1.4565
11.08,1,0.25464,0.51515,0.45503,1.436
11.088,1,0.26002,0.52493,0.435,1.4154
11.096,1,0.26979,0.52493,0.41984,1.3959
11.104,1,0.28006,0.52004,0.40469,1.3763
11.112,1,0.28495,0.49511,0.41984,1.3568
11.12,1,0.28983,0.47996,0.43011,1.3382
11.128,1,0.29472,0.46481,0.44477,1.3196
11.136,1,0.27468,0.45992,0.45503,1.3021
11.144,1,0.28495,0.47507,0.43988,1.2854
11.152,1,0.28006,0.47996,0.43988,1.2737
11.16,0.99218,0.28006,0.47507,0.43988,1.2659
11.168,0.98436,0.28495,0.47507,0.43988,1.2561
11.176,0.97215,0.30499,0.47996,0.435,1.2444
11.184,0.96018,0.30987,0.47507,0.41984,1.2326
11.192,0.94478,0.31965,0.47996,0.41984,1.2209
11.2,0.92964,0.3348,0.47996,0.41007,1.2102
11.208,0.91156,0.32991,0.47996,0.42473,1.1994
11.216,0.89372,0.32502,0.47507,0.43988,1.1887
11.224,0.87418,0.30987,0.48485,0.45503,1.1779
11.232,0.85463,0.28983,0.49511,0.47019,1.1681
11.24,0.83655,0.28495,0.50978,0.45503,1.1613
11.248,0.81847,0.30987,0.54497,0.43011,1.1623
11.256,0.80161,0.32991,0.54985,0.3998,1.1711
11.264,0.785,0.35484,0.52493,0.38514,1.1877
11.272,0.7679,0.3651,0.52004,0.38514,1.216
11.28,0.75079,0.34995,0.49511,0.3998,1.2581
11.288,0.73345,0.32991,0.47996,0.435,1.3187
11.296,0.71634,0.31476,0.47996,0.45992,1.3959
11.304,0.70071,0.32502,0.47507,0.45503,1.4878
11.312,0.68532,0.32991,0.45503,0.45503,1.5914
11.32,0.67139,0.32502,0.45015,0.43988,1.7019
11.328,0.65746,0.32502,0.45015,0.43011,1.8162
11.336,0.64403,0.31476,0.45503,0.42473,1.9296
11.344,0.63083,0.30987,0.47019,0.43988,2.0401
11.352,0.61813,0.31476,0.46481,0.43011,2.132
11.36,0.60542,0.30987,0.47019,0.44477,2.2121
11.368,0.5937,0.29472,0.45503,0.45503,2.2962
11.376,0.58197,0.28006,0.45503,0.45992,2.3783
11.384,0.57122,0.24487,0.45015,0.50489,2.4555
11.392,0.56071,0.21457,0.45503,0.53519,2.5269
11.4,0.55216,0.25464,0.49511,0.47507,2.5904
11.408,0.54361,0.30499,0.52004,0.41496,2.6452
11.416,0.53653,0.34506,0.52493,0.38514,2.6931
11.424,0.52944,0.3651,0.49511,0.35973,2.7312
11.432,0.52284,0.37977,0.48485,0.37488,2.7595
11.44,0.51625,0.37488,0.47019,0.39003,2.7761
11.448,0.50989,0.36999,0.46481,0.41984,2.7801
11.456,0.50354,0.35973,0.45503,0.41496,2.7742
11.464,0.49719,0.35484,0.43988,0.41984,2.7605
11.472,0.49108,0.34995,0.44477,0.43988,2.737
11.48,0.48497,0.34506,0.435,0.43988,2.7058
11.488,0.47887,0.34995,0.43011,0.43988,2.6676
11.496,0.47276,0.33969,0.43011,0.43988,2.6246
11.504,0.46665,0.34506,0.435,0.43988,2.5767
11.512,0.46079,0.31476,0.43011,0.44477,2.5269
11.52,0.45492,0.30499,0.42473,0.47019,2.477
11.528,0.44906,0.30987,0.42473,0.46481,2.4282
11.536,0.4432,0.28495,0.43011,0.47996,2.3803
11.544,0.43733,0.26491,0.43011,0.50489,2.3353
11.552,0.43171,0.28495,0.44477,0.50978,2.2952
11.56,0.42658,0.31965,0.47507,0.435,2.2581
11.568,0.4217,0.35973,0.47996,0.39492,2.219
11.576,0.41705,0.37977,0.47019,0.38514,2.1789
11.584,0.41241,0.38514,0.45503,0.37488,2.1388
11.592,0.40753,0.39003,0.45015,0.38514,2.0987
11.6,0.40264,0.37488,0.43988,0.42473,2.0596
11.608,0.39775,0.36999,0.435,0.43011,2.0225
11.616,0.39311,0.35973,0.43988,0.45503,1.9853
11.624,0.3892,0.35484,0.43011,0.45015,1.9482
11.632,0.38529,0.35484,0.435,0.45503,1.911
11.64,0.38212,0.3651,0.435,0.435,1.8739
11.648,0.37894,0.34506,0.47019,0.43988,1.8416
11.656,0.37625,0.3001,0.565,0.42473,1.8123
11.664,0.37381,0.41496,0.6652,0.30499,1.7801
11.672,0.37185,0.73998,0.68524,0.0043988,1.7478
11.68,0.3699,0.75513,-0.0053763,-0.045455,1.7165
11.688,0.36941,0.57527,-0.50049,0.37488,1.6862
11.696,0.36892,0.39003,-0.50049,0.70528,1.6579
11.704,0.36941,0.18964,-0.2957,0.8001,1.6315
11.712,0.37014,0.26979,0.22972,0.6002,1.6061
11.72,0.37161,0.3651,0.48485,0.47019,1.5816
11.728,0.37308,0.43011,0.54985,0.41007,1.5591
11.736,0.37527,0.45015,0.54985,0.39003,1.5376
11.744,0.37747,0.45992,0.52981,0.39003,1.521
11.752,0.38065,0.45015,0.51515,0.41007,1.5064
11.76,0.38383,0.43988,0.50978,0.43988,1.4897
11.768,0.38774,0.42473,0.52493,0.47019,1.4712
11.776,0.39189,0.43011,0.52981,0.47996,1.4526
11.784,0.39604,0.43988,0.51515,0.45503,1.434
11.792,0.4002,0.435,0.5,0.43011,1.4154
11.8,0.40459,0.47019,0.50978,0.43988,1.3978
11.808,0.40899,0.47507,0.51515,0.435,1.3803
11.816,0.41461,0.47019,0.49511,0.41984,1.3617
11.824,0.42047,0.47996,0.47507,0.40469,1.3431
11.832,0.42756,0.47507,0.45992,0.41984,1.3245
11.84,0.43464,0.49022,0.47996,0.45503,1.3069
11.848,0.44271,0.49511,0.47996,0.45992,1.2933
11.856,0.45077,0.50489,0.49511,0.45503,1.2825
11.864,0.45957,0.56012,0.51515,0.39492,1.2678
11.872,0.46836,0.6002,0.54497,0.3348,1.2512
11.88,0.47642,0.65005,0.565,0.31476,1.2346
11.888,0.48473,0.68035,0.56989,0.28495,1.217
11.896,0.49255,0.71994,0.54008,0.24976,1.2004
11.904,0.50061,0.73021,0.52493,0.26491,1.1838
11.912,0.50965,0.73998,0.49511,0.28495,1.1672
11.92,0.51893,0.71505,0.47507,0.30987,1.1515
11.928,0.52871,0.69501,0.45503,0.31965,1.1359
11.936,0.53872,0.6652,0.45503,0.35484,1.1202
11.944,0.54776,0.6349,0.43988,0.33969,1.1105
11.952,0.55705,0.59531,0.435,0.34506,1.1046
11.96,0.5656,0.54497,0.44477,0.35484,1.0968
11.968,0.57415,0.47507,0.435,0.37977,1.087
11.976,0.58295,0.42473,0.43011,0.3998,1.0772
11.984,0.59199,0.36999,0.43988,0.43011,1.0665
11.992,0.60127,0.32502,0.45015,0.45992,1.0567
12,0.61055,0.28983,0.45503,0.47019,1.0489
12.008,0.61959,0.24976,0.46481,0.48485,1.0411
12.016,0.62863,0.21994,0.47996,0.50978,1.0342
12.024,0.63719,0.23998,0.52004,0.47507,1.0274
12.032,0.64598,0.24976,0.54497,0.43011,1.0205
12.04,0.65282,0.28006,0.56012,0.41007,1.0137
12.048,0.65991,0.30499,0.53519,0.38514,1.0108
12.056,0.66528,0.31476,0.52493,0.3998,1.0117
12.064,0.6709,0.32502,0.50978,0.41496,1.0088
12.072,0.6753,0.30987,0.5,0.435,1.0049
12.08,0.6797,0.30499,0.49511,0.45503,1.001
12.088,0.68312,0.30987,0.49511,0.43988,0.99609
12.096,0.68654,0.30987,0.5,0.43011,0.99218
12.104,0.68874,0.30987,0.51515,0.43988,0.98827
12.112,0.69094,0.30987,0.50489,0.42473,0.98436
12.12,0.69216,0.30987,0.50489,0.41984,0.98143
12.128,0.69338,0.31965,0.5,0.43011,0.97752
12.136,0.69387,0.32502,0.49511,0.43988,0.97458
12.144,0.6946,0.30987,0.5,0.47019,0.97556
12.152,0.6946,0.28983,0.51515,0.5,0.97849
12.16,0.6946,0.26979,0.52493,0.52004,0.98045
12.168,0.6946,0.28495,0.54497,0.5,0.98436
12.176,0.69484,0.30987,0.56989,0.45015,0.99707
12.184,0.69509,0.32991,0.56989,0.41496,1.0235
12.192,0.69533,0.34995,0.565,0.39492,1.0684
12.2,0.69558,0.35973,0.53519,0.39492,1.1369
12.208,0.69607,0.35484,0.52004,0.41007,1.2307
12.216,0.6968,0.34506,0.5,0.435,1.35
12.224,0.69753,0.3348,0.49022,0.43988,1.4907
12.232,0.69949,0.32991,0.49511,0.45015,1.6481
12.24,0.70169,0.32991,0.49511,0.43988,1.8152
12.248,0.70486,0.32991,0.49511,0.43011,1.9638
12.256,0.70828,0.31476,0.48485,0.42473,2.1017
12.264,0.7117,0.31476,0.49511,0.45015,2.2542
12.272,0.71512,0.31476,0.48485,0.43988,2.4096
12.28,0.71854,0.3001,0.47996,0.45503,2.5611
12.288,0.72221,0.28006,0.46481,0.47507,2.7058
12.296,0.72661,0.26491,0.45503,0.50489,2.8426
12.304,0.731,0.2346,0.45992,0.54008,2.9717
12.312,0.73613,0.21994,0.46481,0.55523,3.0929
12.32,0.74127,0.26491,0.49511,0.47996,3.2033
12.328,0.74688,0.31476,0.5,0.42473,3.303
12.336,0.75275,0.34506,0.5,0.39492,3.392
12.344,0.75861,0.35973,0.49511,0.38514,3.4565
12.352,0.76472,0.32991,0.54497,0.39003,3.5064
12.36,0.7701,0.31476,0.6349,0.34995,3.5582
12.368,0.77547,0.54497,0.73509,0.13978,3.6051
12.376,0.78036,0.79032,0.41007,-0.075269,3.6432
12.384,0.78524,0.6349,-0.23558,0.094819,3.6706
12.392,0.79013,0.58993,-0.50049,0.48485,3.6862
12.4,0.79502,0.3651,-0.50049,0.73509,3.6882
12.408,0.79966,0.25464,-0.085533,0.75024,3.6755
12.416,0.80454,0.29472,0.35973,0.565,3.65
12.424,0.8087,0.35484,0.51515,0.49511,3.6119
12.432,0.8131,0.37977,0.53519,0.48485,3.563
12.44,0.817,0.35973,0.54985,0.49511,3.5073
12.448,0.82116,0.32991,0.54985,0.52004,3.4477
12.456,0.82531,0.32502,0.565,0.52981,3.3861
12.464,0.82946,0.36999,0.58993,0.47507,3.3206
12.472,0.83362,0.39492,0.60508,0.435,3.2532
12.48,0.83802,0.41984,0.6002,0.41007,3.1857
12.488,0.84193,0.44477,0.59531,0.38514,3.1202
12.496,0.84583,0.45015,0.58504,0.41007,3.0557
12.504,0.84925,0.44477,0.57527,0.435,2.9932
12.512,0.85292,0.43988,0.58016,0.44477,2.9326
12.52,0.85561,0.45015,0.56989,0.43988,2.8729
12.528,0.85829,0.46481,0.57527,0.42473,2.8143
12.536,0.86025,0.48485,0.56989,0.41496,2.7576
12.544,0.86245,0.50978,0.55523,0.39492,2.7058
12.552,0.86465,0.52493,0.54008,0.39003,2.6569
12.56,0.86685,0.54985,0.53519,0.37977,2.6061
12.568,0.8688,0.58993,0.52004,0.3651,2.5543
12.576,0.871,0.61486,0.51515,0.35484,2.5024
12.584,0.87247,0.63001,0.50978,0.36999,2.4516
12.592,0.87418,0.62512,0.54497,0.3998,2.4018
12.6,0.8754,0.64516,0.56012,0.37977,2.3529
12.608,0.87686,0.67498,0.59531,0.32502,2.2278
12.616,0.87784,0.70528,0.59531,0.26979,2.0674
12.624,0.87882,0.71505,0.58016,0.2346,1.9707
12.632,0.87955,0.71994,0.56012,0.22483,1.9052
12.64,0.88028,0.67009,0.54497,0.25464,1.8563
12.648,0.88126,0.62023,0.52493,0.29472,1.8201
12.656,0.88248,0.52981,0.52004,0.34995,1.7898
12.664,0.8837,0.45992,0.5,0.37488,1.7605
12.672,0.88493,0.40469,0.48485,0.39003,1.7312
12.68,0.88541,0.34995,0.47996,0.41496,1.7019
12.688,0.8859,0.30987,0.47996,0.41984,1.6725
12.696,0.88566,0.28006,0.47507,0.435,1.6442
12.704,0.88541,0.26002,0.47019,0.43988,1.6168
12.712,0.88444,0.23998,0.45992,0.45503,1.5885
12.72,0.8837,0.23998,0.45503,0.47019,1.5601
12.728,0.88224,0.20968,0.45992,0.50489,1.5337
12.736,0.88077,0.18475,0.47019,0.52493,1.5083
12.744,0.87833,0.19501,0.47996,0.52981,1.4888
12.752,0.87613,0.21994,0.50978,0.47996,1.4712
12.76,0.8732,0.23998,0.52004,0.43988,1.4516
12.768,0.87027,0.25464,0.50978,0.435,1.4311
12.776,0.86685,0.26979,0.49511,0.41496,1.4106
12.784,0.86367,0.26979,0.47996,0.41496,1.391
12.792,0.85976,0.26979,0.47507,0.44477,1.3715
12.8,0.8561,0.25464,0.47019,0.45992,1.3529
12.808,0.85145,0.24976,0.47507,0.47019,1.3343
12.816,0.84706,0.25464,0.47019,0.47996,1.3167
12.824,0.84193,0.25464,0.46481,0.45992,1.3001
12.832,0.83704,0.26002,0.47019,0.45992,1.2845
12.84,0.83118,0.26491,0.47996,0.46481,1.2698
12.848,0.82531,0.26979,0.47507,0.45503,1.259
12.856,0.81871,0.26979,0.47507,0.44477,1.2502
12.864,0.81236,0.26979,0.47019,0.46481,1.2385
12.872,0.80528,0.24487,0.46481,0.48485,1.2268
12.88,0.79844,0.21457,0.47996,0.51515,1.2151
12.888,0.79111,0.20479,0.49511,0.52981,1.2053
12.896,0.78402,0.23998,0.52493,0.48485,1.1984
12.904,0.77669,0.28495,0.52493,0.43011,1.1965
12.912,0.76936,0.30987,0.50489,0.3998,1.2033
12.92,0.76203,0.3348,0.49511,0.37488,1.219
12.928,0.7547,0.33969,0.48485,0.37977,1.2463
12.936,0.74737,0.33969,0.47507,0.41007,1.2854
12.944,0.74004,0.32991,0.46481,0.43988,1.3284
12.952,0.73271,0.31965,0.45992,0.45015,1.3763
12.96,0.72563,0.30987,0.45992,0.45992,1.437
12.968,0.71952,0.31476,0.45503,0.45992,1.5044
12.976,0.71341,0.29472,0.49022,0.46481,1.5777
12.984,0.70804,0.25464,0.58993,0.43988,1.652
12.992,0.70291,0.35484,0.71994,0.28006,1.7253
13,0.69802,0.67009,0.75024,-0.040567,1.7967
13.008,0.69313,0.70039,-0.09042,-0.11046,1.8641
13.016,0.68849,0.58993,-0.50049,0.26979,1.9267
13.024,0.68385,0.60508,-0.50049,0.57527,1.9844
13.032,0.68019,0.28495,-0.31574,0.70528,2.0381
13.04,0.67652,0.22972,0.23998,0.6349,2.086
13.048,0.67383,0.28983,0.52004,0.54008,2.1222
13.056,0.67139,0.35973,0.59531,0.45015,2.1505
13.064,0.66895,0.38514,0.59531,0.41007,2.1799
13.072,0.6665,0.39492,0.58993,0.39492,2.2053
13.08,0.6643,0.40469,0.57527,0.41007,2.2258
13.088,0.66211,0.3998,0.565,0.41984,2.2405
13.096,0.66015,0.3998,0.55523,0.43988,2.2493
13.104,0.6582,0.39492,0.54497,0.45503,2.2512
13.112,0.65624,0.40469,0.53519,0.45015,2.2473
13.12,0.65429,0.41496,0.54008,0.43988,2.2366
13.128,0.65233,0.42473,0.54497,0.43988,2.219
13.136,0.65038,0.43011,0.54985,0.435,2.1955
13.144,0.64842,0.43988,0.54985,0.41496,2.1701
13.152,0.64671,0.45992,0.55523,0.41007,2.1427
13.16,0.64427,0.47507,0.54985,0.39003,2.1124
13.168,0.64207,0.48485,0.54497,0.37977,2.0802
13.176,0.63963,0.5,0.56012,0.39003,2.0479
13.184,0.63719,0.52493,0.54985,0.39003,2.0156
13.192,0.63474,0.54008,0.56012,0.41007,1.9834
13.2,0.63254,0.57527,0.58504,0.42473,1.9521
13.208,0.63034,0.6349,0.62512,0.34506,1.9218
13.216,0.62815,0.69013,0.62023,0.29472,1.8925
13.224,0.62521,0.73021,0.62023,0.24976,1.8651
13.232,0.62228,0.75513,0.60997,0.24487,1.8387
13.24,0.61886,0.75024,0.59531,0.27468,1.8123
13.248,0.61544,0.72532,0.56989,0.28983,1.7898
13.256,0.61251,0.69013,0.55523,0.30499,1.7693
13.264,0.60958,0.65005,0.54008,0.31476,1.7478
13.272,0.60689,0.6002,0.53519,0.30987,1.7253
13.28,0.60445,0.53519,0.52493,0.33969,1.7019
13.288,0.60127,0.46481,0.52004,0.3651,1.6784
13.296,0.59834,0.41007,0.5,0.37488,1.6549
13.304,0.59467,0.35484,0.49511,0.39003,1.6315
13.312,0.59125,0.31476,0.47996,0.41496,1.608
13.32,0.58734,0.28495,0.47996,0.42473,1.5846
13.328,0.58344,0.24487,0.47996,0.45503,1.5621
13.336,0.57904,0.20968,0.47996,0.48485,1.5396
13.344,0.57488,0.18475,0.49511,0.51515,1.521
13.352,0.57,0.17986,0.50489,0.5,1.5044
13.36,0.56536,0.21994,0.52493,0.45503,1.4858
13.368,0.55998,0.2346,0.52493,0.41496,1.4663
13.376,0.55461,0.25464,0.52981,0.40469,1.4457
13.384,0.54899,0.26002,0.52004,0.41496,1.4252
13.392,0.54337,0.24976,0.50978,0.43988,1.4047
13.4,0.53726,0.26491,0.5,0.45503,1.3842
13.408,0.5314,0.26002,0.49022,0.47019,1.3646
13.416,0.52431,0.26002,0.47996,0.46481,1.346
13.424,0.51722,0.26002,0.47996,0.46481,1.3284
13.432,0.50916,0.26002,0.47019,0.45992,1.3109
13.44,0.50134,0.26979,0.47019,0.45992,1.2942
13.448,0.49279,0.26979,0.46481,0.47019,1.2815
13.456,0.48449,0.28006,0.46481,0.47019,1.2717
13.464,0.47569,0.26979,0.45992,0.48485,1.259
13.472,0.46714,0.24976,0.47996,0.51515,1.2463
13.48,0.45932,0.23998,0.5,0.52981,1.2336
13.488,0.4515,0.25464,0.52493,0.50978,1.2209
13.496,0.44417,0.26491,0.53519,0.47996,1.2092
13.504,0.43709,0.28983,0.52493,0.43988,1.1994
13.512,0.43049,0.31476,0.51515,0.41007,1.1926
13.52,0.42414,0.32991,0.50489,0.3998,1.1906
13.528,0.41803,0.31965,0.5,0.41496,1.1965
13.536,0.41217,0.31476,0.5,0.41984,1.2121
13.544,0.40704,0.30987,0.49022,0.43988,1.2356
13.552,0.40191,0.30987,0.49022,0.45503,1.2678
13.56,0.39751,0.30499,0.47996,0.46481,1.3148
13.568,0.39311,0.30987,0.47019,0.47019,1.3734
13.576,0.38969,0.3001,0.45503,0.46481,1.4409
13.584,0.38651,0.28983,0.45015,0.48485,1.5161
13.592,0.38407,0.27468,0.45503,0.50489,1.5963
13.6,0.38187,0.21457,0.50978,0.54497,1.6774
13.608,0.38065,0.15494,0.62023,0.54985,1.7586
13.616,0.37943,0.37977,0.78006,0.27468,1.8377
13.624,0.37918,0.67009,0.48485,-0.05523,1.914
13.632,0.37894,0.64027,-0.38074,-0.070381,1.9863
13.64,0.37918,0.71994,-0.50049,0.30499,2.045
13.648,0.37967,0.58016,-0.50049,0.52493,2.0948
13.656,0.38065,0.34506,-0.16569,0.58993,2.1476
13.664,0.38163,0.3001,0.32502,0.54008,2.1994
13.672,0.38334,0.32502,0.50978,0.50489,2.2473
13.68,0.38529,0.3348,0.565,0.49511,2.2913
13.688,0.38774,0.3348,0.58016,0.49511,2.3294
13.696,0.39018,0.3348,0.58504,0.49511,2.3617
13.704,0.39189,0.3348,0.58504,0.5,2.3881
13.712,0.39384,0.33969,0.59531,0.49511,2.4086
13.72,0.39531,0.34995,0.58504,0.48485,2.4223
13.728,0.39702,0.35973,0.58993,0.48485,2.4291
13.736,0.39897,0.36999,0.57527,0.48485,2.4291
13.744,0.40117,0.35973,0.58016,0.50489,2.4223
13.752,0.40362,0.34506,0.58993,0.52981,2.4086
13.76,0.4063,0.32991,0.6002,0.54985,2.39
13.768,0.40826,0.35973,0.61486,0.51515,2.3656
13.776,0.41021,0.41007,0.64027,0.45015,2.3363
13.784,0.41143,0.45503,0.6349,0.3998,2.303
13.792,0.4129,0.51515,0.62023,0.35484,2.2669
13.8,0.41339,0.54985,0.61486,0.33969,2.2297
13.808,0.41388,0.57527,0.59531,0.3348,2.1926
13.816,0.41363,0.58993,0.58993,0.3651,2.1564
13.824,0.41339,0.59531,0.59531,0.37488,2.1222
13.832,0.41339,0.61486,0.59531,0.37977,2.089
13.84,0.41363,0.6349,0.59531,0.36999,2.0596
13.848,0.41412,0.65494,0.58993,0.3651,2.0323
13.856,0.41485,0.66031,0.58504,0.34506,2.0039
13.864,0.41534,0.66031,0.56989,0.34506,1.9746
13.872,0.41583,0.65494,0.58016,0.35484,1.9453
13.88,0.41608,0.6349,0.56989,0.35484,1.9159
13.888,0.41656,0.58504,0.54985,0.34995,1.8866
13.896,0.41779,0.51515,0.54008,0.39492,1.8573
13.904,0.41901,0.43988,0.54008,0.43988,1.827
13.912,0.42096,0.3998,0.54985,0.41496,1.7967
13.92,0.42292,0.36999,0.55523,0.37977,1.7664
13.928,0.42585,0.34506,0.52981,0.3651,1.7361
13.936,0.42878,0.31965,0.52004,0.35973,1.7067
13.944,0.43245,0.30499,0.5,0.35484,1.6813
13.952,0.43611,0.3001,0.48485,0.37488,1.6579
13.96,0.43929,0.26491,0.47507,0.41984,1.6325
13.968,0.44246,0.23998,0.46481,0.45015,1.6061
13.976,0.44515,0.2346,0.45992,0.45503,1.5806
13.984,0.44784,0.23998,0.45992,0.44477,1.5562
13.992,0.44955,0.24487,0.45503,0.44477,1.5327
14,0.4515,0.24487,0.45503,0.43988,1.5103
14.008,0.45248,0.23998,0.45503,0.45503,1.4888
14.016,0.45346,0.24487,0.45015,0.47507,1.4682
14.024,0.45297,0.23998,0.45503,0.48485,1.4487
14.032,0.45272,0.21457,0.45015,0.50489,1.4291
14.04,0.45077,0.1999,0.46481,0.52981,1.4145
14.048,0.44906,0.22972,0.47996,0.49511,1.4018
14.056,0.44539,0.25464,0.49511,0.45015,1.3861
14.064,0.44197,0.28495,0.49022,0.435,1.3705
14.072,0.4366,0.30987,0.47507,0.40469,1.3558
14.08,0.43147,0.32991,0.45503,0.3998,1.3412
14.088,0.42487,0.33969,0.45503,0.40469,1.3275
14.096,0.41828,0.34995,0.45503,0.41984,1.3138
14.104,0.41046,0.32991,0.45992,0.43988,1.3011
14.112,0.40288,0.31476,0.47019,0.45015,1.2893
14.12,0.39482,0.31476,0.47507,0.45503,1.2776
14.128,0.38676,0.30987,0.47996,0.45015,1.2678
14.136,0.37845,0.30987,0.47996,0.45503,1.262
14.144,0.37039,0.30987,0.47507,0.44477,1.263
14.152,0.36159,0.30499,0.47507,0.45503,1.2717
14.16,0.35304,0.30987,0.47019,0.45992,1.2903
14.168,0.344,0.28983,0.46481,0.47507,1.3196
14.176,0.33521,0.26002,0.47507,0.50489,1.3617
14.184,0.3269,0.23998,0.47507,0.52004,1.4154
14.192,0.31884,0.26002,0.5,0.47507,1.48
14.2,0.31126,0.24976,0.58016,0.43011,1.5523
14.208,0.30393,0.24487,0.68035,0.35973,1.6305
14.216,0.29709,0.52004,0.77517,0.089932,1.7107
14.224,0.2905,0.71505,0.3001,-0.14027,1.7928
14.232,0.28414,0.6349,-0.50049,0.029814,1.8749
14.24,0.27804,0.69013,-0.50049,0.37977,1.9433
14.248,0.27266,0.50489,-0.50049,0.58016,2.0039
14.256,0.26729,0.28983,-0.09042,0.65005,2.0704
14.264,0.26264,0.25464,0.33969,0.60508,2.1369
14.272,0.25825,0.30499,0.49022,0.54985,2.2004
14.28,0.25483,0.32991,0.51515,0.52981,2.26
14.288,0.2514,0.32991,0.52493,0.52981,2.3138
14.296,0.24872,0.32991,0.53519,0.52981,2.3627
14.304,0.24627,0.3348,0.54985,0.52981,2.4057
14.312,0.24432,0.32502,0.55523,0.53519,2.4428
14.32,0.24261,0.31476,0.56989,0.54497,2.4741
14.328,0.24114,0.32502,0.58993,0.52981,2.4985
14.336,0.23968,0.34995,0.61486,0.47507,2.5161
14.344,0.23821,0.38514,0.62023,0.435,2.523
14.352,0.23675,0.41984,0.60997,0.39492,2.523
14.36,0.23479,0.45992,0.62023,0.36999,2.52
14.368,0.23308,0.48485,0.6002,0.35484,2.5112
14.376,0.23039,0.50489,0.59531,0.34995,2.4966
14.384,0.22771,0.52493,0.59531,0.35484,2.4761
14.392,0.2238,0.52981,0.58993,0.37977,2.4487
14.4,0.22013,0.52004,0.58993,0.3998,2.4174
14.408,0.21427,0.54008,0.59531,0.40469,2.3822
14.416,0.2084,0.56012,0.59531,0.39492,2.3451
14.424,0.20083,0.58504,0.59531,0.3998,2.3069
14.432,0.1935,0.60508,0.6002,0.39492,2.2688
14.44,0.18593,0.62023,0.60997,0.39003,2.2346
14.448,0.17835,0.61486,0.61486,0.41007,2.2033
14.456,0.17054,0.63001,0.64516,0.38514,2.173
14.464,0.16272,0.6349,0.65005,0.35973,2.1447
14.472,0.15343,0.6349,0.62512,0.33969,2.1173
14.48,0.14439,0.60997,0.60508,0.32991,2.0909
14.488,0.13438,0.56989,0.59531,0.3348,2.0645
14.496,0.12436,0.53519,0.56989,0.33969,2.0381
14.504,0.11532,0.47507,0.54008,0.35973,2.0108
14.512,0.10652,0.42473,0.50489,0.37977,1.9834
14.52,0.098461,0.37977,0.47996,0.40469,1.9541
14.528,0.090643,0.33969,0.46481,0.41984,1.9247
14.536,0.082824,0.30987,0.45992,0.42473,1.8944
14.544,0.075006,0.26979,0.45503,0.45992,1.868
14.552,0.066944,0.22972,0.45503,0.48485,1.8426
14.56,0.058881,0.20479,0.45015,0.50489,1.8152
14.568,0.050818,0.19501,0.44477,0.51515,1.7859
14.576,0.042756,0.18964,0.46481,0.52493,1.7566
14.584,0.034938,0.18964,0.47507,0.52493,1.7283
14.592,0.027119,0.18964,0.49022,0.51515,1.6999
14.6,0.020767,0.21457,0.48485,0.47996,1.6706
14.608,0.014659,0.24976,0.49511,0.45015,1.6413
14.616,0.0095285,0.27468,0.47996,0.435,1.6119
14.624,0.0043977,0.28495,0.47507,0.43011,1.5836
14.632,0.0019546,0.28495,0.46481,0.43011,1.5562
14.64,-0.00048864,0.28495,0.45503,0.43988,1.5337
14.648,-0.00048864,0.28495,0.44477,0.45503,1.5132
14.656,-0.00048864,0.28006,0.44477,0.45503,1.478
14.664,-0.00048864,0.28495,0.44477,0.47019,1.434
14.672,-0.00048864,0.28983,0.45015,0.47507,1.3969
14.68,-0.00048864,0.29472,0.45503,0.46481,1.3656
14.688,-0.00048864,0.28495,0.45992,0.47996,1.3382
14.696,-0.00048864,0.26002,0.47019,0.48485,1.3138
14.704,-0.00048864,0.26491,0.47996,0.49022,1.2903
14.712,-0.00048864,0.26979,0.47996,0.48485,1.2688
14.72,-0.00048864,0.26491,0.47996,0.50978,1.2473
14.728,-0.00048864,0.26002,0.47507,0.50978,1.2287
14.736,-0.00048864,0.26002,0.49511,0.50978,1.2131
14.744,-0.00048864,0.3001,0.50489,0.47996,1.2053
14.752,-0.00048864,0.32502,0.50978,0.43988,1.2063
14.76,-0.00048864,0.34995,0.49511,0.39492,1.217
14.768,-0.00048864,0.34506,0.47019,0.39003,1.2424
14.776,-0.00048864,0.28983,0.51515,0.41496,1.2845
14.784,-0.00048864,0.24976,0.62023,0.38514,1.3451
14.792,-0.00048864,0.48485,0.75024,0.14956,1.4233
14.8,-0.00048864,0.69501,0.28495,-0.11046,1.5161
14.808,-0.00048864,0.64027,-0.50049,0.0097752,1.6197
14.816,-0.00048864,0.71994,-0.50049,0.32502,1.7302
14.824,-0.00048864,0.52981,-0.50049,0.50978,1.8436
14.832,-0.00048864,0.26002,-0.070381,0.60997,1.958
14.84,-0.00048864,0.21994,0.32991,0.565,2.0538
14.848,-0.00048864,0.28495,0.47996,0.50489,2.1378
14.856,-0.00048864,0.32502,0.51515,0.47996,2.2287
14.864,-0.00048864,0.3348,0.52493,0.46481,2.3187
14.872,-0.00048864,0.34995,0.53519,0.46481,2.4047
14.88,-0.00048864,0.35484,0.54985,0.47507,2.4829
14.888,-0.00048864,0.3651,0.56989,0.45992,2.5543
14.896,-0.00048864,0.37977,0.58016,0.45992,2.6178
14.904,-0.00048864,0.39492,0.58504,0.43988,2.6735
14.912,-0.00048864,0.41496,0.57527,0.41984,2.7204
14.92,-0.00048864,0.45015,0.565,0.38514,2.7586
14.928,-0.00048864,0.45503,0.54985,0.37488,2.7869
14.936,-0.00048864,0.46481,0.52981,0.36999,2.8035
14.944,-0.00048864,0.46481,0.53519,0.39492,2.8065
14.952,-0.00048864,0.47996,0.52493,0.39003,2.7986
14.96,-0.00048864,0.50489,0.50978,0.36999,2.783
14.968,-0.00048864,0.52004,0.52493,0.39003,2.7576
14.976,-0.00048864,0.52004,0.50978,0.37977,2.7224
14.984,-0.00048864,0.54985,0.5,0.3651,2.6784
14.992,-0.00048864,0.58993,0.49511,0.33969,2.6266
15,-0.00048864,0.63001,0.49511,0.32991,2.5689
15.008,-0.00048864,0.65494,0.49511,0.31965,2.5064
15.016,-0.00048864,0.67009,0.47996,0.31965,2.4409
15.024,-0.00048864,0.68524,0.48485,0.3001,2.3754
15.032,-0.00048864,0.67498,0.49511,0.30987,2.3128
15.04,-0.00048864,0.68524,0.52493,0.30987,2.2571
15.048,-0.00048864,0.70039,0.54008,0.27468,2.2072
15.056,-0.00048864,0.67498,0.56012,0.26002,2.1564
15.064,-0.00048864,0.61486,0.565,0.25464,2.1075
15.072,-0.00048864,0.56012,0.54497,0.27468,2.0606
15.08,-0.00048864,0.5,0.50978,0.29472,2.0137
15.088,-0.00048864,0.43988,0.47996,0.30987,1.9668
15.096,-0.00048864,0.37977,0.45503,0.34506,1.9208
15.104,-0.00048864,0.32991,0.46481,0.37977,1.8749
15.112,-0.00048864,0.26979,0.45503,0.41984,1.828
15.12,-0.00048864,0.2346,0.45503,0.435,1.7801
15.128,-0.00048864,0.21457,0.44477,0.45503,1.7312
15.136,-0.00048864,0.21457,0.45503,0.46481,1.6823
15.144,-0.00048864,0.21457,0.435,0.46481,1.6393
15.152,-0.00048864,0.21457,0.43011,0.45992,1.5992
15.16,-0.00048864,0.20968,0.43988,0.47996,1.5533
15.168,-0.00048864,0.1999,0.45503,0.50489,1.5044
15.176,-0.00048864,0.20968,0.47996,0.50978,1.4536
15.184,-0.00048864,0.21994,0.49511,0.48485,1.4037
15.192,-0.00048864,0.21457,0.50489,0.45015,1.3548
15.2,-0.00048864,0.24487,0.53519,0.43988,1.3089
15.208,-0.00048864,0.26979,0.52493,0.39003,1.2659
15.216,-0.00048864,0.28495,0.51515,0.40469,1.2258
15.224,-0.00048864,0.28495,0.5,0.42473,1.1896
15.232,-0.00048864,0.28983,0.49511,0.43988,1.1554
15.24,-0.00048864,0.28495,0.49511,0.45992,1.129
15.248,-0.00048864,0.26979,0.48485,0.47019,1.1085
15.256,0,0.25464,0.50489,0.5,1.085
15.264,0.00073296,0.24976,0.50978,0.50978,1.0596
15.272,0.0080625,0.26002,0.52004,0.5,1.0342
15.28,0.015636,0.26491,0.50489,0.49022,1.0088
15.288,0.023699,0.26979,0.51515,0.49511,0.98338
15.296,0.032006,0.27468,0.52004,0.50489,0.95894
15.304,0.040313,0.23998,0.56012,0.52004,0.93744
15.312,0.048864,0.22972,0.66031,0.47507,0.91887
15.32,0.057904,0.32502,0.78543,0.3348,0.90616
15.328,0.066944,0.68524,0.8304,0.034702,0.90518
15.336,0.077205,0.79521,0.28495,-0.045455,0.91593
15.344,0.087711,0.56989,-0.30059,0.33969,0.94037
15.352,0.099438,0.37977,-0.50049,0.69013,0.98045
15.36,0.11117,0.15494,-0.35582,0.82502,1.0391
15.368,0.12411,0.20479,0.15494,0.66031,1.1173
15.376,0.13706,0.27468,0.43988,0.565,1.2102
15.384,0.15075,0.31965,0.51515,0.54497,1.3148
15.392,0.16467,0.32991,0.52493,0.54497,1.4262
15.4,0.17762,0.31476,0.52493,0.55523,1.5415
15.408,0.19081,0.30499,0.52493,0.56012,1.6559
15.416,0.20352,0.30499,0.52004,0.54985,1.7683
15.424,0.21622,0.30499,0.51515,0.52493,1.8768
15.432,0.23088,0.31476,0.52004,0.52004,1.9795
15.44,0.24554,0.32502,0.53519,0.52493,2.0635
15.448,0.26142,0.30987,0.53519,0.52981,2.1339
15.456,0.2773,0.31476,0.54985,0.52493,2.2053
15.464,0.29196,0.35484,0.56989,0.45992,2.2717
15.472,0.30687,0.40469,0.58993,0.39003,2.3314
15.48,0.32055,0.45503,0.58993,0.32991,2.3822
15.488,0.33447,0.5,0.59531,0.3001,2.4252
15.496,0.34816,0.52981,0.565,0.28006,2.4585
15.504,0.36208,0.56012,0.54985,0.28006,2.4809
15.512,0.37576,0.58504,0.52981,0.28006,2.4927
15.52,0.38969,0.61486,0.52493,0.27468,2.4936
15.528,0.40264,0.65005,0.52493,0.26002,2.4829
15.536,0.41559,0.67009,0.52493,0.26002,2.4633
15.544,0.42731,0.68524,0.52004,0.27468,2.436
15.552,0.43929,0.69013,0.51515,0.27468,2.3988
15.56,0.44955,0.68524,0.52493,0.28983,2.3548
15.568,0.45981,0.68035,0.52004,0.28495,2.304
15.576,0.46885,0.66031,0.50978,0.28983,2.2493
15.584,0.47789,0.62512,0.50489,0.30499,2.1916
15.592,0.4862,0.565,0.51515,0.3348,2.1339
15.6,0.49475,0.47507,0.52004,0.37977,2.0782
15.608,0.50257,0.39492,0.52493,0.41496,2.0244
15.616,0.51063,0.35973,0.52493,0.39003,1.9726
15.624,0.51771,0.32991,0.54008,0.35973,1.9257
15.632,0.5248,0.31476,0.52493,0.34995,1.8827
15.64,0.5314,0.3001,0.50978,0.3651,1.8465
15.648,0.53824,0.27468,0.48485,0.38514,1.8133
15.656,0.54581,0.26002,0.47019,0.41007,1.7791
15.664,0.55338,0.24976,0.45992,0.43011,1.7439
15.672,0.56194,0.24976,0.45992,0.43988,1.7077
15.68,0.57049,0.23998,0.45503,0.45503,1.6706
15.688,0.57977,0.22972,0.45503,0.45992,1.6325
15.696,0.58905,0.21457,0.45503,0.47996,1.5934
15.704,0.59858,0.21994,0.45503,0.47507,1.5543
15.712,0.60836,0.22972,0.45992,0.47019,1.5152
15.72,0.61691,0.22972,0.46481,0.45992,1.4761
15.728,0.62546,0.22972,0.47019,0.46481,1.4379
15.736,0.63303,0.21994,0.47996,0.49022,1.4076
15.744,0.64061,0.1999,0.47507,0.51515,1.3812
15.752,0.64769,0.18964,0.46481,0.52981,1.3509
15.76,0.65502,0.21457,0.49022,0.47996,1.3196
15.768,0.66186,0.25464,0.50978,0.41496,1.2884
15.776,0.6687,0.28495,0.51515,0.39003,1.259
15.784,0.67432,0.30987,0.5,0.37488,1.2317
15.792,0.68019,0.32991,0.48485,0.3651,1.2063
15.8,0.68483,0.33969,0.47019,0.36999,1.1818
15.808,0.68947,0.34506,0.46481,0.39003,1.1574
15.816,0.69289,0.32991,0.45015,0.3998,1.1329
15.824,0.69631,0.32502,0.45503,0.41496,1.1095
15.832,0.69875,0.31476,0.45015,0.41984,1.087
15.84,0.7012,0.30987,0.45503,0.435,1.0714
15.848,0.70266,0.28983,0.45015,0.44477,1.0606
15.856,0.70437,0.28495,0.45503,0.45992,1.0528
15.864,0.70535,0.27468,0.45992,0.47019,1.0528
15.872,0.70657,0.24487,0.47019,0.49511,1.0645
15.88,0.70706,0.2346,0.46481,0.50489,1.0929
15.888,0.70779,0.24976,0.49511,0.45503,1.1378
15.896,0.70804,0.28006,0.5,0.41984,1.2004
15.904,0.70853,0.29472,0.51515,0.40469,1.2786
15.912,0.7095,0.24976,0.6002,0.36999,1.3695
15.92,0.71073,0.34506,0.72532,0.2346,1.4712
15.928,0.71244,0.65005,0.77517,-0.070381,1.5797
15.936,0.71415,0.70528,-0.060606,-0.17058,1.6764
15.944,0.71586,0.60508,-0.50049,0.18475,1.7664
15.952,0.71757,0.66031,-0.50049,0.47996,1.8651
15.96,0.71952,0.37488,-0.40078,0.60508,1.9648
15.968,0.72148,0.26491,0.16471,0.62512,2.0606
15.976,0.72538,0.29472,0.435,0.53519,2.1505
15.984,0.72929,0.32991,0.50978,0.49022,2.2317
15.992,0.73467,0.33969,0.52493,0.49511,2.303
16,0.74029,0.31965,0.52981,0.52493,2.3646
16.008,0.74664,0.28983,0.55523,0.54497,2.4154
16.016,0.75299,0.26491,0.565,0.56989,2.4565
16.024,0.75983,0.28983,0.57527,0.54008,2.4888
16.032,0.76667,0.32991,0.59531,0.47507,2.5112
16.04,0.77278,0.37488,0.60997,0.42473,2.52
16.048,0.77914,0.41496,0.6002,0.39492,2.5191
16.056,0.78475,0.44477,0.59531,0.37977,2.5103
16.064,0.79037,0.47019,0.58993,0.36999,2.4927
16.072,0.7955,0.48485,0.58993,0.37488,2.4663
16.08,0.80088,0.49511,0.58993,0.37488,2.4311
16.088,0.80552,0.50978,0.59531,0.3651,2.39
16.096,0.81016,0.52981,0.58016,0.3651,2.3441
16.104,0.81358,0.54008,0.56989,0.3651,2.2962
16.112,0.81725,0.565,0.565,0.3651,2.2463
16.12,0.81945,0.6002,0.55523,0.34995,2.1965
16.128,0.82165,0.62023,0.54985,0.34506,2.1466
16.136,0.8214,0.6349,0.55523,0.34506,2.1026
16.144,0.82116,0.64516,0.56989,0.35484,2.0626
16.152,0.81896,0.6349,0.58016,0.36999,2.0205
16.16,0.81676,0.61486,0.59531,0.39003,1.9775
16.168,0.81261,0.62023,0.60997,0.37488,1.9355
16.176,0.80845,0.62512,0.62512,0.33969,1.8935
16.184,0.80259,0.61486,0.61486,0.30987,1.8514
16.192,0.79697,0.58993,0.59531,0.3001,1.8113
16.2,0.79037,0.54985,0.56012,0.30987,1.7713
16.208,0.78402,0.5,0.53519,0.33969,1.7312
16.216,0.77694,0.435,0.51515,0.36999,1.6911
16.224,0.76985,0.37488,0.5,0.39003,1.651
16.232,0.76081,0.32502,0.47996,0.42473,1.6119
16.24,0.75177,0.28495,0.47996,0.43988,1.5787
16.248,0.74127,0.24976,0.47019,0.45992,1.5494
16.256,0.731,0.23998,0.45992,0.45992,1.5171
16.264,0.72099,0.22972,0.45503,0.47019,1.4829
16.272,0.71097,0.22483,0.45015,0.47507,1.4487
16.28,0.70095,0.23998,0.45015,0.47996,1.4145
16.288,0.69118,0.22972,0.45992,0.49022,1.3803
16.296,0.67945,0.20479,0.47019,0.52004,1.347
16.304,0.66797,0.17986,0.48485,0.54008,1.3138
16.312,0.65478,0.20968,0.51515,0.51515,1.2815
16.32,0.64158,0.23998,0.53519,0.45015,1.2512
16.328,0.62668,0.28495,0.54497,0.40469,1.2219
16.336,0.61202,0.30987,0.54497,0.37488,1.1994
16.344,0.59614,0.32991,0.53519,0.36999,1.1808
16.352,0.58026,0.34506,0.52493,0.37488,1.1593
16.36,0.56487,0.33969,0.51515,0.3998,1.1369
16.368,0.54947,0.32502,0.50489,0.43011,1.1144
16.376,0.53457,0.31476,0.5,0.43988,1.0938
16.384,0.51967,0.30987,0.5,0.43988,1.0733
16.392,0.50403,0.30499,0.50978,0.45503,1.0538
16.4,0.48864,0.29472,0.50489,0.46481,1.0352
16.408,0.47276,0.30499,0.5,0.47507,1.0166
16.416,0.45712,0.30987,0.5,0.47019,0.99902
16.424,0.44246,0.3001,0.50978,0.48485,0.98436
16.432,0.4278,0.26979,0.50489,0.51515,0.97361
16.44,0.41388,0.22972,0.51515,0.54985,0.97263
16.448,0.4002,0.21457,0.50978,0.55523,0.98143
16.456,0.38627,0.23998,0.54497,0.50489,1.001
16.464,0.37259,0.26979,0.53519,0.46481,1.0381
16.472,0.35842,0.29472,0.52493,0.435,1.0948
16.48,0.34449,0.30987,0.50489,0.43011,1.173
16.488,0.3313,0.30987,0.49022,0.435,1.2698
16.496,0.3181,0.30987,0.47996,0.45015,1.3842
16.504,0.30589,0.3001,0.47019,0.45992,1.5093
16.512,0.29392,0.3001,0.47019,0.46481,1.6403
16.52,0.2839,0.29472,0.46481,0.46481,1.7742
16.528,0.27413,0.27468,0.47507,0.48485,1.9071
16.536,0.26631,0.22483,0.57527,0.47507,2.0196
16.544,0.25849,0.21457,0.70039,0.39003,2.1202
16.552,0.25238,0.56012,0.77028,0.10459,2.2268
16.56,0.24652,0.71017,0.059629,-0.060606,2.3333
16.568,0.24212,0.79032,-0.50049,0.12463,2.434
16.576,0.23772,0.70528,-0.50049,0.435,2.5288
16.584,0.23455,0.37488,-0.50049,0.6652,2.6158
16.592,0.23137,0.15494,0.099707,0.71994,2.696
16.6,0.22893,0.13978,0.47019,0.65494,2.7674
16.608,0.22673,0.26979,0.60508,0.53519,2.8299
16.616,0.22502,0.32502,0.62512,0.47507,2.8817
16.624,0.22355,0.35973,0.63001,0.45015,2.9228
16.632,0.22233,0.37977,0.60997,0.43988,2.9531
16.64,0.22111,0.39492,0.59531,0.43988,2.9677
16.648,0.21989,0.3998,0.58504,0.45503,2.9697
16.656,0.21867,0.3998,0.58504,0.45992,2.9648
16.664,0.2172,0.3998,0.58504,0.45992,2.9511
16.672,0.21598,0.3998,0.58993,0.45992,2.9267
16.68,0.215,0.40469,0.59531,0.45503,2.8895
16.688,0.21427,0.41984,0.6002,0.43988,2.8416
16.696,0.21378,0.435,0.60508,0.42473,2.7859
16.704,0.21329,0.45015,0.60997,0.41496,2.7312
16.712,0.21305,0.46481,0.6002,0.41984,2.6764
16.72,0.2128,0.45503,0.60508,0.45015,2.6158
16.728,0.21256,0.44477,0.62023,0.47996,2.5533
16.736,0.21256,0.43988,0.64027,0.49022,2.4956
16.744,0.21207,0.48485,0.66031,0.45992,2.4418
16.752,0.21158,0.52493,0.69013,0.40469,2.3871
16.76,0.21085,0.56989,0.67498,0.3651,2.3324
16.768,0.21011,0.60508,0.67009,0.34506,2.2796
16.776,0.20914,0.63001,0.65494,0.32991,2.2287
16.784,0.20816,0.64027,0.63001,0.3348,2.1799
16.792,0.20694,0.65005,0.60997,0.3348,2.131
16.8,0.20596,0.63001,0.58504,0.35484,2.0841
16.808,0.20474,0.59531,0.565,0.3651,2.0381
16.816,0.20352,0.565,0.54985,0.37488,1.9922
16.824,0.2023,0.52493,0.52981,0.37977,1.9462
16.832,0.20108,0.47996,0.50978,0.37488,1.9003
16.84,0.19985,0.43011,0.49511,0.37977,1.8612
16.848,0.19863,0.36999,0.49022,0.39492,1.825
16.856,0.19717,0.30499,0.47996,0.43988,1.7849
16.864,0.1957,0.22972,0.47996,0.49511,1.7439
16.872,0.19252,0.20479,0.49511,0.52004,1.7028
16.88,0.18959,0.2346,0.52493,0.47507,1.6628
16.888,0.18544,0.23998,0.53519,0.44477,1.6237
16.896,0.18153,0.25464,0.51515,0.43011,1.5855
16.904,0.17762,0.27468,0.50489,0.41007,1.5484
16.912,0.17371,0.28983,0.49022,0.40469,1.5142
16.92,0.16956,0.3001,0.48485,0.40469,1.4819
16.928,0.1654,0.30987,0.47507,0.41496,1.4506
16.936,0.15954,0.30499,0.47507,0.41984,1.4262
16.944,0.15392,0.30499,0.47507,0.43011,1.4047
16.952,0.14684,0.30499,0.47507,0.41984,1.3803
16.96,0.13975,0.29472,0.46481,0.42473,1.3539
16.968,0.13193,0.28983,0.46481,0.435,1.3275
16.976,0.12436,0.3001,0.47507,0.43011,1.3021
16.984,0.1163,0.28006,0.47507,0.45015,1.2776
16.992,0.10848,0.24976,0.48485,0.47996,1.2542
17,0.10139,0.2346,0.47996,0.49511,1.2317
17.008,0.094307,0.22972,0.52493,0.46481,1.2111
17.016,0.087711,0.26002,0.52981,0.43011,1.1916
17.024,0.081114,0.28006,0.52493,0.42473,1.172
17.032,0.074273,0.3001,0.50489,0.41496,1.1525
17.04,0.067432,0.31476,0.49022,0.41496,1.1378
17.048,0.060591,0.31965,0.47996,0.43011,1.1261
17.056,0.05375,0.32502,0.47019,0.435,1.1105
17.064,0.048375,0.31965,0.45992,0.44477,1.0958
17.072,0.043245,0.31476,0.45503,0.45503,1.085
17.08,0.039335,0.30987,0.43988,0.46481,1.0831
17.088,0.035671,0.30987,0.43011,0.46481,1.0938
17.096,0.03225,0.30499,0.43011,0.48485,1.1202
17.104,0.02883,0.29472,0.42473,0.49022,1.1652
17.112,0.025409,0.28983,0.43011,0.5,1.2307
17.12,0.022233,0.26979,0.43011,0.52493,1.3138
17.128,0.01979,0.2346,0.41984,0.54497,1.4125
17.136,0.017591,0.24976,0.74536,0.38514,1.5083
17.144,0.016125,0.14467,-0.020528,1.1354,1.6041
17.152,0.014903,0.26002,0.45015,0.6002,1.7136
17.16,0.014171,0.30499,0.50489,0.49022,1.828
17.168,0.013682,0.33969,0.50978,0.43011,1.9423
17.176,0.013438,0.35484,0.49511,0.41496,2.0538
17.184,0.013438,0.36999,0.47996,0.41496,2.1603
17.192,0.014171,0.35973,0.46481,0.43988,2.262
17.2,0.014903,0.35484,0.45503,0.45992,2.3568
17.208,0.016125,0.34995,0.45503,0.47507,2.4438
17.216,0.017591,0.34506,0.44477,0.47507,2.522
17.224,0.019301,0.3348,0.43988,0.47019,2.5914
17.232,0.021256,0.33969,0.43988,0.45015,2.6422
17.24,0.023455,0.34506,0.44477,0.44477,2.6804
17.248,0.025898,0.3348,0.44477,0.45503,2.7175
17.256,0.028341,0.32991,0.43988,0.45992,2.7488
17.264,0.031029,0.26979,0.26491,0.565,2.7713
17.272,0.033716,0.32991,0.45015,0.43011,2.783
17.28,0.036404,0.27468,0.46481,0.43988,2.783
17.288,0.038602,0.3001,0.49511,0.41984,2.7703
17.296,0.041046,0.30987,0.52004,0.40469,2.7458
17.304,0.042756,0.32991,0.52493,0.39003,2.7107
17.312,0.04471,0.32502,0.53519,0.3998,2.6657
17.32,0.046176,0.28983,0.60997,0.41007,2.6129
17.328,0.047887,0.3651,0.71505,0.30499,2.5562
17.336,0.049108,0.68035,0.76002,0.0097752,2.5024
17.344,0.050574,0.77517,0.14956,-0.09042,2.4506
17.352,0.050818,0.61486,-0.50049,0.23998,2.3969
17.36,0.051063,0.63001,-0.50049,0.54008,2.3431
17.368,0.05033,0.32502,-0.47067,0.67498,2.2903
17.376,0.049597,0.26979,0.11486,0.58993,2.2385
17.384,0.049108,0.31965,0.41496,0.50489,2.1877
17.392,0.048864,0.36999,0.49022,0.45503,2.1388
17.4,0.048375,0.37977,0.5,0.45015,2.0919
17.408,0.048131,0.36999,0.50978,0.47507,2.0469
17.416,0.046665,0.34506,0.5,0.48485,2.002
17.424,0.045199,0.31965,0.49511,0.50489,1.958
17.432,0.042512,0.33969,0.52493,0.50978,1.9208
17.44,0.040068,0.38514,0.56012,0.41007,1.8876
17.448,0.037137,0.41984,0.58016,0.37488,1.8514
17.456,0.034449,0.45015,0.58993,0.34995,1.8143
17.464,0.031517,0.48485,0.59531,0.32502,1.7761
17.472,0.028585,0.49511,0.57527,0.31965,1.738
17.48,0.026142,0.5,0.56989,0.34995,1.6989
17.488,0.023699,0.5,0.565,0.36999,1.6579
17.496,0.0215,0.52004,0.565,0.40469,1.6158
17.504,0.019301,0.52981,0.55523,0.41496,1.5748
17.512,0.016858,0.54985,0.53519,0.3998,1.5347
17.52,0.014659,0.58504,0.50489,0.38514,1.4956
17.528,0.012216,0.62023,0.47996,0.34995,1.4575
17.536,0.010017,0.64516,0.47507,0.32991,1.4262
17.544,0.0083069,0.66031,0.47019,0.31965,1.3998
17.552,0.006841,0.68035,0.47996,0.31965,1.3695
17.56,0.0058637,0.68524,0.5,0.34506,1.3372
17.568,0.0051307,0.66031,0.52004,0.35973,1.305
17.576,0.0043977,0.67498,0.52981,0.3651,1.2737
17.584,0.0036648,0.68524,0.54985,0.3001,1.2444
17.592,0.0029318,0.67498,0.56012,0.27468,1.2151
17.6,0.0021989,0.67009,0.54985,0.26979,1.1867
17.608,0.0019546,0.65005,0.50978,0.26002,1.1584
17.616,0.0019546,0.60508,0.47996,0.28495,1.131
17.624,0.0021989,0.54985,0.47507,0.31476,1.1036
17.632,0.0026875,0.48485,0.45992,0.33969,1.0831
17.64,0.0036648,0.42473,0.45015,0.35973,1.0655
17.648,0.0046421,0.37488,0.435,0.38514,1.043
17.656,0.0063523,0.32991,0.45015,0.41007,1.0166
17.664,0.0083069,0.30499,0.45503,0.435,0.98729
17.672,0.011483,0.28006,0.45015,0.41984,0.95601
17.68,0.014903,0.26979,0.45015,0.41496,0.92278
17.688,0.019057,0.26002,0.45503,0.41984,0.88954
17.696,0.023455,0.24487,0.45503,0.435,0.85728
17.704,0.027364,0.23998,0.47019,0.45015,0.82796
17.712,0.031517,0.21457,0.45015,0.46481,0.80254
17.72,0.035426,0.18964,0.47019,0.48485,0.78006
17.728,0.03958,0.22483,0.51515,0.49022,0.76246
17.736,0.044222,0.2346,0.52981,0.42473,0.75367
17.744,0.048864,0.26979,0.52981,0.38514,0.74976
17.752,0.054239,0.29472,0.52004,0.37488,0.74389
17.76,0.059614,0.32991,0.49511,0.35484,0.73607
17.768,0.065233,0.33969,0.47996,0.36999,0.72825
17.776,0.071097,0.34506,0.47507,0.39492,0.72043
17.784,0.076961,0.32991,0.47019,0.41496,0.71261
17.792,0.083069,0.32991,0.47996,0.43011,0.70479
17.8,0.088688,0.3348,0.48485,0.435,0.69892
17.808,0.094552,0.3348,0.49511,0.43988,0.69501
17.816,0.099927,0.33969,0.50978,0.45992,0.69306
17.824,0.10555,0.3348,0.52981,0.46481,0.69208
17.832,0.11214,0.33969,0.53519,0.45015,0.69599
17.84,0.11898,0.32991,0.52493,0.45992,0.70381
17.848,0.12656,0.30499,0.52493,0.47507,0.71261
17.856,0.13413,0.28495,0.52493,0.49511,0.72923
17.864,0.14122,0.24976,0.52493,0.52981,0.75953
17.872,0.14855,0.21457,0.52004,0.565,0.81036
17.88,0.15563,0.21457,0.54497,0.57527,0.88465
17.888,0.16272,0.25464,0.565,0.51515,0.98338
17.896,0.17127,0.26979,0.60997,0.47019,1.1056
17.904,0.18006,0.26491,0.71017,0.41984,1.2493
17.912,0.19032,0.50489,0.80499,0.21457,1.4096
17.92,0.20059,0.81525,0.58504,-0.015152,1.5797
17.928,0.2128,0.65494,-0.020528,0.12952,1.7566
17.936,0.22502,0.565,-0.50049,0.55523,1.912
17.944,0.2387,0.34506,-0.50049,0.83529,2.0538
17.952,0.25263,0.18964,-0.095308,0.88514,2.2082
17.96,0.26558,0.25464,0.36999,0.6652,2.3646
17.968,0.27877,0.31965,0.54008,0.58016,2.5152
17.976,0.29123,0.34995,0.565,0.53519,2.6588
17.984,0.30369,0.35484,0.56012,0.51515,2.7937
17.992,0.31713,0.35484,0.54497,0.48485,2.9189
18,0.33056,0.34506,0.54497,0.47996,3.0342
18.008,0.34425,0.3348,0.54985,0.49511,3.1378
18.016,0.35817,0.32991,0.54497,0.50978,3.2297
18.024,0.37063,0.3348,0.54985,0.49511,3.3099
18.032,0.38334,0.3348,0.54985,0.52493,3.3666
18.04,0.39458,0.34995,0.56012,0.51515,3.4066
18.048,0.40606,0.36999,0.58504,0.49022,3.4467
18.056,0.41681,0.3998,0.59531,0.45015,3.48
18.064,0.4278,0.44477,0.60508,0.41007,3.5034
18.072,0.43806,0.48485,0.59531,0.37977,3.5161
18.08,0.44833,0.51515,0.57527,0.3651,3.5191
18.088,0.45737,0.54008,0.54497,0.3651,3.5132
18.096,0.46641,0.56012,0.52493,0.35973,3.5015
18.104,0.47422,0.59531,0.52493,0.3651,3.4878
18.112,0.48229,0.62512,0.50978,0.34506,3.4751
18.12,0.48864,0.65494,0.50978,0.31476,3.4643
18.128,0.49524,0.69013,0.50489,0.29472,3.4555
18.136,0.50061,0.71017,0.50978,0.27468,3.4428
18.144,0.50623,0.73021,0.50489,0.24976,3.4252
18.152,0.51136,0.71505,0.50978,0.26002,3.4096
18.16,0.51649,0.69501,0.52004,0.27468,3.3891
18.168,0.52138,0.67498,0.53519,0.29472,3.3607
18.176,0.52626,0.63001,0.54008,0.33969,3.3206
18.184,0.53042,0.56989,0.54497,0.36999,3.2678
18.192,0.53482,0.52981,0.55523,0.3651,3.2004
18.2,0.53848,0.45992,0.56989,0.3651,3.1173
18.208,0.54239,0.3998,0.55523,0.3651,3.0166
18.216,0.54654,0.3651,0.54985,0.3651,2.8964
18.224,0.55094,0.33969,0.53519,0.35973,2.7546
18.232,0.55583,0.31476,0.52004,0.38514,2.6139
18.24,0.56096,0.28495,0.5,0.42473,2.4673
18.248,0.56609,0.26002,0.47996,0.46481,2.2923
18.256,0.57146,0.23998,0.47507,0.48485,2.1046
18.264,0.57708,0.2346,0.45992,0.48485,1.9198
18.272,0.5827,0.23998,0.46481,0.48485,1.7507
18.28,0.58783,0.24487,0.45992,0.47996,1.6061
18.288,0.59321,0.23998,0.47019,0.47019,1.4897
18.296,0.59809,0.2346,0.47019,0.45992,1.3988
18.304,0.60323,0.21994,0.47019,0.47507,1.3284
18.312,0.60738,0.20479,0.45992,0.48485,1.2737
18.32,0.61178,0.1999,0.47996,0.5,1.2287
18.328,0.61544,0.20479,0.47996,0.51515,1.1916
18.336,0.61911,0.18964,0.49022,0.52493,1.1662
18.344,0.62179,0.20968,0.50489,0.50489,1.1486
18.352,0.62448,0.21457,0.52493,0.47507,1.131
18.36,0.62619,0.24976,0.51515,0.43011,1.1153
18.368,0.6279,0.28006,0.51515,0.39003,1.1017
18.376,0.62839,0.30499,0.50489,0.36999,1.089
18.384,0.62912,0.31476,0.47996,0.3651,1.0772
18.392,0.62863,0.31965,0.45503,0.38514,1.0645
18.4,0.62839,0.30499,0.435,0.40469,1.0499
18.408,0.62692,0.30987,0.42473,0.41496,1.0342
18.416,0.62546,0.30987,0.41984,0.41496,1.0186
18.424,0.62277,0.30987,0.42473,0.41496,1.002
18.432,0.62033,0.30499,0.41984,0.41496,0.9912
18.44,0.61764,0.3001,0.435,0.42473,0.98534
18.448,0.61495,0.28983,0.45015,0.43011,0.98045
18.456,0.61226,0.28495,0.46481,0.42473,0.98045
18.464,0.60958,0.28983,0.47996,0.43011,0.9912
18.472,0.60665,0.25464,0.5,0.44477,1.0127
18.48,0.60371,0.20968,0.6002,0.45503,1.0479
18.488,0.60078,0.28983,0.73021,0.3348,1.0978
18.496,0.59809,0.57527,0.76002,0.069892,1.1613
18.504,0.59614,0.54008,-0.075269,0.0097752,1.2385
18.512,0.59443,0.64516,-0.50049,0.24976,1.3265
18.52,0.59345,0.65005,-0.50049,0.45503,1.4223
18.528,0.59247,0.35973,-0.32551,0.56989,1.5239
18.536,0.59199,0.28495,0.2346,0.52493,1.6158
18.544,0.59174,0.32502,0.49022,0.47996,1.7009
18.552,0.59199,0.36999,0.54985,0.45992,1.7928
18.56,0.59223,0.37977,0.53519,0.47507,1.8847
18.568,0.59321,0.35973,0.52981,0.47996,1.9717
18.576,0.59419,0.35484,0.54008,0.47507,2.0518
18.584,0.5959,0.33969,0.53519,0.49511,2.1232
18.592,0.59761,0.32991,0.54497,0.49511,2.1857
18.6,0.59883,0.33969,0.54985,0.48485,2.2395
18.608,0.60005,0.34995,0.55523,0.47996,2.2845
18.616,0.60078,0.35484,0.56989,0.47019,2.3196
18.624,0.60176,0.3651,0.58016,0.45992,2.346
18.632,0.60274,0.37977,0.59531,0.45503,2.3617
18.64,0.60371,0.37977,0.60997,0.43988,2.3685
18.648,0.60469,0.39003,0.62023,0.43988,2.3675
18.656,0.60591,0.39492,0.62023,0.44477,2.3578
18.664,0.60591,0.40469,0.62023,0.45503,2.3363
18.672,0.60616,0.44477,0.64027,0.41984,2.304
18.68,0.60542,0.5,0.6349,0.36999,2.263
18.688,0.60469,0.55523,0.63001,0.32502,2.2151
18.696,0.60298,0.60508,0.62023,0.28983,2.1632
18.704,0.60127,0.64027,0.59531,0.27468,2.1114
18.712,0.59834,0.67009,0.56989,0.26979,2.0616
18.72,0.59565,0.68035,0.55523,0.28983,2.0137
18.728,0.59101,0.65494,0.54985,0.31476,1.9697
18.736,0.58661,0.64027,0.55523,0.32502,1.9345
18.744,0.58075,0.63001,0.565,0.33969,1.9052
18.752,0.57513,0.60997,0.56989,0.35973,1.868
18.76,0.56975,0.56989,0.56989,0.38514,1.8309
18.768,0.56462,0.52004,0.565,0.39492,1.8025
18.776,0.55974,0.46481,0.55523,0.40469,1.7781
18.784,0.55485,0.40469,0.54985,0.41496,1.7556
18.792,0.54996,0.35484,0.54985,0.41984,1.7341
18.8,0.54508,0.29472,0.54985,0.43988,1.7126
18.808,0.53995,0.26002,0.54985,0.43011,1.6921
18.816,0.53482,0.24487,0.54497,0.3998,1.6716
18.824,0.52968,0.25464,0.50978,0.36999,1.651
18.832,0.52455,0.26491,0.47996,0.35484,1.6344
18.84,0.51942,0.26979,0.47996,0.35973,1.6197
18.848,0.51429,0.28495,0.47996,0.3651,1.6022
18.856,0.50892,0.3001,0.45992,0.36999,1.5836
18.864,0.50379,0.28983,0.44477,0.3998,1.565
18.872,0.49841,0.28006,0.43011,0.44477,1.5464
18.88,0.49304,0.26002,0.435,0.47507,1.5279
18.888,0.48717,0.24976,0.45503,0.48485,1.5083
18.896,0.48131,0.24976,0.45992,0.49511,1.4888
18.904,0.47496,0.26002,0.46481,0.48485,1.4692
18.912,0.46885,0.25464,0.45992,0.47996,1.4506
18.92,0.46201,0.23998,0.45503,0.47996,1.4321
18.928,0.45541,0.23998,0.47019,0.48485,1.4174
18.936,0.44833,0.22972,0.48485,0.49022,1.4057
18.944,0.44124,0.22483,0.49022,0.49022,1.392
18.952,0.43293,0.24487,0.50978,0.46481,1.3773
18.96,0.42463,0.27468,0.51515,0.43011,1.3636
18.968,0.41559,0.30499,0.50978,0.39492,1.35
18.976,0.40655,0.31965,0.5,0.39003,1.3353
18.984,0.39824,0.32991,0.47996,0.38514,1.3206
18.992,0.38993,0.33969,0.45015,0.39492,1.3069
19,0.38212,0.33969,0.43011,0.41007,1.2933
19.008,0.3743,0.3348,0.41007,0.42473,1.2825
19.016,0.3655,0.32991,0.40469,0.43988,1.2766
19.024,0.35671,0.31476,0.40469,0.45015,1.2796
19.032,0.34718,0.3001,0.40469,0.46481,1.2903
19.04,0.33765,0.28495,0.41496,0.47996,1.3099
19.048,0.32788,0.28495,0.41496,0.49022,1.3421
19.056,0.31835,0.28495,0.42473,0.49511,1.3891
19.064,0.30882,0.27468,0.43011,0.49511,1.4506
19.072,0.29929,0.26002,0.45015,0.49022,1.5239
19.08,0.29123,0.2346,0.46481,0.52004,1.6051
19.088,0.28341,0.21994,0.47019,0.52981,1.6921
19.096,0.27681,0.2346,0.47996,0.49022,1.7801
19.104,0.27046,0.26491,0.49022,0.435,1.8661
19.112,0.26533,0.30499,0.49511,0.40469,1.9482
19.12,0.26044,0.32502,0.49511,0.39003,2.0254
19.128,0.25678,0.35484,0.47507,0.3651,2.089
19.136,0.25312,0.3651,0.45503,0.3651,2.1437
19.144,0.25018,0.3651,0.435,0.39003,2.2014
19.152,0.2475,0.35484,0.42473,0.41007,2.26
19.16,0.24554,0.3651,0.40469,0.41496,2.3157
19.168,0.24359,0.35484,0.40469,0.40469,2.3685
19.176,0.24261,0.30987,0.43988,0.43011,2.4174
19.184,0.24163,0.2346,0.54985,0.43988,2.4604
19.192,0.24139,0.32502,0.71017,0.30987,2.4985
19.2,0.24139,0.64516,0.74536,-0.00048876,2.5288
19.208,0.24188,0.72532,-0.16569,-0.09042,2.5523
19.216,0.24237,0.81036,-0.50049,0.15982,2.5679
19.224,0.2431,0.64516,-0.50049,0.45015,2.5738
19.232,0.24408,0.32502,-0.41056,0.61486,2.5699
19.24,0.24481,0.20968,0.2346,0.62512,2.5572
19.248,0.24554,0.26002,0.51515,0.49511,2.5367
19.256,0.24579,0.34506,0.58016,0.41984,2.5103
19.264,0.24627,0.37488,0.58993,0.3998,2.477
19.272,0.24603,0.39003,0.58016,0.39492,2.4389
19.28,0.24603,0.40469,0.56989,0.39492,2.3978
19.288,0.2453,0.41496,0.56012,0.40469,2.3548
19.296,0.24481,0.41007,0.54497,0.435,2.3118
19.304,0.24383,0.40469,0.52981,0.45015,2.2688
19.312,0.24285,0.41496,0.52493,0.44477,2.2278
19.32,0.24139,0.41496,0.53519,0.44477,2.1877
19.328,0.24017,0.42473,0.54008,0.43988,2.1525
19.336,0.23821,0.41984,0.54497,0.43988,2.1202
19.344,0.23626,0.42473,0.54985,0.44477,2.086
19.352,0.23381,0.42473,0.55523,0.45015,2.0518
19.36,0.23137,0.42473,0.56989,0.43988,2.0176
19.368,0.22893,0.43988,0.57527,0.43988,1.9844
19.376,0.22648,0.45015,0.58504,0.44477,1.9511
19.384,0.22429,0.45015,0.58993,0.45992,1.9189
19.392,0.22209,0.49511,0.60508,0.435,1.8866
19.4,0.22013,0.53519,0.62023,0.39003,1.8543
19.408,0.21818,0.58016,0.62023,0.34995,1.824
19.416,0.21622,0.63001,0.62023,0.32502,1.7937
19.424,0.21427,0.67009,0.60508,0.30499,1.7634
19.432,0.21231,0.69013,0.57527,0.30987,1.737
19.44,0.21036,0.68524,0.54985,0.32991,1.7136
19.448,0.20865,0.6652,0.52493,0.3651,1.6872
19.456,0.20694,0.65005,0.51515,0.37488,1.6598
19.464,0.20523,0.62023,0.5,0.38514,1.6334
19.472,0.20352,0.58016,0.49511,0.39003,1.607
19.48,0.20181,0.52981,0.47996,0.38514,1.5816
19.488,0.2001,0.47996,0.47507,0.37977,1.5562
19.496,0.19863,0.41496,0.45992,0.39003,1.5318
19.504,0.19717,0.3651,0.45992,0.39492,1.5083
19.512,0.19546,0.31476,0.45992,0.41984,1.4858
19.52,0.19399,0.26002,0.45992,0.45503,1.4653
19.528,0.1913,0.21994,0.45503,0.47996,1.4497
19.536,0.18886,0.18964,0.45503,0.50489,1.437
19.544,0.18544,0.17986,0.45992,0.52004,1.4223
19.552,0.18226,0.1999,0.49022,0.49022,1.4076
19.56,0.17884,0.21994,0.5,0.45015,1.393
19.568,0.17542,0.25464,0.5,0.41007,1.3783
19.576,0.17176,0.28006,0.5,0.39492,1.3646
19.584,0.16834,0.30499,0.48485,0.37977,1.3509
19.592,0.16345,0.28983,0.47996,0.38514,1.3372
19.6,0.15881,0.28006,0.58993,0.32991,1.3236
19.608,0.1527,0.56989,0.68524,0.079668,1.3099
19.616,0.14684,0.92033,0.2346,-0.12561,1.2962
19.624,0.14097,0.75513,-0.50049,0.12952,1.2835
19.632,0.13535,0.6652,-0.50049,0.52493,1.2747
19.64,0.12949,0.49022,-0.50049,0.57527,1.2669
19.648,0.12387,0.28983,0.0097752,0.565,1.2571
19.656,0.11678,0.26002,0.41007,0.49511,1.2463
19.664,0.10994,0.31965,0.52493,0.42473,1.2346
19.672,0.10213,0.32991,0.54985,0.41496,1.2229
19.68,0.094307,0.30987,0.54985,0.435,1.2121
19.688,0.086733,0.3001,0.55523,0.44477,1.2014
19.696,0.07916,0.28983,0.55523,0.47019,1.1926
19.704,0.072074,0.26002,0.565,0.50489,1.1848
19.712,0.064989,0.26979,0.57527,0.50978,1.1818
19.72,0.059125,0.30499,0.59531,0.435,1.1857
19.728,0.053506,0.32991,0.58993,0.40469,1.1975
19.736,0.048864,0.35973,0.58016,0.39003,1.219
19.744,0.044222,0.3998,0.56989,0.36999,1.2542
19.752,0.040313,0.41984,0.54985,0.3651,1.305
19.76,0.036648,0.43011,0.53519,0.37488,1.3724
19.768,0.033716,0.43011,0.52981,0.39003,1.4545
19.776,0.030784,0.45015,0.53519,0.37977,1.5474
19.784,0.029074,0.46481,0.53519,0.38514,1.6481
19.792,0.027608,0.48485,0.54497,0.38514,1.7517
19.8,0.027364,0.5,0.54008,0.37488,1.8563
19.808,0.027119,0.52004,0.54497,0.3651,1.9589
19.816,0.027608,0.53519,0.54008,0.3651,2.0577
19.824,0.028341,0.54985,0.54985,0.35484,2.1515
19.832,0.029563,0.565,0.54497,0.34506,2.2278
19.84,0.031029,0.565,0.54497,0.35484,2.2933
19.848,0.032739,0.54985,0.54008,0.3651,2.3627
19.856,0.034449,0.54985,0.54497,0.3651,2.4301
19.864,0.036404,0.52004,0.53519,0.39003,2.4936
19.872,0.038602,0.48485,0.57527,0.40469,2.5523
19.88,0.040801,0.45992,0.59531,0.35973,2.6041
19.888,0.043245,0.435,0.58993,0.33969,2.6491
19.896,0.045443,0.41496,0.57527,0.31965,2.6862
19.904,0.047887,0.39003,0.56012,0.32502,2.7165
19.912,0.048864,0.36999,0.53519,0.34995,2.739
19.92,0.050086,0.3348,0.51515,0.37977,2.7537
19.928,0.049841,0.30499,0.49022,0.41496,2.7566
19.936,0.049841,0.28006,0.47996,0.435,2.7498
19.944,0.049353,0.26979,0.47507,0.45503,2.7361
19.952,0.048864,0.26002,0.46481,0.45992,2.7155
19.96,0.047887,0.26491,0.45992,0.45992,2.6872
19.968,0.047154,0.26979,0.45992,0.44477,2.651
19.976,0.045199,0.27468,0.46481,0.43988,2.608
19.984,0.043245,0.28495,0.47019,0.45015,2.5621
19.992,0.040313,0.29472,0.47507,0.43988,2.5132
20,0.037625,0.26979,0.48485,0.45503,2.4633
20.008,0.034449,0.24487,0.5,0.47019,2.4145
20.016,0.031517,0.2346,0.50978,0.48485,2.3666
20.024,0.028341,0.25464,0.54497,0.44477,2.3216
20.032,0.025409,0.27468,0.56012,0.3998,2.2825
20.04,0.022722,0.30499,0.55523,0.36999,2.2463
20.048,0.020279,0.31965,0.56012,0.37977,2.2102
20.056,0.018324,0.32991,0.52981,0.36999,2.175
20.064,0.016369,0.3348,0.50978,0.37977,2.1408
20.072,0.015392,0.32502,0.49511,0.41007,2.1075
20.08,0.014659,0.30499,0.47996,0.43988,2.0743
20.088,0.014903,0.29472,0.47996,0.45503,2.0411
20.096,0.015148,0.28495,0.45503,0.45992,2.0088
20.104,0.016125,0.27468,0.44477,0.45992,1.9765
20.112,0.017347,0.28006,0.43988,0.45503,1.9443
20.12,0.019057,0.28006,0.43988,0.45015,1.912
20.128,0.021011,0.28006,0.45015,0.43988,1.8827
20.136,0.024188,0.26491,0.43988,0.45503,1.8553
20.144,0.027364,0.25464,0.435,0.47996,1.825
20.152,0.031762,0.24487,0.44477,0.49022,1.7957
20.16,0.036159,0.22972,0.45015,0.50978,1.7674
20.168,0.041046,0.21457,0.45992,0.52493,1.7439
20.176,0.046176,0.22483,0.57527,0.45503,1.7263
20.184,0.051796,0.26002,0.67498,0.3348,1.7155
20.192,0.057415,0.58504,0.75513,0.029814,1.7146
20.2,0.06279,0.86022,0.3998,-0.16569,1.7234
20.208,0.068165,0.71505,-0.22043,0.034702,1.741
20.216,0.073296,0.58504,-0.50049,0.42473,1.7674
20.224,0.078671,0.26491,-0.50049,0.73021,1.7986
20.232,0.083802,0.18475,-0.075269,0.75024,1.8299
20.24,0.088932,0.28495,0.34506,0.53519,1.8602
20.248,0.093574,0.34995,0.47019,0.45503,1.8944
20.256,0.098461,0.36999,0.47996,0.42473,1.9277
20.264,0.10261,0.37488,0.47507,0.42473,1.957
20.272,0.10701,0.36999,0.49022,0.41984,1.9814
20.28,0.11068,0.34995,0.47996,0.43011,1.999
20.288,0.11459,0.32502,0.49022,0.44477,2.0098
20.296,0.11825,0.32502,0.48485,0.45992,2.0117
20.304,0.12216,0.32991,0.49511,0.46481,2.0059
20.312,0.12607,0.33969,0.5,0.46481,1.9932
20.32,0.12998,0.32991,0.5,0.45992,1.9736
20.328,0.13364,0.34995,0.49511,0.43988,1.9511
20.336,0.13755,0.39003,0.54985,0.39003,1.9267
20.344,0.14122,0.43011,0.565,0.33969,1.8954
20.352,0.14513,0.47996,0.55523,0.29472,1.8583
20.36,0.14879,0.51515,0.52981,0.28006,1.8182
20.368,0.15246,0.54008,0.50489,0.27468,1.7742
20.376,0.15612,0.54985,0.48485,0.29472,1.7273
20.384,0.16003,0.565,0.47996,0.3001,1.6804
20.392,0.16467,0.59531,0.47019,0.30987,1.6354
20.4,0.16931,0.62512,0.47019,0.29472,1.5973
20.408,0.17469,0.64516,0.45992,0.28495,1.567
20.416,0.18006,0.65005,0.45992,0.27468,1.5464
20.424,0.18544,0.63001,0.46481,0.29472,1.5308
20.432,0.19081,0.62512,0.45992,0.3001,1.521
20.44,0.19619,0.60508,0.45503,0.31476,1.5093
20.448,0.20181,0.58016,0.44477,0.31965,1.4868
20.456,0.20816,0.52981,0.44477,0.33969,1.4497
20.464,0.21451,0.47996,0.45015,0.37488,1.3959
20.472,0.2216,0.41984,0.43011,0.39003,1.3265
20.48,0.22868,0.34995,0.42473,0.42473,1.2473
20.488,0.23699,0.32991,0.43988,0.41007,1.1662
20.496,0.2453,0.30987,0.47996,0.39492,1.0948
20.504,0.25434,0.28983,0.49022,0.37488,1.043
20.512,0.26338,0.29472,0.49511,0.36999,1.0186
20.52,0.27144,0.28495,0.47996,0.35973,1.0235
20.528,0.27975,0.28495,0.45015,0.37488,1.0489
20.536,0.28708,0.28495,0.435,0.40469,1.089
20.544,0.29465,0.26002,0.41496,0.43988,1.1398
20.552,0.30198,0.23998,0.41007,0.45992,1.1906
20.56,0.30931,0.23998,0.3998,0.45992,1.2307
20.568,0.31639,0.23998,0.40469,0.47507,1.2561
20.576,0.32372,0.24976,0.39492,0.45992,1.2669
20.584,0.32983,0.25464,0.40469,0.45015,1.2669
20.592,0.33594,0.25464,0.41496,0.45015,1.26
20.6,0.34107,0.26002,0.43011,0.44477,1.2493
20.608,0.34645,0.24976,0.435,0.43988,1.2366
20.616,0.35133,0.24487,0.45015,0.45015,1.2209
20.624,0.35646,0.24976,0.47019,0.45503,1.2033
20.632,0.36135,0.24487,0.49022,0.45015,1.1887
20.64,0.36624,0.28006,0.51515,0.41984,1.176
20.648,0.37039,0.28983,0.54008,0.37488,1.1593
20.656,0.37479,0.30499,0.54497,0.34506,1.1437
20.664,0.3787,0.32502,0.54008,0.3348,1.13
20.672,0.3826,0.34995,0.52981,0.34506,1.1202
20.68,0.38651,0.35484,0.52004,0.34995,1.1124
20.688,0.39042,0.34995,0.5,0.38514,1.1056
20.696,0.39458,0.32991,0.48485,0.40469,1.0987
20.704,0.39873,0.32991,0.47996,0.41496,1.0919
20.712,0.40288,0.32502,0.47019,0.41984,1.087
20.72,0.40704,0.31965,0.47507,0.43988,1.086
20.728,0.41119,0.31965,0.45503,0.44477,1.0938
20.736,0.41534,0.30987,0.45992,0.43988,1.1105
20.744,0.41901,0.30987,0.46481,0.44477,1.1388
20.752,0.42292,0.31965,0.47996,0.3651,1.1818
20.76,0.42609,0.31476,0.47019,0.39003,1.2395
20.768,0.42951,0.30987,0.46481,0.41496,1.3118
20.776,0.43245,0.29472,0.45503,0.44477,1.3959
20.784,0.43562,0.28495,0.45015,0.45992,1.4878
20.792,0.43831,0.28495,0.44477,0.47996,1.5846
20.8,0.441,0.26979,0.44477,0.48485,1.7126
20.808,0.44246,0.26002,0.45503,0.49022,1.8573
20.816,0.44393,0.26491,0.45503,0.47507,1.9804
20.824,0.44442,0.25464,0.45503,0.49022,2.0762
20.832,0.44515,0.24976,0.47019,0.49511,2.1564
20.84,0.44539,0.28006,0.52004,0.37488,2.2366
20.848,0.44564,0.28495,0.57527,0.30987,2.3118
20.856,0.44564,0.26979,0.65494,0.29472,2.3803
20.864,0.44564,0.3651,0.73509,0.20968,2.4409
20.872,0.44491,0.71994,0.76002,-0.060606,2.4927
20.88,0.44442,0.81036,0.10948,-0.12561,2.5357
20.888,0.4432,0.6652,-0.50049,0.28006,2.5699
20.896,0.44222,0.48485,-0.50049,0.6349,2.5943
20.904,0.44051,0.26491,-0.45552,0.7654,2.609
20.912,0.43904,0.28006,0.10459,0.61486,2.6139
20.92,0.43709,0.32991,0.3998,0.52004,2.608
20.928,0.43538,0.37488,0.47507,0.47507,2.5943
20.936,0.43269,0.39003,0.48485,0.44477,2.5738
20.944,0.43,0.38514,0.47996,0.45503,2.5455
20.952,0.42658,0.37977,0.49022,0.45992,2.5122
20.96,0.42341,0.37977,0.47996,0.47507,2.4751
20.968,0.41901,0.38514,0.49022,0.47996,2.435
20.976,0.41485,0.39003,0.50978,0.45992,2.3939
20.984,0.40997,0.3651,0.54985,0.47019,2.3539
20.992,0.40508,0.35484,0.57527,0.47507,2.3157
21,0.40044,0.37488,0.60997,0.41984,2.2786
21.008,0.39604,0.41007,0.61486,0.36999,2.2424
21.016,0.39164,0.43988,0.60508,0.33969,2.2082
21.024,0.38749,0.47019,0.6002,0.31476,2.1779
21.032,0.3826,0.5,0.58504,0.30499,2.1515
21.04,0.37772,0.52493,0.55523,0.3001,2.1241
21.048,0.3721,0.54497,0.51515,0.31476,2.0968
21.056,0.36672,0.54985,0.5,0.33969,2.0704
21.064,0.36135,0.57527,0.47996,0.34506,2.044
21.072,0.35597,0.60508,0.47507,0.32991,2.0176
21.08,0.35035,0.62512,0.47019,0.3348,1.9922
21.088,0.34498,0.6349,0.47507,0.32991,1.9668
21.096,0.33887,0.64516,0.48485,0.34506,1.9423
21.104,0.33301,0.6349,0.49022,0.35973,1.9179
21.112,0.3269,0.61486,0.5,0.3998,1.8925
21.12,0.32079,0.6002,0.51515,0.43011,1.8671
21.128,0.31542,0.56989,0.54497,0.435,1.8446
21.136,0.31004,0.55523,0.56012,0.38514,1.8231
21.144,0.30516,0.52004,0.54985,0.37488,1.7977
21.152,0.30051,0.47996,0.54008,0.3651,1.7703
21.16,0.29612,0.435,0.52493,0.35973,1.7419
21.168,0.29196,0.3998,0.50489,0.3651,1.7136
21.176,0.2883,0.35973,0.47996,0.39003,1.6852
21.184,0.28463,0.31476,0.45992,0.41496,1.6579
21.192,0.2817,0.28983,0.44477,0.42473,1.6325
21.2,0.27877,0.26002,0.44477,0.45992,1.608
21.208,0.27657,0.24487,0.435,0.48485,1.5846
21.216,0.27437,0.23998,0.43011,0.49022,1.5611
21.224,0.27315,0.2346,0.435,0.49511,1.5425
21.232,0.27193,0.23998,0.46481,0.40469,1.5269
21.24,0.27144,0.2346,0.47996,0.41984,1.5083
21.248,0.27119,0.21457,0.47996,0.47996,1.4888
21.256,0.27095,0.21457,0.47019,0.50978,1.4682
21.264,0.27071,0.22972,0.45503,0.51515,1.4497
21.272,0.27046,0.2346,0.47019,0.5,1.4321
21.28,0.27022,0.25464,0.45503,0.46481,1.4145
21.288,0.26997,0.26491,0.45503,0.44477,1.3978
21.296,0.26973,0.28495,0.44477,0.43988,1.3832
21.304,0.26948,0.29472,0.42473,0.43988,1.3695
21.312,0.26948,0.30987,0.40469,0.44477,1.3558
21.32,0.26924,0.31476,0.39003,0.45503,1.3431
21.328,0.26924,0.30987,0.38514,0.46481,1.3353
21.336,0.26924,0.30987,0.38514,0.47019,1.3284
21.344,0.26924,0.30987,0.37488,0.48485,1.3187
21.352,0.26948,0.30987,0.37977,0.49511,1.3079
21.36,0.26997,0.30987,0.37488,0.50489,1.2972
21.368,0.27071,0.3001,0.37977,0.51515,1.2864
21.376,0.27168,0.28983,0.38514,0.52981,1.2766
21.384,0.2729,0.28006,0.41007,0.53519,1.2717
21.392,0.27413,0.24976,0.42473,0.57527,1.2747
