Time [s], PLETH, RESP, II, V, AVR
0,1.1848,0.8903,0.13978,0.84473,0.81006
0.008,1.1642,0.89543,0.11975,0.85986,0.83008
0.016,1.1466,0.90081,0.094819,0.89014,0.85986
0.024,1.1349,0.9052,0.17498,0.86475,0.81006
0.032,1.1339,0.9096,0.49511,0.68018,0.5752
0.04,1.1515,0.91302,1.0806,0.3252,0.10986
0.048,1.1828,0.91669,1.3206,0.12012,-0.064941
0.056,1.2336,0.91962,0.56989,0.26514,0.38525
0.064,1.3157,0.9228,-0.030303,0.50488,0.7998
0.072,1.4262,0.92524,-0.10557,0.6748,0.90967
0.08,1.563,0.92793,-0.020528,0.79492,0.9248
0.088,1.7185,0.93012,0.0043988,0.88477,0.92969
0.096,1.8856,0.93232,0.029814,0.90479,0.90479
0.104,2.0538,0.93428,0.039589,0.91504,0.90479
0.112,2.217,0.93623,0.049853,0.91504,0.89502
0.12,2.3666,0.93794,0.054741,0.91504,0.89014
0.128,2.4956,0.93965,0.054741,0.91504,0.88477
0.136,2.6022,0.94112,0.059629,0.91504,0.88477
0.144,2.6833,0.94283,0.069892,0.91504,0.88477
0.152,2.7341,0.94478,0.069892,0.90967,0.87988
0.16,2.7605,0.94674,0.07478,0.91504,0.875
0.168,2.7732,0.94894,0.079668,0.91504,0.87012
0.176,2.7683,0.95114,0.094819,0.91504,0.86475
0.184,2.7468,0.95309,0.099707,0.91504,0.85986
0.192,2.7097,0.95529,0.10459,0.91504,0.85986
0.2,2.6579,0.957,0.11486,0.91504,0.85498
0.208,2.5924,0.95871,0.11486,0.91992,0.85986
0.216,2.5142,0.95969,0.11486,0.92969,0.85986
0.224,2.4252,0.96091,0.10948,0.93994,0.85986
0.232,2.3265,0.9614,0.10459,0.94482,0.85986
0.24,2.2209,0.96189,0.099707,0.95996,0.875
0.248,2.1241,0.96237,0.094819,0.96484,0.875
0.256,2.0323,0.96286,0.094819,0.9751,0.88477
0.264,1.9306,0.9636,0.10948,0.9751,0.875
0.272,1.827,0.96433,0.11486,0.96973,0.87012
0.28,1.7273,0.96506,0.14467,0.95996,0.8501
0.288,1.6344,0.9658,0.17986,0.93994,0.81982
0.296,1.5513,0.96653,0.23998,0.90967,0.7749
0.304,1.48,0.96726,0.29472,0.87988,0.73486
0.312,1.4213,0.96751,0.32502,0.84473,0.71484
0.32,1.3744,0.96799,0.32991,0.81982,0.7002
0.328,1.3402,0.96775,0.30987,0.81006,0.70996
0.336,1.3167,0.96775,0.30987,0.79492,0.70996
0.344,1.303,0.96726,0.29472,0.79492,0.71484
0.352,1.2991,0.96677,0.28006,0.79004,0.71973
0.36,1.3021,0.9658,0.26979,0.79492,0.7251
0.368,1.3079,0.96506,0.26979,0.79004,0.72998
0.376,1.3167,0.96311,0.28006,0.79004,0.7251
0.384,1.3265,0.96115,0.28006,0.79004,0.72998
0.392,1.3372,0.95822,0.3001,0.78516,0.71973
0.4,1.347,0.95553,0.3001,0.78516,0.71973
0.408,1.3558,0.95285,0.31965,0.77979,0.7002
0.416,1.3627,0.95016,0.34506,0.79004,0.68018
0.424,1.3734,0.94747,0.37977,0.78516,0.64502
0.432,1.3842,0.94503,0.3998,0.78516,0.625
0.44,1.39,0.94112,0.40469,0.78516,0.625
0.448,1.3939,0.93745,0.39492,0.79004,0.62988
0.456,1.3959,0.93257,0.37488,0.78516,0.64502
0.464,1.393,0.92768,0.34995,0.78516,0.66504
0.472,1.3871,0.92231,0.30987,0.79492,0.69482
0.48,1.3783,0.91718,0.26491,0.81494,0.7251
0.488,1.3675,0.91156,0.23998,0.81494,0.74512
0.496,1.3539,0.90618,0.22483,0.81006,0.75488
0.504,1.3392,0.90056,0.20968,0.81494,0.75977
0.512,1.3226,0.89494,0.20479,0.81982,0.76514
0.52,1.305,0.88908,0.19501,0.81982,0.77002
0.528,1.2864,0.88322,0.1999,0.81494,0.7749
0.536,1.2708,0.87735,0.18475,0.82471,0.78516
0.544,1.263,0.87149,0.13978,0.85986,0.81982
0.552,1.2649,0.86562,0.17498,0.87012,0.83008
0.56,1.2776,0.85976,0.36999,0.79492,0.68018
0.568,1.3109,0.8539,0.8651,0.5752,0.29004
0.576,1.3705,0.84803,1.501,0.19531,-0.20459
0.584,1.4624,0.84168,1.2253,0.10986,-0.054688
0.592,1.5865,0.83557,0.49022,0.29004,0.43018
0.6,1.74,0.82775,0.099707,0.5,0.73486
0.608,1.9169,0.82018,0.044477,0.68018,0.84473
0.616,2.1085,0.81114,0.01955,0.81982,0.8999
0.624,2.305,0.8021,-0.00048876,0.89014,0.92969
0.632,2.4976,0.79208,-0.0053763,0.90967,0.92969
0.64,2.6774,0.78207,-0.00048876,0.91504,0.92969
0.648,2.8182,0.77132,-0.0053763,0.91992,0.92969
0.656,2.9286,0.76057,-0.00048876,0.9248,0.92969
0.664,3.0313,0.75031,-0.0053763,0.93506,0.92969
0.672,3.1163,0.74004,-0.010264,0.92969,0.92969
0.68,3.1789,0.72978,-0.010264,0.93506,0.92969
0.688,3.217,0.71977,-0.020528,0.93994,0.92969
0.696,3.2336,0.70853,-0.025415,0.93994,0.92969
0.704,3.2297,0.69753,-0.010264,0.93994,0.9248
0.712,3.2072,0.68556,-0.015152,0.93994,0.92969
0.72,3.1681,0.67359,-0.020528,0.94971,0.92969
0.728,3.1153,0.66235,-0.025415,0.94971,0.92969
0.736,3.0508,0.65111,-0.025415,0.95996,0.93506
0.744,2.9814,0.64036,-0.030303,0.95996,0.93994
0.752,2.9062,0.62961,-0.045455,0.9751,0.94971
0.76,2.8182,0.61788,-0.060606,0.98486,0.95508
0.768,2.7185,0.60616,-0.060606,1,0.96484
0.776,2.61,0.59345,-0.080645,1.0098,0.9751
0.784,2.4956,0.58099,-0.1002,1.0298,0.99512
0.792,2.3793,0.56829,-0.10557,1.0298,1
0.8,2.263,0.55558,-0.070381,1.0298,0.98486
0.808,2.1496,0.54288,-0.065494,1.02,0.9751
0.816,2.042,0.53042,-0.025415,1.0049,0.94971
0.824,1.9433,0.51893,0.029814,0.97998,0.90967
0.832,1.8543,0.50745,0.099707,0.94482,0.85498
0.84,1.7781,0.49646,0.15982,0.90967,0.81494
0.848,1.7204,0.48571,0.18475,0.88477,0.79004
0.856,1.6755,0.4752,0.18964,0.86475,0.78516
0.864,1.6373,0.4647,0.17498,0.85498,0.77979
0.872,1.607,0.45419,0.16471,0.84473,0.78516
0.88,1.5865,0.44393,0.15494,0.84473,0.79004
0.888,1.5748,0.43464,0.14956,0.84473,0.79004
0.896,1.5689,0.42536,0.15982,0.83984,0.79004
0.904,1.5689,0.41681,0.15494,0.83984,0.79004
0.912,1.5728,0.4085,0.16471,0.83496,0.78516
0.92,1.5777,0.40044,0.17498,0.83496,0.7749
0.928,1.5826,0.39238,0.18475,0.83008,0.77002
0.936,1.5855,0.38431,0.17986,0.83496,0.7749
0.944,1.5875,0.37625,0.20968,0.83984,0.75977
0.952,1.5885,0.36819,0.23998,0.83496,0.7251
0.96,1.5865,0.36037,0.25464,0.83496,0.70508
0.968,1.5816,0.3528,0.27468,0.83496,0.7002
0.976,1.5738,0.34522,0.26002,0.83496,0.70996
0.984,1.563,0.33912,0.24976,0.83496,0.71973
0.992,1.5494,0.33325,0.21994,0.83008,0.73975
1,1.5327,0.32837,0.1999,0.83984,0.75977
1.008,1.5142,0.32348,0.18475,0.84473,0.77979
1.016,1.4927,0.31859,0.15494,0.84473,0.7998
1.024,1.4702,0.31395,0.12952,0.84473,0.81494
1.032,1.4457,0.30906,0.11486,0.84473,0.81982
1.04,1.4194,0.30442,0.11975,0.84473,0.81982
1.048,1.3969,0.30002,0.10459,0.84473,0.83008
1.056,1.3773,0.29587,0.11486,0.84473,0.81982
1.064,1.3568,0.29196,0.094819,0.8501,0.83008
1.072,1.3402,0.28805,0.07478,0.875,0.85986
1.08,1.3343,0.2839,0.069892,0.89502,0.875
1.088,1.347,0.27975,0.26979,0.83984,0.73975
1.096,1.3842,0.27535,0.76002,0.64502,0.34521
1.104,1.4516,0.27119,1.4409,0.26025,-0.19971
1.112,1.5513,0.26606,1.4555,0.11523,-0.22998
1.12,1.6813,0.26118,0.54008,0.22998,0.35498
1.128,1.8368,0.2558,0.1349,0.45508,0.68994
1.136,2.0127,0.25043,0.059629,0.65479,0.83008
1.144,2.173,0.2453,-0.010264,0.81982,0.91992
1.152,2.3226,0.24041,-0.045455,0.8999,0.95996
1.16,2.4868,0.23552,-0.045455,0.91992,0.96484
1.168,2.6491,0.23064,-0.050342,0.92969,0.96484
1.176,2.7967,0.22551,-0.045455,0.93506,0.96973
1.184,2.9238,0.22038,-0.040567,0.93506,0.95508
1.192,3.0264,0.215,-0.050342,0.93994,0.95996
1.2,3.1026,0.20963,-0.045455,0.94482,0.95508
1.208,3.1535,0.2045,-0.035191,0.94482,0.95508
1.216,3.1808,0.19961,-0.030303,0.94482,0.94971
1.224,3.1877,0.19497,-0.045455,0.95508,0.95508
1.232,3.176,0.19032,-0.035191,0.95996,0.94971
1.24,3.1476,0.18544,-0.025415,0.94971,0.94482
1.248,3.1085,0.1808,-0.030303,0.95508,0.94971
1.256,3.0596,0.17567,-0.035191,0.95996,0.94971
1.264,2.999,0.17078,-0.040567,0.96973,0.95508
1.272,2.9267,0.16565,-0.045455,0.98486,0.95996
1.28,2.8446,0.16052,-0.045455,0.98486,0.95508
1.288,2.7527,0.15563,-0.05523,1.0049,0.96973
1.296,2.652,0.15075,-0.060606,1.0098,0.9751
1.304,2.5435,0.14684,-0.070381,1.0249,0.98975
1.312,2.4291,0.14293,-0.070381,1.0298,0.99512
1.32,2.3109,0.13975,-0.085533,1.04,1
1.328,2.1906,0.13657,-0.060606,1.0298,0.98975
1.336,2.0723,0.13291,-0.045455,1.0298,0.97998
1.344,1.9707,0.12949,-0.025415,1.0098,0.95996
1.352,1.8807,0.12582,0.034702,0.97998,0.91992
1.36,1.7889,0.1224,0.089932,0.94971,0.875
1.368,1.7019,0.11996,0.14956,0.90967,0.82471
1.376,1.6237,0.11752,0.16471,0.89014,0.79492
1.384,1.5572,0.11605,0.1696,0.87012,0.78516
1.392,1.5034,0.11483,0.16471,0.8501,0.7749
1.4,1.4614,0.11336,0.17986,0.84473,0.77002
1.408,1.4311,0.1119,0.16471,0.83984,0.77979
1.416,1.4115,0.11019,0.14956,0.83984,0.77979
1.424,1.4008,0.10848,0.16471,0.83496,0.77002
1.432,1.3978,0.10652,0.16471,0.83496,0.7749
1.44,1.4008,0.10457,0.15982,0.83984,0.77979
1.448,1.4076,0.10261,0.17498,0.83496,0.7749
1.456,1.4154,0.1009,0.18475,0.83008,0.77002
1.464,1.4233,0.099438,0.17498,0.83496,0.7749
1.472,1.4301,0.097972,0.19501,0.83984,0.75488
1.48,1.435,0.096751,0.22972,0.84473,0.7251
1.488,1.436,0.095773,0.2346,0.84473,0.71973
1.496,1.434,0.094307,0.24487,0.84473,0.71973
1.504,1.4301,0.093086,0.22483,0.84473,0.72998
1.512,1.4233,0.09162,0.22483,0.83496,0.73975
1.52,1.4125,0.090398,0.20968,0.83008,0.75488
1.528,1.3988,0.08991,0.17498,0.84473,0.77979
1.536,1.3822,0.089421,0.13978,0.85498,0.80469
1.544,1.3666,0.089421,0.11486,0.84473,0.82471
1.552,1.3509,0.089665,0.099707,0.84473,0.83496
1.56,1.3304,0.08991,0.084555,0.8501,0.83984
1.568,1.306,0.090154,0.094819,0.84473,0.83496
1.576,1.2796,0.090398,0.10459,0.84473,0.83496
1.584,1.2522,0.090643,0.094819,0.84473,0.83496
1.592,1.2268,0.090887,0.084555,0.8501,0.8501
1.6,1.2072,0.091131,0.059629,0.875,0.87988
1.608,1.2014,0.091376,0.084555,0.89014,0.89014
1.616,1.2141,0.09162,0.34506,0.79004,0.68506
1.624,1.2522,0.09162,0.93011,0.52979,0.18506
1.632,1.3206,0.091864,1.4609,0.1499,-0.25977
1.64,1.4213,0.092108,1.0806,0.040039,-0.040039
1.648,1.5308,0.092353,0.40469,0.22021,0.44482
1.656,1.653,0.092353,0.1349,0.47021,0.70508
1.664,1.8084,0.092597,0.059629,0.68018,0.8501
1.672,1.9844,0.092841,-0.010264,0.8501,0.93506
1.68,2.1681,0.093086,-0.020528,0.90479,0.95508
1.688,2.349,0.093086,-0.030303,0.9248,0.96484
1.696,2.5181,0.09333,-0.025415,0.93506,0.95508
1.704,2.6676,0.093574,-0.025415,0.93506,0.95508
1.712,2.7928,0.093819,-0.025415,0.93994,0.95508
1.72,2.8925,0.093819,-0.020528,0.93994,0.95508
1.728,2.9658,0.094063,-0.015152,0.94482,0.94482
1.736,3.0137,0.094063,-0.010264,0.94482,0.94482
1.744,3.0352,0.094307,-0.010264,0.94971,0.94482
1.752,3.0362,0.093819,-0.010264,0.94482,0.94482
1.76,3.0235,0.093574,-0.010264,0.95508,0.93994
1.768,2.998,0.092841,-0.0053763,0.95996,0.94482
1.776,2.9589,0.092108,-0.00048876,0.95996,0.93994
1.784,2.9081,0.091376,-0.010264,0.96973,0.94482
1.792,2.8456,0.090887,-0.010264,0.98486,0.94971
1.8,2.7722,0.090398,-0.015152,0.98975,0.95508
1.808,2.6882,0.08991,-0.020528,1,0.95508
1.816,2.5943,0.088932,-0.030303,1.0098,0.96973
1.824,2.4927,0.088199,-0.040567,1.02,0.9751
1.832,2.3842,0.087222,-0.045455,1.0298,0.98486
1.84,2.2708,0.086245,-0.045455,1.04,0.98975
1.848,2.1681,0.085268,-0.035191,1.04,0.98975
1.856,2.0723,0.084535,-0.030303,1.0449,0.97998
1.864,1.9677,0.084046,-0.0053763,1.0298,0.96484
1.872,1.8622,0.083557,0.034702,1.0049,0.93506
1.88,1.7605,0.083313,0.094819,0.97998,0.89014
1.888,1.6647,0.083069,0.15494,0.94482,0.83984
1.896,1.5787,0.082824,0.19501,0.90967,0.79492
1.904,1.5044,0.082824,0.20968,0.88477,0.77002
1.912,1.4428,0.083313,0.21457,0.85986,0.76514
1.92,1.3939,0.083802,0.20968,0.84473,0.75977
1.928,1.3578,0.084779,0.20968,0.84473,0.75488
1.936,1.3333,0.086,0.20479,0.83496,0.75488
1.944,1.3206,0.087222,0.19501,0.83496,0.75977
1.952,1.3167,0.088688,0.1999,0.83496,0.75977
1.96,1.3177,0.090154,0.18964,0.83984,0.75977
1.968,1.3226,0.091864,0.20479,0.83496,0.75488
1.976,1.3294,0.094063,0.21994,0.83496,0.75
1.984,1.3382,0.096506,0.22483,0.83008,0.75
1.992,1.347,0.099194,0.2346,0.83008,0.73975
2,1.3558,0.10188,0.26002,0.83984,0.71973
2.008,1.3636,0.10457,0.28983,0.83496,0.68994
2.016,1.3685,0.10726,0.30987,0.83008,0.68018
2.024,1.3705,0.1097,0.3001,0.84473,0.68506
2.032,1.3685,0.11239,0.28495,0.83496,0.69482
2.04,1.3627,0.11507,0.28006,0.82471,0.70508
2.048,1.3568,0.11801,0.24976,0.83008,0.72998
2.056,1.349,0.12118,0.21994,0.83496,0.75
2.064,1.3353,0.12436,0.18475,0.83984,0.77979
2.072,1.3167,0.12705,0.16471,0.83984,0.79492
2.08,1.2952,0.12998,0.15494,0.83984,0.7998
2.088,1.2717,0.13267,0.14956,0.83496,0.80469
2.096,1.2454,0.13535,0.14956,0.83496,0.80469
2.104,1.218,0.13804,0.13978,0.83984,0.81494
2.112,1.1906,0.14097,0.13978,0.83984,0.80469
2.12,1.1672,0.1439,0.11975,0.84473,0.83008
2.128,1.1525,0.14708,0.089932,0.875,0.86475
2.136,1.1505,0.14977,0.079668,0.87988,0.875
2.144,1.1642,0.15246,0.34995,0.72998,0.68018
2.152,1.1975,0.15465,0.88514,0.39502,0.22021
2.16,1.2581,0.1571,1.3656,0.024902,-0.15967
2.168,1.35,0.15905,0.95552,-0.029785,0.080078
2.176,1.4731,0.16125,0.31965,0.22998,0.53516
2.184,1.6237,0.16321,0.084555,0.50488,0.76514
2.192,1.7947,0.16516,0.054741,0.7251,0.86475
2.2,1.9775,0.16736,0.0097752,0.875,0.9248
2.208,2.1613,0.1698,-0.015152,0.9248,0.93994
2.216,2.3372,0.17225,-0.010264,0.93994,0.93506
2.224,2.4976,0.17493,-0.00048876,0.94482,0.93506
2.232,2.6364,0.17811,-0.00048876,0.94971,0.93994
2.24,2.7498,0.18129,-0.00048876,0.93994,0.92969
2.248,2.827,0.18495,0.024438,0.93994,0.91992
2.256,2.8759,0.18886,0.014663,0.94482,0.9248
2.264,2.9101,0.19277,0.01955,0.94971,0.9248
2.272,2.9247,0.19692,0.01955,0.94971,0.91992
2.28,2.9208,0.20156,0.01955,0.95996,0.9248
2.288,2.8974,0.20621,0.01955,0.95996,0.91992
2.296,2.8573,0.21231,0.024438,0.95996,0.91504
2.304,2.8025,0.21842,0.024438,0.96973,0.91504
2.312,2.7351,0.22551,0.024438,0.9751,0.90967
2.32,2.6569,0.23284,0.029814,0.98486,0.90967
2.328,2.567,0.24017,0.024438,0.98975,0.90967
2.336,2.4673,0.2475,0.014663,1.0049,0.9248
2.344,2.3715,0.25507,0.0097752,1.0146,0.92969
2.352,2.2757,0.26264,0.01955,1.0298,0.92969
2.36,2.1652,0.27168,0.024438,1.0298,0.92969
2.368,2.0459,0.28097,0.0043988,1.0498,0.93994
2.376,1.9218,0.29123,-0.00048876,1.0547,0.94482
2.384,1.7977,0.30173,0.029814,1.0449,0.9248
2.392,1.6774,0.31248,0.049853,1.0347,0.90479
2.4,1.563,0.32348,0.099707,1.0146,0.87012
2.408,1.4565,0.33423,0.14956,0.97998,0.83008
2.416,1.3607,0.34522,0.19501,0.94971,0.78516
2.424,1.2786,0.35475,0.22972,0.90967,0.75977
2.432,1.2102,0.36452,0.2346,0.88477,0.75
2.44,1.1623,0.37283,0.21994,0.85986,0.75488
2.448,1.129,0.38138,0.20479,0.8501,0.75
2.456,1.1017,0.38945,0.1999,0.84473,0.76514
2.464,1.0831,0.39751,0.20479,0.84473,0.76514
2.472,1.0577,0.40508,0.18475,0.84473,0.76514
2.48,1.0323,0.4129,0.17498,0.84473,0.76514
2.488,1.0235,0.41999,0.1696,0.84473,0.7749
2.496,1.0244,0.42707,0.17986,0.8501,0.77002
2.504,1.0313,0.43342,0.1999,0.84473,0.76514
2.512,1.0411,0.44002,0.20479,0.84473,0.75977
2.52,1.0508,0.44588,0.2346,0.8501,0.73975
2.528,1.0606,0.45199,0.25464,0.85498,0.71484
2.536,1.0684,0.45761,0.28006,0.85498,0.68994
2.544,1.0762,0.46323,0.30499,0.85498,0.66992
2.552,1.0811,0.46836,0.3001,0.84473,0.68506
2.56,1.0821,0.47374,0.28006,0.84473,0.69482
2.568,1.0782,0.47862,0.26979,0.83496,0.71484
2.576,1.0714,0.48375,0.24487,0.84473,0.7251
2.584,1.0616,0.48791,0.19501,0.8501,0.76514
2.592,1.0499,0.4923,0.17498,0.84473,0.79004
2.6,1.0362,0.49597,0.16471,0.84473,0.79004
2.608,1.0205,0.49988,0.14956,0.83984,0.80469
2.616,1.0049,0.50305,0.13978,0.84473,0.7998
2.624,0.98729,0.50647,0.13978,0.83984,0.81006
2.632,0.96872,0.50941,0.13978,0.84473,0.81494
2.64,0.95406,0.51258,0.1349,0.84473,0.81006
2.648,0.94233,0.51527,0.099707,0.85498,0.83984
2.656,0.92669,0.51796,0.049853,0.89502,0.88477
2.664,0.91398,0.5204,0.089932,0.8999,0.87012
2.672,0.90909,0.52309,0.35973,0.68994,0.66016
2.68,0.91887,0.52578,0.94037,0.31494,0.18994
2.688,0.94917,0.52871,1.2356,0.024902,-0.034668
2.696,1.0059,0.53188,0.69501,0.125,0.30518
2.704,1.0919,0.5353,0.11975,0.37012,0.70508
2.712,1.2082,0.53872,-0.010264,0.60986,0.86475
2.72,1.3509,0.54239,-0.0053763,0.79492,0.91992
2.728,1.5132,0.54605,-0.015152,0.89502,0.93506
2.736,1.6852,0.54972,0.0043988,0.9248,0.9248
2.744,1.8377,0.5529,0.01955,0.93506,0.91992
2.752,1.9756,0.55632,0.024438,0.93994,0.90967
2.76,2.1212,0.55925,0.024438,0.93994,0.90479
2.768,2.259,0.56218,0.034702,0.93994,0.90479
2.776,2.3783,0.56536,0.024438,0.93994,0.90479
2.784,2.4741,0.56853,0.034702,0.93994,0.8999
2.792,2.5445,0.57195,0.054741,0.93994,0.89014
2.8,2.5894,0.57537,0.044477,0.93994,0.89014
2.808,2.61,0.5783,0.044477,0.94482,0.89502
2.816,2.609,0.58148,0.044477,0.94971,0.89502
2.824,2.5885,0.58417,0.044477,0.95996,0.89502
2.832,2.5503,0.5871,0.044477,0.95508,0.89014
2.84,2.5034,0.59076,0.049853,0.95996,0.88477
2.848,2.4477,0.59443,0.054741,0.96484,0.89014
2.856,2.3754,0.59858,0.044477,0.9751,0.89502
2.864,2.2913,0.60298,0.029814,0.98975,0.90479
2.872,2.1955,0.60762,0.01955,1,0.90479
2.88,2.0919,0.61251,0.024438,1.0098,0.91504
2.888,1.9814,0.61764,0.034702,1.0146,0.90479
2.896,1.868,0.62277,0.039589,1.0298,0.90479
2.904,1.7546,0.62717,0.029814,1.0298,0.90479
2.912,1.6432,0.63157,0.039589,1.0298,0.89502
2.92,1.5376,0.63548,0.07478,1.0098,0.87012
2.928,1.4399,0.63938,0.11975,1,0.83984
2.936,1.3519,0.64378,0.17498,0.96973,0.7998
2.944,1.2845,0.64818,0.21457,0.92969,0.76514
2.952,1.2317,0.65282,0.23998,0.89502,0.73975
2.96,1.1838,0.65771,0.2346,0.87012,0.73975
2.968,1.1447,0.66186,0.22972,0.85498,0.73975
2.976,1.1153,0.66602,0.20968,0.84473,0.75977
2.984,1.0968,0.66968,0.19501,0.84473,0.76514
2.992,1.087,0.67334,0.17986,0.84473,0.7749
3,1.085,0.6775,0.17498,0.84473,0.77979
3.008,1.0899,0.6819,0.18475,0.83496,0.7749
3.016,1.0997,0.68654,0.17498,0.83984,0.78516
3.024,1.1134,0.69142,0.1696,0.83984,0.7749
3.032,1.129,0.69656,0.18964,0.84473,0.77002
3.04,1.1447,0.70169,0.20479,0.84473,0.75977
3.048,1.1593,0.70706,0.23998,0.83984,0.73486
3.056,1.172,0.71244,0.26979,0.84473,0.71484
3.064,1.1828,0.71732,0.28983,0.83984,0.68506
3.072,1.1896,0.72245,0.31476,0.83496,0.66992
3.08,1.1935,0.72734,0.30499,0.83984,0.6748
3.088,1.1935,0.73247,0.29472,0.83008,0.68994
3.096,1.1916,0.73809,0.28006,0.81982,0.7002
3.104,1.1857,0.74395,0.24487,0.83008,0.71973
3.112,1.1779,0.75006,0.21457,0.83984,0.75
3.12,1.1672,0.75641,0.18964,0.84473,0.7749
3.128,1.1544,0.76154,0.15982,0.83984,0.79004
3.136,1.1398,0.76692,0.15494,0.84473,0.7998
3.144,1.129,0.77132,0.13978,0.83496,0.81006
3.152,1.1183,0.77596,0.12952,0.83984,0.81494
3.16,1.1036,0.7806,0.13978,0.83496,0.81006
3.168,1.085,0.78549,0.13978,0.83984,0.81494
3.176,1.0635,0.79062,0.10948,0.85498,0.83496
3.184,1.042,0.79575,0.079668,0.88477,0.87012
3.192,1.0225,0.80112,0.11486,0.89502,0.8501
3.2,1.0098,0.8065,0.35973,0.73975,0.66504
3.208,1.0078,0.81187,0.87048,0.43506,0.25488
3.216,1.0225,0.81725,1.2908,0.12012,-0.060059
3.224,1.0626,0.82116,0.77028,0.11523,0.25488
3.232,1.131,0.82531,0.089932,0.41992,0.71484
3.24,1.2111,0.82824,-0.10557,0.63477,0.8999
3.248,1.3069,0.83142,-0.050342,0.77002,0.93994
3.256,1.436,0.83484,-0.010264,0.875,0.93506
3.264,1.5865,0.8385,0.014663,0.90967,0.9248
3.272,1.7498,0.84241,0.0097752,0.92969,0.91504
3.28,1.9159,0.84657,0.014663,0.93506,0.90967
3.288,2.0762,0.84999,0.01955,0.92969,0.90479
3.296,2.2239,0.85365,0.024438,0.92969,0.90479
3.304,2.3539,0.85658,0.039589,0.9248,0.8999
3.312,2.4614,0.85976,0.044477,0.91992,0.89014
3.32,2.5435,0.86269,0.054741,0.92969,0.88477
3.328,2.5992,0.86587,0.039589,0.92969,0.89502
3.336,2.6295,0.86904,0.044477,0.93506,0.89014
3.344,2.6354,0.87222,0.044477,0.93994,0.89502
3.352,2.6227,0.8754,0.039589,0.93994,0.89502
3.36,2.5934,0.87882,0.054741,0.93506,0.88477
3.368,2.5464,0.88199,0.044477,0.93994,0.89014
3.376,2.4839,0.88541,0.044477,0.94971,0.89014
3.384,2.4066,0.8881,0.049853,0.95508,0.88477
3.392,2.3157,0.89103,0.024438,0.96973,0.90479
3.4,2.2151,0.89348,0.034702,0.9751,0.90479
3.408,2.1056,0.89616,0.024438,0.98486,0.90967
3.416,1.9912,0.89885,0.014663,1.0049,0.91992
3.424,1.8749,0.90154,0.0097752,1.0098,0.92969
3.432,1.7605,0.90447,0.024438,1.0146,0.91992
3.44,1.6637,0.9074,0.039589,1.0098,0.90479
3.448,1.5787,0.90985,0.064516,1.0049,0.89014
3.456,1.4917,0.91253,0.10459,0.97998,0.85986
3.464,1.4096,0.91473,0.15494,0.95508,0.81982
3.472,1.3363,0.91693,0.1999,0.92969,0.78516
3.48,1.2757,0.91937,0.2346,0.89502,0.75488
3.488,1.2278,0.92182,0.24487,0.87012,0.75
3.496,1.1926,0.92451,0.2346,0.85498,0.75
3.504,1.1691,0.92744,0.21457,0.83984,0.75977
3.512,1.1564,0.93086,0.20968,0.83008,0.76514
3.52,1.1525,0.93452,0.19501,0.82471,0.77002
3.528,1.1554,0.93843,0.18964,0.82471,0.77979
3.536,1.1632,0.94234,0.17986,0.81982,0.78516
3.544,1.175,0.94552,0.18475,0.81982,0.77979
3.552,1.1877,0.94894,0.18475,0.81982,0.77979
3.56,1.2014,0.95187,0.19501,0.81494,0.77002
3.568,1.216,0.9548,0.21994,0.81006,0.75488
3.576,1.2297,0.95822,0.24487,0.81006,0.73975
3.584,1.2414,0.96189,0.27468,0.81494,0.71973
3.592,1.2512,0.9658,0.30987,0.81006,0.68994
3.6,1.2581,0.96995,0.34506,0.7998,0.66016
3.608,1.263,0.97386,0.36999,0.7998,0.64502
3.616,1.2639,0.97777,0.35484,0.80469,0.6499
3.624,1.262,0.98168,0.34995,0.79492,0.66016
3.632,1.2571,0.98559,0.3348,0.79004,0.68018
3.64,1.2532,0.98925,0.30987,0.79492,0.69482
3.648,1.2483,0.99291,0.28495,0.7998,0.71973
3.656,1.2385,0.99634,0.25464,0.80469,0.74512
3.664,1.2258,1,0.23998,0.7998,0.75
3.672,1.2102,1,0.22483,0.79492,0.75977
3.68,1.1916,1,0.22483,0.7998,0.76514
3.688,1.172,1,0.21457,0.79492,0.76514
3.696,1.1515,1,0.22483,0.79492,0.76514
3.704,1.13,1,0.21457,0.79492,0.77002
3.712,1.1095,1,0.18475,0.81494,0.7998
3.72,1.0929,1,0.16471,0.84473,0.82471
3.728,1.085,1,0.26979,0.81982,0.75977
3.736,1.0929,1,0.63001,0.64014,0.49512
3.744,1.1163,1,1.3104,0.27002,-0.029785
3.752,1.1584,1,1.501,0.055176,-0.20459
3.76,1.2307,1,0.78006,0.2002,0.26025
3.768,1.3353,1,0.17986,0.41504,0.68018
3.776,1.4692,1,0.069892,0.60986,0.81982
3.784,1.6266,1,0.079668,0.75977,0.875
3.792,1.8006,1,0.064516,0.8501,0.8999
3.8,1.9814,1,0.059629,0.87988,0.8999
3.808,2.1603,1,0.069892,0.89014,0.89502
3.816,2.3284,1,0.07478,0.89014,0.89014
3.824,2.479,1,0.069892,0.89014,0.88477
3.832,2.608,0.99927,0.084555,0.89502,0.88477
3.84,2.6999,0.99853,0.079668,0.89502,0.88477
3.848,2.7644,0.99243,0.089932,0.89014,0.87988
3.856,2.8162,0.98656,0.084555,0.89502,0.87988
3.864,2.8495,0.98045,0.07478,0.8999,0.88477
3.872,2.8631,0.97435,0.064516,0.90967,0.89014
3.88,2.8573,0.96799,0.069892,0.90967,0.88477
3.888,2.8338,0.96189,0.079668,0.90967,0.88477
3.896,2.7957,0.95505,0.064516,0.91504,0.88477
3.904,2.7439,0.94845,0.059629,0.91992,0.89014
3.912,2.6804,0.94136,0.069892,0.9248,0.88477
3.92,2.6051,0.93428,0.049853,0.93994,0.8999
3.928,2.5191,0.92719,0.054741,0.94482,0.8999
3.936,2.4242,0.92035,0.039589,0.95996,0.90967
3.944,2.3343,0.91351,0.024438,0.96973,0.91992
3.952,2.2444,0.90667,0.0097752,0.98486,0.92969
3.96,2.1427,0.89934,0.0043988,0.99512,0.93506
3.968,2.0352,0.89226,-0.00048876,1,0.93994
3.976,1.9277,0.88444,0.01955,0.99512,0.9248
3.984,1.825,0.87686,0.044477,0.98975,0.90967
3.992,1.7302,0.86856,0.079668,0.9751,0.88477
4,1.6461,0.86025,0.14467,0.94971,0.83984
4.008,1.5738,0.85145,0.19501,0.90967,0.79492
4.016,1.5142,0.84266,0.2346,0.875,0.76514
4.024,1.4692,0.83435,0.23998,0.85986,0.75488
4.032,1.437,0.82629,0.2346,0.84473,0.75
4.04,1.4184,0.81823,0.20968,0.83496,0.76514
4.048,1.4096,0.81041,0.20479,0.83008,0.76514
4.056,1.4076,0.80137,0.19501,0.82471,0.7749
4.064,1.4125,0.79233,0.18475,0.83008,0.77979
4.072,1.4223,0.78231,0.17498,0.83496,0.78516
4.08,1.435,0.77254,0.18475,0.83008,0.77979
4.088,1.4497,0.76277,0.17498,0.83496,0.78516
4.096,1.4653,0.75324,0.1999,0.83008,0.77002
4.104,1.48,0.74371,0.18964,0.83008,0.7749
4.112,1.4936,0.73418,0.1999,0.83496,0.76514
4.12,1.5044,0.72441,0.23998,0.83008,0.73975
4.128,1.5122,0.71488,0.26491,0.83008,0.71484
4.136,1.5171,0.70486,0.27468,0.83008,0.69482
4.144,1.5191,0.69484,0.27468,0.83496,0.7002
4.152,1.5181,0.68409,0.27468,0.83008,0.70508
4.16,1.5132,0.67359,0.26002,0.82471,0.71973
4.168,1.5044,0.66235,0.22972,0.83008,0.73975
4.176,1.4927,0.65136,0.20479,0.83496,0.75977
4.184,1.477,0.64134,0.16471,0.84473,0.79004
4.192,1.4594,0.63157,0.12952,0.84473,0.81494
4.2,1.4389,0.62253,0.11486,0.84473,0.81982
4.208,1.4164,0.61349,0.10459,0.84473,0.83008
4.216,1.392,0.6042,0.10948,0.84473,0.83008
4.224,1.3675,0.59492,0.094819,0.8501,0.83496
4.232,1.3431,0.58539,0.10948,0.84473,0.82471
4.24,1.3245,0.57611,0.084555,0.8501,0.83984
4.248,1.3128,0.56755,0.049853,0.88477,0.87988
4.256,1.3079,0.559,0.099707,0.89502,0.88477
4.264,1.3187,0.55094,0.35484,0.80469,0.68506
4.272,1.3519,0.54288,0.89052,0.56982,0.25
4.28,1.4125,0.53384,1.4809,0.19531,-0.20996
4.288,1.5015,0.5248,1.0704,0.14014,0.015137
4.296,1.6178,0.51478,0.3651,0.30518,0.49512
4.304,1.7576,0.50501,0.049853,0.52979,0.76514
4.312,1.9159,0.49426,0.014663,0.70508,0.87012
4.32,2.0841,0.48375,-0.040567,0.8501,0.93994
4.328,2.2522,0.47276,-0.050342,0.90967,0.95996
4.336,2.393,0.46176,-0.045455,0.92969,0.95508
4.344,2.5122,0.45126,-0.060606,0.93994,0.95996
4.352,2.6325,0.441,-0.040567,0.93994,0.94971
4.36,2.741,0.43122,-0.030303,0.93506,0.94482
4.368,2.8299,0.42145,-0.035191,0.93506,0.95508
4.376,2.8974,0.41095,-0.030303,0.93994,0.94482
4.384,2.9423,0.40068,-0.040567,0.93994,0.94971
4.392,2.9658,0.38993,-0.030303,0.93994,0.94482
4.4,2.9697,0.37943,-0.040567,0.94971,0.94971
4.408,2.957,0.3699,-0.025415,0.94482,0.94482
4.416,2.9286,0.36037,-0.035191,0.95508,0.94971
4.424,2.8886,0.35158,-0.030303,0.95508,0.94482
4.432,2.8368,0.34278,-0.045455,0.95996,0.95508
4.44,2.7801,0.33325,-0.035191,0.96484,0.94482
4.448,2.7185,0.32397,-0.035191,0.96973,0.94971
4.456,2.6442,0.31395,-0.045455,0.98486,0.95508
4.464,2.5601,0.30393,-0.05523,1,0.96484
4.472,2.4673,0.29465,-0.060606,1.0098,0.9751
4.48,2.3666,0.28537,-0.075269,1.0146,0.97998
4.488,2.26,0.27681,-0.080645,1.0298,0.99512
4.496,2.1496,0.26826,-0.075269,1.0347,0.98975
4.504,2.0401,0.26118,-0.070381,1.0347,0.98975
4.512,1.9326,0.25409,-0.050342,1.0249,0.9751
4.52,1.8475,0.24798,-0.0053763,1.0049,0.94971
4.528,1.7801,0.24212,0.044477,0.97998,0.90479
4.536,1.7185,0.23626,0.10459,0.94482,0.85986
4.544,1.6647,0.23039,0.1696,0.90479,0.81006
4.552,1.6109,0.22453,0.18964,0.88477,0.79004
4.56,1.564,0.21867,0.18964,0.86475,0.78516
4.568,1.5259,0.21378,0.18475,0.8501,0.77979
4.576,1.4966,0.20889,0.17986,0.84473,0.7749
4.584,1.477,0.20474,0.1696,0.83984,0.77979
4.592,1.4643,0.20083,0.1696,0.83496,0.77979
4.6,1.4585,0.19692,0.15982,0.84473,0.78516
4.608,1.4575,0.19301,0.16471,0.83984,0.77979
4.616,1.4585,0.1891,0.17986,0.83984,0.77002
4.624,1.4614,0.18544,0.18964,0.83008,0.76514
4.632,1.4643,0.18177,0.18475,0.83496,0.7749
4.64,1.4682,0.17811,0.20479,0.83496,0.76514
4.648,1.4721,0.17469,0.21994,0.83496,0.74512
4.656,1.4741,0.17127,0.23998,0.83984,0.7251
4.664,1.4741,0.16882,0.26979,0.83008,0.7002
4.672,1.4721,0.16638,0.26002,0.83984,0.70508
4.68,1.4682,0.16492,0.23998,0.83984,0.71973
4.688,1.4614,0.16345,0.22972,0.83496,0.72998
4.696,1.4506,0.16272,0.21994,0.82471,0.73975
4.704,1.4379,0.16198,0.1999,0.83496,0.75488
4.712,1.4223,0.16174,0.1696,0.84473,0.78516
4.72,1.4027,0.1615,0.1349,0.83984,0.81494
4.728,1.3812,0.16101,0.11975,0.83496,0.81982
4.736,1.3627,0.16076,0.10948,0.83984,0.82471
4.744,1.3451,0.16027,0.11486,0.83496,0.81982
4.752,1.3236,0.15979,0.099707,0.83984,0.83008
4.76,1.2991,0.1593,0.10948,0.83008,0.82471
4.768,1.2766,0.15881,0.099707,0.83496,0.83008
4.776,1.26,0.15807,0.079668,0.85986,0.85986
4.784,1.2542,0.15734,0.10459,0.875,0.87012
4.792,1.2649,0.15612,0.28983,0.81006,0.71973
4.8,1.2972,0.1549,0.86022,0.5752,0.25
4.808,1.3568,0.15319,1.4658,0.18994,-0.24463
4.816,1.4448,0.15172,1.1554,0.060059,-0.084961
4.824,1.5601,0.15026,0.47996,0.19531,0.39014
4.832,1.6989,0.14879,0.13978,0.43994,0.68994
4.84,1.8319,0.14732,0.079668,0.6499,0.83008
4.848,1.9638,0.1461,-0.010264,0.83008,0.9248
4.856,2.1144,0.1439,-0.025415,0.89502,0.95508
4.864,2.2688,0.14171,-0.020528,0.91504,0.94971
4.872,2.4164,0.13902,-0.030303,0.9248,0.95508
4.88,2.5494,0.13633,-0.025415,0.91992,0.94971
4.888,2.6628,0.13389,-0.030303,0.92969,0.95508
4.896,2.7527,0.13169,-0.015152,0.92969,0.94971
4.904,2.8201,0.12973,-0.025415,0.93506,0.94482
4.912,2.8641,0.12778,-0.010264,0.93994,0.93994
4.92,2.8866,0.12534,-0.015152,0.93994,0.94482
4.928,2.8905,0.12289,-0.00048876,0.93994,0.93994
4.936,2.8788,0.11972,-0.0053763,0.93994,0.93506
4.944,2.8543,0.11678,-0.00048876,0.94482,0.94971
4.952,2.8192,0.11336,-0.020528,0.94971,0.94482
4.96,2.7742,0.11019,-0.0053763,0.95508,0.93994
4.968,2.7204,0.10652,-0.015152,0.96484,0.94971
4.976,2.6569,0.1031,-0.025415,0.97998,0.95508
4.984,2.5846,0.10017,-0.0053763,0.98486,0.95508
4.992,2.5044,0.097484,-0.020528,1,0.95508
5,2.4164,0.095285,-0.030303,1.0098,0.96973
5.008,2.3216,0.09333,-0.040567,1.02,0.9751
5.016,2.2219,0.091376,-0.040567,1.0298,0.98486
5.024,2.1202,0.089421,-0.035191,1.0298,0.98975
5.032,2.0176,0.087466,-0.025415,1.0298,0.97998
5.04,1.9277,0.085756,-0.0053763,1.0146,0.96973
5.048,1.8465,0.084779,0.034702,0.99512,0.93994
5.056,1.7615,0.083802,0.07478,0.96484,0.90967
5.064,1.6784,0.083557,0.13978,0.92969,0.8501
5.072,1.6012,0.083557,0.17986,0.89502,0.80469
5.08,1.5337,0.083557,0.20968,0.87012,0.7749
5.088,1.4761,0.083557,0.20968,0.8501,0.76514
5.096,1.4291,0.083802,0.20479,0.83984,0.75977
5.104,1.393,0.084046,0.19501,0.83008,0.76514
5.112,1.3675,0.084535,0.1999,0.82471,0.76514
5.12,1.3519,0.085268,0.18475,0.82471,0.76514
5.128,1.3441,0.086245,0.18964,0.82471,0.76514
5.136,1.3431,0.087466,0.19501,0.82471,0.75977
5.144,1.348,0.088932,0.19501,0.83496,0.75488
5.152,1.3548,0.090398,0.20968,0.82471,0.75
5.16,1.3627,0.092108,0.21457,0.81982,0.75488
5.168,1.3705,0.093819,0.21994,0.83008,0.75
5.176,1.3773,0.095529,0.23998,0.83984,0.73486
5.184,1.3822,0.097484,0.27468,0.83008,0.7002
5.192,1.3861,0.099438,0.29472,0.83008,0.68506
5.2,1.3871,0.10139,0.28006,0.83496,0.69482
5.208,1.3851,0.10335,0.26979,0.83008,0.70508
5.216,1.3803,0.1053,0.26002,0.82471,0.70996
5.224,1.3715,0.10726,0.2346,0.81982,0.73486
5.232,1.3587,0.10921,0.20968,0.83008,0.75488
5.24,1.347,0.11068,0.17498,0.83496,0.78516
5.248,1.3363,0.11239,0.14956,0.83496,0.80469
5.256,1.3206,0.11336,0.13978,0.83008,0.81006
5.264,1.3011,0.11459,0.13978,0.83008,0.81494
5.272,1.2796,0.11581,0.1349,0.83496,0.81494
5.28,1.2571,0.11703,0.13978,0.83008,0.81006
5.288,1.2336,0.11825,0.1349,0.82471,0.81494
5.296,1.2111,0.11972,0.11486,0.83496,0.83008
5.304,1.1945,0.12069,0.089932,0.86475,0.86475
5.312,1.1867,0.12192,0.12463,0.87012,0.87012
5.32,1.1955,0.1224,0.41007,0.75,0.62988
5.328,1.2248,0.12314,1.0352,0.45996,0.090332
5.336,1.2688,0.12363,1.4907,0.095215,-0.29492
5.344,1.3333,0.12411,1.0606,0.010254,-0.040039
5.352,1.4291,0.12436,0.40469,0.20996,0.44482
5.36,1.5523,0.1246,0.17498,0.46484,0.68994
5.368,1.6979,0.1246,0.079668,0.7002,0.83984
5.376,1.8583,0.12485,0.01955,0.85498,0.91992
5.384,2.0235,0.12485,-0.0053763,0.90967,0.94482
5.392,2.1848,0.12485,-0.010264,0.91992,0.94971
5.4,2.3353,0.12485,-0.0053763,0.9248,0.94482
5.408,2.4673,0.12485,-0.00048876,0.92969,0.94482
5.416,2.5787,0.1246,-0.00048876,0.93994,0.94482
5.424,2.6667,0.12436,-0.00048876,0.93994,0.93994
5.432,2.7312,0.12411,0.0097752,0.93994,0.92969
5.44,2.7683,0.12387,0.01955,0.93994,0.92969
5.448,2.784,0.12363,0.024438,0.93994,0.92969
5.456,2.7869,0.12338,0.024438,0.94482,0.9248
5.464,2.7761,0.12314,0.024438,0.94971,0.9248
5.472,2.7507,0.12289,0.034702,0.94971,0.91992
5.48,2.7136,0.12265,0.039589,0.95996,0.91504
5.488,2.6647,0.1224,0.034702,0.96484,0.91992
5.496,2.6061,0.12216,0.044477,0.9751,0.91992
5.504,2.5376,0.12192,0.044477,0.98486,0.91992
5.512,2.4604,0.12167,0.044477,1,0.9248
5.52,2.3754,0.12167,0.034702,1.0098,0.92969
5.528,2.2835,0.12192,0.039589,1.02,0.93506
5.536,2.1975,0.1224,0.024438,1.0298,0.94971
5.544,2.1134,0.12289,0.024438,1.04,0.95508
5.552,2.0186,0.12363,0.024438,1.0449,0.94971
5.56,1.9189,0.1246,0.044477,1.04,0.93506
5.568,1.8192,0.12558,0.069892,1.0298,0.9248
5.576,1.7234,0.1268,0.10459,1.0098,0.89014
5.584,1.6334,0.12802,0.16471,0.9751,0.84473
5.592,1.5513,0.12925,0.21457,0.93506,0.7998
5.6,1.479,0.13071,0.24487,0.8999,0.75977
5.608,1.4174,0.13218,0.26002,0.87012,0.74512
5.616,1.3675,0.13364,0.24487,0.8501,0.74512
5.624,1.3284,0.1356,0.23998,0.83984,0.73975
5.632,1.3011,0.1378,0.22972,0.83496,0.74512
5.64,1.2864,0.14024,0.21994,0.83008,0.74512
5.648,1.2805,0.14293,0.22483,0.83496,0.75
5.656,1.2786,0.1461,0.20968,0.83008,0.75488
5.664,1.2805,0.14952,0.20968,0.83984,0.75488
5.672,1.2874,0.15343,0.20968,0.83984,0.75
5.68,1.2962,0.15734,0.21994,0.84473,0.75
5.688,1.306,0.16101,0.22972,0.83496,0.74512
5.696,1.3148,0.16467,0.24976,0.83984,0.73486
5.704,1.3226,0.16834,0.27468,0.84473,0.70996
5.712,1.3275,0.17225,0.30499,0.83984,0.68018
5.72,1.3294,0.17689,0.31965,0.84473,0.66992
5.728,1.3284,0.18153,0.30499,0.84473,0.68018
5.736,1.3275,0.18715,0.29472,0.84473,0.68506
5.744,1.3245,0.19277,0.28006,0.83984,0.69482
5.752,1.3167,0.19961,0.24976,0.83984,0.71973
5.76,1.305,0.20669,0.22483,0.84473,0.73975
5.768,1.2893,0.21451,0.17986,0.84473,0.77979
5.776,1.2717,0.22233,0.16471,0.84473,0.79004
5.784,1.2522,0.22966,0.15982,0.84473,0.79492
5.792,1.2297,0.23699,0.16471,0.83984,0.79004
5.8,1.2053,0.24383,0.15494,0.84473,0.7998
5.808,1.1799,0.25092,0.14467,0.84473,0.80469
5.816,1.1535,0.25825,0.1349,0.84473,0.81494
5.824,1.1281,0.26582,0.11975,0.84473,0.81982
5.832,1.1065,0.27364,0.07478,0.88477,0.86475
5.84,1.0948,0.28146,0.059629,0.89502,0.88477
5.848,1.0948,0.28854,0.31476,0.71484,0.69482
5.856,1.1075,0.29587,0.8304,0.36523,0.26514
5.864,1.1388,0.30247,1.2654,0,-0.080078
5.872,1.1955,0.30931,0.8304,-0.040039,0.18506
5.88,1.2796,0.31615,0.25464,0.26514,0.59521
5.888,1.3891,0.32299,0.039589,0.54492,0.80469
5.896,1.52,0.32959,0.01955,0.75977,0.89014
5.904,1.6667,0.33643,-0.00048876,0.89014,0.92969
5.912,1.8221,0.34278,0.0097752,0.93506,0.91992
5.92,1.9765,0.34913,0.0043988,0.93994,0.91992
5.928,2.1232,0.355,0.0097752,0.94971,0.91992
5.936,2.2405,0.3611,0.014663,0.94482,0.91504
5.944,2.3343,0.36672,0.024438,0.94482,0.90479
5.952,2.4213,0.37234,0.014663,0.94971,0.91504
5.96,2.4927,0.37772,0.024438,0.94971,0.90967
5.968,2.5435,0.38309,0.024438,0.95508,0.90967
5.976,2.5738,0.38822,0.024438,0.95996,0.90479
5.984,2.5836,0.39335,0.01955,0.95996,0.90967
5.992,2.5738,0.39824,0.014663,0.96484,0.90967
6,2.5474,0.40337,0.01955,0.96484,0.90479
6.008,2.5064,0.40753,0.024438,0.96973,0.90479
6.016,2.4516,0.41192,0.024438,0.96973,0.90479
6.024,2.3851,0.41583,0.024438,0.97998,0.90967
6.032,2.3177,0.41999,0.01955,0.98975,0.91992
6.04,2.2463,0.42512,0.014663,1,0.9248
6.048,2.1613,0.43025,0.0097752,1.0146,0.91992
6.056,2.0655,0.43611,0.014663,1.0249,0.9248
6.064,1.9629,0.44222,0.0043988,1.04,0.93506
6.072,1.8573,0.44857,0.0097752,1.0498,0.92969
6.08,1.7498,0.45492,0.014663,1.0547,0.92969
6.088,1.6442,0.46103,0.024438,1.0449,0.91992
6.096,1.5415,0.46738,0.049853,1.0298,0.8999
6.104,1.4448,0.47276,0.089932,1.02,0.87012
6.112,1.3578,0.47813,0.14467,0.98975,0.81982
6.12,1.2805,0.48278,0.18964,0.95508,0.78516
6.128,1.2151,0.48766,0.20968,0.91504,0.76514
6.136,1.1681,0.49255,0.21994,0.88477,0.75977
6.144,1.1349,0.49768,0.20479,0.87012,0.75977
6.152,1.1065,0.50305,0.18964,0.86475,0.77002
6.16,1.086,0.50843,0.17986,0.85986,0.77979
6.168,1.0743,0.51307,0.15982,0.85498,0.79004
6.176,1.0714,0.51771,0.15982,0.84473,0.79492
6.184,1.0762,0.52187,0.14467,0.84473,0.80469
6.192,1.086,0.52602,0.15494,0.84473,0.79492
6.2,1.1007,0.53066,0.15982,0.8501,0.7998
6.208,1.1183,0.5353,0.17986,0.84473,0.78516
6.216,1.1359,0.54019,0.17986,0.84473,0.78516
6.224,1.1535,0.54532,0.20479,0.84473,0.76514
6.232,1.1701,0.54972,0.22972,0.84473,0.73486
6.24,1.1838,0.55412,0.26979,0.84473,0.70508
6.248,1.1935,0.55778,0.28495,0.84473,0.68994
6.256,1.1994,0.56169,0.27468,0.85498,0.7002
6.264,1.2023,0.5656,0.26002,0.84473,0.70996
6.272,1.2014,0.56951,0.24487,0.83496,0.71973
6.28,1.1965,0.57342,0.21457,0.84473,0.74512
6.288,1.1896,0.57733,0.18475,0.84473,0.77979
6.296,1.1799,0.58124,0.14956,0.8501,0.80469
6.304,1.1672,0.58539,0.13978,0.84473,0.81006
6.312,1.1535,0.5893,0.11486,0.84473,0.81982
6.32,1.1369,0.59345,0.10459,0.8501,0.83008
6.328,1.1193,0.59687,0.10459,0.84473,0.83496
6.336,1.1056,0.60054,0.094819,0.84473,0.83984
6.344,1.0938,0.60371,0.10948,0.84473,0.83496
6.352,1.0772,0.60689,0.084555,0.85498,0.84473
6.36,1.0587,0.61007,0.044477,0.89014,0.89014
6.368,1.0411,0.61349,0.034702,0.90967,0.90479
6.376,1.0283,0.61691,0.24976,0.77002,0.75
6.384,1.0264,0.62033,0.71017,0.45996,0.375
6.392,1.0401,0.62399,1.2155,0.084961,-0.0097656
6.4,1.0772,0.62766,0.81525,0.055176,0.23486
6.408,1.1408,0.63132,0.15982,0.34521,0.66992
6.416,1.2336,0.63499,-0.095308,0.58984,0.89502
6.424,1.3548,0.63816,-0.05523,0.75488,0.93506
6.432,1.478,0.64158,-0.030303,0.875,0.94482
6.44,1.6061,0.64452,-0.020528,0.91504,0.94482
6.448,1.7576,0.64745,-0.010264,0.93994,0.93506
6.456,1.9179,0.65038,-0.0053763,0.93994,0.92969
6.464,2.0762,0.65355,-0.00048876,0.93994,0.92969
6.472,2.2229,0.65673,0.0043988,0.94482,0.9248
6.48,2.3509,0.66015,-0.00048876,0.93994,0.91504
6.488,2.4565,0.66308,0.024438,0.93994,0.90967
6.496,2.5367,0.66602,0.024438,0.93994,0.90479
6.504,2.5914,0.66846,0.014663,0.93994,0.90967
6.512,2.6217,0.67115,0.0097752,0.94482,0.91504
6.52,2.6285,0.67334,0.024438,0.93994,0.90479
6.528,2.6139,0.67579,0.024438,0.94971,0.90479
6.536,2.5855,0.67799,0.01955,0.94971,0.90967
6.544,2.5445,0.68019,0.024438,0.95996,0.90479
6.552,2.4868,0.68263,0.024438,0.96484,0.90967
6.56,2.4154,0.68532,0.034702,0.96973,0.90479
6.568,2.3441,0.688,0.0097752,0.98486,0.91992
6.576,2.2669,0.69094,0.014663,0.98975,0.91992
6.584,2.1691,0.69289,-0.00048876,1.0049,0.92969
6.592,2.0596,0.69509,-0.0053763,1.0146,0.93506
6.6,1.9443,0.69656,-0.00048876,1.02,0.93994
6.608,1.828,0.69802,-0.0053763,1.0298,0.93506
6.616,1.7146,0.69998,-0.00048876,1.0298,0.93994
6.624,1.608,0.70217,0.029814,1.02,0.90967
6.632,1.522,0.70462,0.07478,1,0.87988
6.64,1.4506,0.70706,0.12952,0.96973,0.83496
6.648,1.3812,0.70926,0.17986,0.93994,0.79492
6.656,1.3206,0.71146,0.21994,0.90479,0.76514
6.664,1.2698,0.71341,0.2346,0.875,0.75488
6.672,1.2317,0.71561,0.20479,0.87012,0.76514
6.68,1.2043,0.71854,0.19501,0.8501,0.76514
6.688,1.1887,0.72172,0.1696,0.8501,0.78516
6.696,1.1818,0.72538,0.15982,0.84473,0.79492
6.704,1.1828,0.72929,0.14956,0.84473,0.79004
6.712,1.1896,0.73369,0.14467,0.84473,0.80469
6.72,1.2014,0.73833,0.14956,0.83984,0.81006
6.728,1.216,0.74322,0.15494,0.84473,0.80469
6.736,1.2317,0.74811,0.14956,0.84473,0.79492
6.744,1.2473,0.75275,0.1696,0.84473,0.79004
6.752,1.263,0.75739,0.18964,0.84473,0.7749
6.76,1.2766,0.76179,0.22972,0.84473,0.74512
6.768,1.2884,0.76643,0.26002,0.84473,0.71484
6.776,1.2981,0.77181,0.28983,0.84473,0.69482
6.784,1.305,0.77718,0.28495,0.84473,0.69482
6.792,1.3089,0.78329,0.28006,0.84473,0.69482
6.8,1.3089,0.7894,0.26979,0.83984,0.70996
6.808,1.3069,0.79502,0.25464,0.83496,0.71973
6.816,1.3021,0.80088,0.20968,0.84473,0.75488
6.824,1.2942,0.80601,0.16471,0.8501,0.78516
6.832,1.2874,0.81139,0.13978,0.85498,0.80469
6.84,1.2805,0.81676,0.12463,0.84473,0.81494
6.848,1.2688,0.82214,0.11486,0.8501,0.82471
6.856,1.2542,0.82775,0.11975,0.84473,0.82471
6.864,1.2366,0.83337,0.11486,0.84473,0.83008
6.872,1.217,0.83899,0.11486,0.84473,0.83008
6.88,1.1965,0.84486,0.11975,0.83984,0.83008
6.888,1.175,0.85048,0.089932,0.85986,0.85498
6.896,1.1544,0.85634,0.079668,0.89014,0.875
6.904,1.1388,0.86098,0.1999,0.84473,0.79492
6.912,1.1339,0.86562,0.56989,0.62012,0.50977
6.92,1.1457,0.86953,1.2107,0.22998,0.015137
6.928,1.1789,0.87369,1.3407,0.1001,-0.084961
6.936,1.2268,0.8776,0.43011,0.29004,0.47998
6.944,1.2952,0.88151,-0.060606,0.51514,0.83496
6.952,1.3978,0.88517,-0.10557,0.68506,0.9248
6.96,1.5288,0.88908,-0.025415,0.81006,0.93994
6.968,1.6833,0.89201,-0.010264,0.88477,0.94971
6.976,1.8514,0.89519,0.0097752,0.90967,0.9248
6.984,2.0244,0.89787,0.024438,0.91504,0.91504
6.992,2.1935,0.90056,0.029814,0.91504,0.90967
7,2.3509,0.90349,0.034702,0.91504,0.90479
7.008,2.4907,0.90643,0.049853,0.91504,0.89502
7.016,2.608,0.90936,0.049853,0.91504,0.89014
7.024,2.6999,0.91253,0.059629,0.90967,0.88477
7.032,2.7605,0.91571,0.064516,0.91504,0.89014
7.04,2.7947,0.91889,0.069892,0.91504,0.88477
7.048,2.8143,0.92182,0.079668,0.90967,0.87988
7.056,2.8162,0.92499,0.089932,0.90967,0.87012
7.064,2.7996,0.92719,0.084555,0.91504,0.87012
7.072,2.7664,0.92939,0.094819,0.91504,0.87012
7.08,2.7165,0.93086,0.094819,0.91992,0.87012
7.088,2.651,0.93232,0.094819,0.91992,0.875
7.096,2.5718,0.93403,0.089932,0.93506,0.87988
7.104,2.48,0.93599,0.094819,0.93994,0.88477
7.112,2.3763,0.93794,0.07478,0.94971,0.89014
7.12,2.2649,0.94014,0.069892,0.95996,0.89502
7.128,2.1486,0.94161,0.064516,0.96973,0.90479
7.136,2.044,0.94307,0.064516,0.97998,0.90479
7.144,1.9472,0.94381,0.069892,0.98486,0.90479
7.152,1.8436,0.94454,0.089932,0.97998,0.88477
7.16,1.7419,0.94527,0.11975,0.96484,0.86475
7.168,1.6452,0.94601,0.15982,0.94482,0.83984
7.176,1.5582,0.94674,0.22483,0.91504,0.79004
7.184,1.4829,0.94747,0.26491,0.87988,0.75488
7.192,1.4203,0.94723,0.3001,0.8501,0.7251
7.2,1.3724,0.94698,0.30499,0.82471,0.71973
7.208,1.3372,0.94601,0.28983,0.81494,0.71973
7.216,1.3138,0.94503,0.28006,0.80469,0.72998
7.224,1.3001,0.94381,0.26979,0.7998,0.72998
7.232,1.2962,0.94258,0.24976,0.7998,0.73975
7.24,1.2991,0.94112,0.24487,0.7998,0.73975
7.248,1.3069,0.9399,0.25464,0.80469,0.73975
7.256,1.3177,0.93745,0.24976,0.80469,0.74512
7.264,1.3304,0.93501,0.26491,0.7998,0.73975
7.272,1.3451,0.93159,0.28006,0.79492,0.71973
7.28,1.3587,0.92841,0.28983,0.79492,0.71973
7.288,1.3715,0.92499,0.3001,0.7998,0.71484
7.296,1.3832,0.92157,0.32502,0.80469,0.68994
7.304,1.393,0.91815,0.34506,0.80469,0.66504
7.312,1.4008,0.91473,0.37488,0.7998,0.64014
7.32,1.4066,0.91131,0.37977,0.81006,0.63477
7.328,1.4106,0.90789,0.36999,0.7998,0.6499
7.336,1.4135,0.90423,0.34506,0.7998,0.66504
7.344,1.4154,0.90056,0.32502,0.7998,0.68018
7.352,1.4135,0.8969,0.29472,0.81494,0.70508
7.36,1.4086,0.89323,0.26002,0.81982,0.73486
7.368,1.4008,0.88957,0.21994,0.81982,0.76514
7.376,1.39,0.88615,0.1999,0.81982,0.76514
7.384,1.3783,0.88297,0.17986,0.82471,0.78516
7.392,1.3646,0.88004,0.18475,0.82471,0.78516
7.4,1.3509,0.87711,0.17498,0.83008,0.78516
7.408,1.3372,0.87442,0.17498,0.83008,0.79004
7.416,1.3255,0.871,0.14467,0.83984,0.80469
7.424,1.3187,0.86758,0.10948,0.87012,0.83984
7.432,1.3196,0.86367,0.14467,0.88477,0.8501
7.44,1.3324,0.85976,0.37488,0.79492,0.66992
7.448,1.3617,0.85585,0.88025,0.56494,0.26514
7.456,1.4145,0.85194,1.501,0.17529,-0.20459
7.464,1.4946,0.84779,1.1305,0.11523,0
7.472,1.6031,0.84364,0.40469,0.31006,0.48486
7.48,1.739,0.83802,0.069892,0.53516,0.76514
7.488,1.8974,0.83264,0.024438,0.7002,0.86475
7.496,2.0704,0.82556,-0.020528,0.84473,0.92969
7.504,2.2483,0.81871,-0.030303,0.90479,0.94971
7.512,2.4242,0.80968,-0.030303,0.91992,0.94482
7.52,2.5885,0.80088,-0.050342,0.93994,0.95508
7.528,2.7361,0.79037,-0.025415,0.93506,0.93994
7.536,2.8456,0.78011,-0.025415,0.93994,0.93506
7.544,2.9267,0.7701,-0.025415,0.93994,0.93506
7.552,3,0.76008,-0.025415,0.93994,0.93506
7.56,3.0557,0.75006,-0.025415,0.93994,0.93506
7.568,3.0899,0.74029,-0.040567,0.94482,0.94482
7.576,3.1046,0.72929,-0.025415,0.93994,0.93506
7.584,3.1007,0.7183,-0.025415,0.94482,0.93506
7.592,3.0792,0.70633,-0.030303,0.94971,0.93506
7.6,3.043,0.69436,-0.045455,0.95996,0.94482
7.608,2.9941,0.68263,-0.045455,0.95996,0.94971
7.616,2.9345,0.6709,-0.035191,0.96973,0.94482
7.624,2.8631,0.65917,-0.025415,0.96973,0.94482
7.632,2.7898,0.64769,-0.035191,0.98486,0.94971
7.64,2.7136,0.63572,-0.040567,0.98975,0.95508
7.648,2.6237,0.62399,-0.060606,1.0098,0.96973
7.656,2.5239,0.61178,-0.070381,1.02,0.9751
7.664,2.4184,0.5998,-0.080645,1.0298,0.98486
7.672,2.3099,0.58734,-0.075269,1.0298,0.98975
7.68,2.2004,0.57513,-0.065494,1.0298,0.9751
7.688,2.0929,0.56291,-0.035191,1.0249,0.96484
7.696,1.9912,0.5507,-0.010264,1.0049,0.94482
7.704,1.8983,0.5397,0.044477,0.97998,0.8999
7.712,1.8152,0.52895,0.099707,0.94971,0.85498
7.72,1.7439,0.51918,0.14956,0.91992,0.81006
7.728,1.6843,0.50965,0.17498,0.89014,0.79004
7.736,1.6403,0.49988,0.17986,0.87012,0.78516
7.744,1.608,0.49011,0.1696,0.85498,0.77979
7.752,1.5806,0.48033,0.16471,0.84473,0.77979
7.76,1.5611,0.4708,0.16471,0.83984,0.78516
7.768,1.5484,0.4625,0.13978,0.83984,0.79004
7.776,1.5415,0.45443,0.14467,0.83496,0.79004
7.784,1.5396,0.44735,0.14956,0.83496,0.79004
7.792,1.5415,0.44026,0.16471,0.83008,0.77979
7.8,1.5464,0.43318,0.1696,0.83008,0.7749
7.808,1.5513,0.42609,0.17498,0.83496,0.7749
7.816,1.5562,0.41876,0.1696,0.83496,0.78516
7.824,1.5591,0.41168,0.19501,0.83984,0.75977
7.832,1.5611,0.40484,0.21457,0.84473,0.73486
7.84,1.5621,0.39824,0.24487,0.84473,0.70996
7.848,1.5601,0.39189,0.25464,0.84473,0.70508
7.856,1.5543,0.38554,0.25464,0.84473,0.70508
7.864,1.5455,0.37992,0.2346,0.83984,0.7251
7.872,1.5337,0.37454,0.21457,0.83496,0.73975
7.88,1.52,0.36941,0.21994,0.83984,0.75
7.888,1.5044,0.36452,0.16471,0.8501,0.78516
7.896,1.4868,0.35939,0.13978,0.85498,0.80469
7.904,1.4673,0.35451,0.12952,0.84473,0.81006
7.912,1.4457,0.34938,0.11486,0.84473,0.81494
7.92,1.4223,0.34425,0.10948,0.84473,0.81982
7.928,1.4018,0.33912,0.094819,0.8501,0.83496
7.936,1.3832,0.33398,0.11486,0.84473,0.82471
7.944,1.3627,0.32885,0.099707,0.84473,0.83008
7.952,1.3451,0.32372,0.084555,0.86475,0.85986
7.96,1.3353,0.31859,0.079668,0.89014,0.86475
7.968,1.3402,0.31371,0.22972,0.85498,0.76514
7.976,1.3656,0.30858,0.70039,0.65479,0.38525
7.984,1.4164,0.30344,1.3807,0.28516,-0.16504
7.992,1.4966,0.29783,1.4658,0.090332,-0.24463
8,1.6061,0.29245,0.60997,0.18506,0.29492
8.008,1.741,0.28659,0.13978,0.41016,0.66992
8.016,1.8964,0.28072,0.069892,0.62012,0.81494
8.024,2.0645,0.27559,-0.00048876,0.80469,0.90967
8.032,2.2121,0.27046,-0.045455,0.89502,0.95508
8.04,2.346,0.26582,-0.040567,0.91504,0.95996
8.048,2.4888,0.26118,-0.040567,0.9248,0.95508
8.056,2.6256,0.25605,-0.030303,0.93506,0.94971
8.064,2.7478,0.25116,-0.040567,0.93994,0.95508
8.072,2.8495,0.24579,-0.025415,0.93994,0.94482
8.08,2.9277,0.24065,-0.025415,0.93994,0.93994
8.088,2.9834,0.23626,-0.015152,0.93994,0.93506
8.096,3.0166,0.23186,-0.030303,0.94971,0.94971
8.104,3.0293,0.22771,-0.025415,0.94482,0.93994
8.112,3.0235,0.2238,-0.020528,0.94971,0.93506
8.12,3.002,0.21891,-0.025415,0.95508,0.93994
8.128,2.9687,0.21402,-0.015152,0.95508,0.93506
8.136,2.9267,0.20816,-0.020528,0.95996,0.93994
8.144,2.8739,0.20254,-0.025415,0.96973,0.94482
8.152,2.8104,0.19692,-0.035191,0.97998,0.95508
8.16,2.738,0.1913,-0.045455,0.99512,0.95996
8.168,2.6569,0.18568,-0.035191,1,0.95996
8.176,2.567,0.18006,-0.045455,1.0098,0.9751
8.184,2.4692,0.17542,-0.045455,1.02,0.9751
8.192,2.3646,0.17102,-0.050342,1.0298,0.98486
8.2,2.2561,0.16711,-0.060606,1.0298,0.99512
8.208,2.1466,0.16345,-0.050342,1.0298,0.98975
8.216,2.0381,0.1593,-0.020528,1.02,0.96973
8.224,1.9326,0.15539,0.0097752,1.0049,0.94971
8.232,1.8446,0.15123,0.054741,0.97998,0.91504
8.24,1.7693,0.14732,0.10459,0.95508,0.87012
8.248,1.694,0.14439,0.17986,0.90967,0.81006
8.256,1.6246,0.14171,0.20479,0.875,0.77979
8.264,1.563,0.13975,0.20968,0.85498,0.76514
8.272,1.5112,0.13804,0.19501,0.84473,0.76514
8.28,1.4712,0.13609,0.19501,0.83496,0.76514
8.288,1.4418,0.13413,0.1999,0.81982,0.75977
8.296,1.4223,0.13218,0.18964,0.82471,0.76514
8.304,1.4106,0.13047,0.18475,0.83008,0.76514
8.312,1.4057,0.12925,0.17986,0.83496,0.76514
8.32,1.4066,0.12802,0.18964,0.83008,0.76514
8.328,1.4115,0.12753,0.19501,0.82471,0.75488
8.336,1.4194,0.12729,0.20968,0.81982,0.75
8.344,1.4272,0.12729,0.20479,0.82471,0.75977
8.352,1.434,0.12753,0.22972,0.83008,0.73975
8.36,1.4399,0.12802,0.26002,0.83008,0.70996
8.368,1.4438,0.12876,0.26979,0.83496,0.69482
8.376,1.4448,0.12949,0.28006,0.83496,0.68994
8.384,1.4428,0.13047,0.26002,0.83496,0.7002
8.392,1.437,0.13144,0.25464,0.82471,0.71484
8.4,1.4282,0.13267,0.2346,0.82471,0.72998
8.408,1.4154,0.13389,0.20968,0.83008,0.75
8.416,1.4008,0.13511,0.15982,0.84473,0.79004
8.424,1.3822,0.13633,0.16471,0.83008,0.7998
8.432,1.3666,0.1378,0.13978,0.83496,0.81006
8.44,1.3519,0.13853,0.1349,0.83008,0.81494
8.448,1.3314,0.13951,0.12952,0.83496,0.81494
8.456,1.3069,0.14,0.12463,0.82471,0.81494
8.464,1.2796,0.14073,0.13978,0.83008,0.81494
8.472,1.2532,0.14097,0.12463,0.83008,0.81494
8.48,1.2317,0.14122,0.094819,0.85986,0.8501
8.488,1.218,0.14122,0.10948,0.875,0.86475
8.496,1.218,0.14146,0.29472,0.81494,0.71484
8.504,1.2375,0.14171,0.8304,0.5752,0.2749
8.512,1.2825,0.14219,1.4506,0.20508,-0.24463
8.52,1.3578,0.14293,1.2053,0.02002,-0.25488
8.528,1.4448,0.14366,0.54985,0.14014,0.33008
8.536,1.5474,0.1439,0.18964,0.3999,0.64014
8.544,1.6833,0.14439,0.10459,0.625,0.7998
8.552,1.8407,0.14464,0.034702,0.81494,0.89502
8.56,2.0108,0.14488,0.0043988,0.89014,0.92969
8.568,2.1818,0.14537,-0.0053763,0.91504,0.93994
8.576,2.346,0.14586,-0.015152,0.92969,0.94482
8.584,2.4966,0.14659,-0.010264,0.93506,0.94482
8.592,2.6266,0.14732,-0.00048876,0.92969,0.93506
8.6,2.7331,0.14757,0.0043988,0.93506,0.92969
8.608,2.8152,0.14806,0.014663,0.93506,0.92969
8.616,2.8416,0.14806,0.0097752,0.93994,0.92969
8.624,2.8289,0.1483,0.01955,0.93994,0.92969
8.632,2.8162,0.1483,0.0097752,0.94971,0.92969
8.64,2.7977,0.1483,0.0097752,0.95508,0.92969
8.648,2.7722,0.14806,0.0097752,0.95508,0.92969
8.656,2.737,0.14781,0.01955,0.95996,0.9248
8.664,2.6911,0.14757,0.024438,0.96973,0.92969
8.672,2.6354,0.14732,0.024438,0.97998,0.92969
8.68,2.5709,0.14684,0.01955,0.99512,0.93506
8.688,2.4976,0.14635,0.014663,1.0049,0.93994
8.696,2.4154,0.14586,0.01955,1.0146,0.94482
8.704,2.3255,0.14537,0.0097752,1.02,0.94971
8.712,2.2287,0.14488,-0.00048876,1.04,0.95996
8.72,2.1261,0.14439,-0.00048876,1.0449,0.9751
8.728,2.0313,0.1439,-0.00048876,1.0449,0.9751
8.736,1.9423,0.14342,0.01955,1.0449,0.95996
8.744,1.8436,0.14293,0.034702,1.0298,0.94482
8.752,1.7419,0.14244,0.07478,1.0146,0.91504
8.76,1.6422,0.14195,0.12463,0.98975,0.875
8.768,1.5484,0.14146,0.18475,0.94482,0.83008
8.776,1.4633,0.14097,0.22972,0.91504,0.78516
8.784,1.3891,0.14048,0.25464,0.87988,0.75977
8.792,1.3265,0.14048,0.26002,0.8501,0.73975
8.8,1.2747,0.14048,0.24487,0.84473,0.74512
8.808,1.2356,0.14073,0.24976,0.82471,0.73975
8.816,1.2072,0.14122,0.22483,0.83008,0.75
8.824,1.1896,0.14195,0.20968,0.83984,0.75977
8.832,1.1808,0.14268,0.20479,0.83984,0.76514
8.84,1.1799,0.14366,0.20968,0.84473,0.75977
8.848,1.1828,0.14464,0.20968,0.83984,0.76514
8.856,1.1896,0.1461,0.2346,0.83496,0.75
8.864,1.1984,0.14781,0.24487,0.82471,0.74512
8.872,1.2072,0.14977,0.24976,0.83496,0.73975
8.88,1.216,0.15197,0.26491,0.83496,0.7251
8.888,1.2239,0.15441,0.28495,0.83984,0.70508
8.896,1.2287,0.15685,0.30499,0.83984,0.68506
8.904,1.2307,0.15954,0.3001,0.84473,0.68994
8.912,1.2287,0.16247,0.28495,0.83496,0.69482
8.92,1.2229,0.16589,0.28006,0.82471,0.70996
8.928,1.217,0.16931,0.25464,0.82471,0.71973
8.936,1.2092,0.17322,0.22972,0.83984,0.73975
8.944,1.1965,0.17738,0.19501,0.84473,0.7749
8.952,1.1799,0.18153,0.17498,0.83496,0.79492
8.96,1.1603,0.18593,0.15982,0.83496,0.80469
8.968,1.1388,0.19032,0.14956,0.83496,0.81006
8.976,1.1153,0.19497,0.15494,0.83496,0.80469
8.984,1.0899,0.19912,0.13978,0.83496,0.81006
8.992,1.0626,0.20327,0.14467,0.83496,0.81494
9,1.0362,0.20718,0.12952,0.84473,0.81982
9.008,1.0127,0.21109,0.089932,0.86475,0.85986
9.016,0.99609,0.21549,0.069892,0.88477,0.87988
9.024,0.99218,0.22013,0.22483,0.79492,0.77002
9.032,1.002,0.22526,0.62023,0.52979,0.4502
9.04,1.0293,0.23039,1.2757,0.090332,-0.064941
9.048,1.0821,0.23552,1.2908,-0.040039,-0.094727
9.056,1.1623,0.24065,0.48485,0.1499,0.4248
9.064,1.2698,0.24579,0.089932,0.43506,0.75
9.072,1.4018,0.25092,0.039589,0.66992,0.86475
9.08,1.5523,0.25629,0.014663,0.83496,0.9248
9.088,1.7126,0.26191,-0.0053763,0.91992,0.94482
9.096,1.8749,0.26777,-0.00048876,0.93994,0.93994
9.104,2.0313,0.27388,0.0043988,0.94482,0.92969
9.112,2.175,0.28072,-0.00048876,0.94482,0.92969
9.12,2.3001,0.28756,0.01955,0.94971,0.91992
9.128,2.393,0.29489,0.01955,0.94971,0.91504
9.136,2.4604,0.30222,0.024438,0.95508,0.91992
9.144,2.5161,0.30906,0.024438,0.95508,0.90967
9.152,2.5543,0.31615,0.024438,0.95508,0.90967
9.16,2.5728,0.3225,0.029814,0.94971,0.90479
9.168,2.5718,0.3291,0.01955,0.95996,0.90479
9.176,2.5533,0.33618,0.014663,0.95508,0.91504
9.184,2.5181,0.34327,0.024438,0.96973,0.90967
9.192,2.4692,0.35084,0.029814,0.96484,0.90967
9.2,2.4086,0.35842,0.024438,0.97998,0.90967
9.208,2.3363,0.36526,0.01955,0.98486,0.91504
9.216,2.2551,0.37234,0.014663,1.0049,0.91992
9.224,2.1652,0.37894,0.024438,1.0146,0.91504
9.232,2.0802,0.38554,0.01955,1.0249,0.9248
9.24,1.9941,0.39262,0.0097752,1.0298,0.92969
9.248,1.8944,0.39971,0.024438,1.04,0.9248
9.256,1.7859,0.40728,0.0097752,1.0498,0.92969
9.264,1.6745,0.41485,0.029814,1.0449,0.9248
9.272,1.563,0.42243,0.059629,1.0347,0.8999
9.28,1.4555,0.43,0.094819,1.02,0.87012
9.288,1.3548,0.43733,0.13978,0.99512,0.83984
9.296,1.262,0.44466,0.17986,0.96484,0.7998
9.304,1.1808,0.45126,0.23998,0.9248,0.75488
9.312,1.1114,0.4581,0.24976,0.89014,0.73975
9.32,1.0547,0.46421,0.2346,0.875,0.73975
9.328,1.0156,0.47056,0.22483,0.85986,0.75
9.336,0.99022,0.47691,0.20968,0.85498,0.75488
9.344,0.97067,0.48326,0.20479,0.8501,0.75977
9.352,0.95797,0.48937,0.20479,0.84473,0.76514
9.36,0.95308,0.49572,0.19501,0.8501,0.75977
9.368,0.95503,0.5011,0.18475,0.8501,0.77002
9.376,0.96285,0.50647,0.18475,0.8501,0.7749
9.384,0.97458,0.51087,0.19501,0.8501,0.77002
9.392,0.98729,0.51551,0.21457,0.84473,0.75977
9.4,1.001,0.51991,0.2346,0.84473,0.73975
9.408,1.0147,0.52431,0.26002,0.8501,0.71973
9.416,1.0264,0.52871,0.28983,0.85498,0.68994
9.424,1.0352,0.53311,0.30987,0.8501,0.66992
9.432,1.044,0.5375,0.31476,0.84473,0.66504
9.44,1.0508,0.5419,0.30499,0.84473,0.66992
9.448,1.0538,0.54605,0.3001,0.83008,0.68994
9.456,1.0518,0.55045,0.27468,0.83496,0.70996
9.464,1.0459,0.55412,0.22972,0.84473,0.73975
9.472,1.0371,0.55803,0.1999,0.8501,0.76514
9.48,1.0254,0.56145,0.17498,0.84473,0.78516
9.488,1.0117,0.56487,0.16471,0.84473,0.79004
9.496,0.99609,0.56902,0.14467,0.84473,0.7998
9.504,0.97947,0.57317,0.14956,0.84473,0.7998
9.512,0.9609,0.57757,0.14956,0.84473,0.7998
9.52,0.94135,0.58221,0.15494,0.83984,0.80469
9.528,0.92669,0.58563,0.13978,0.84473,0.81006
9.536,0.91496,0.58905,0.094819,0.87988,0.85498
9.544,0.90029,0.59174,0.064516,0.90967,0.87988
9.552,0.88759,0.59443,0.18475,0.83496,0.79492
9.56,0.88172,0.59712,0.58504,0.56006,0.47021
9.568,0.8915,0.60005,1.2204,0.13525,-0.0097656
9.576,0.9218,0.60323,1.2307,0.060059,-0.029785
9.584,0.97947,0.6064,0.34506,0.28027,0.53516
9.592,1.0674,0.60982,-0.040567,0.52979,0.83496
9.6,1.1848,0.61324,-0.050342,0.70508,0.90479
9.608,1.3294,0.61666,-0.0053763,0.84473,0.9248
9.616,1.4936,0.62008,-0.015152,0.90967,0.93994
9.624,1.6452,0.62301,0.01955,0.9248,0.90967
9.632,1.7898,0.62619,0.029814,0.93506,0.90479
9.64,1.9482,0.62912,0.039589,0.92969,0.8999
9.648,2.1036,0.63205,0.039589,0.93506,0.8999
9.656,2.2454,0.63499,0.044477,0.93994,0.89014
9.664,2.3675,0.63816,0.044477,0.93994,0.8999
9.672,2.4643,0.64134,0.044477,0.94482,0.89014
9.68,2.5357,0.64476,0.054741,0.93994,0.89014
9.688,2.5806,0.64769,0.069892,0.93994,0.87988
9.696,2.6012,0.65062,0.069892,0.94482,0.875
9.704,2.6002,0.65331,0.059629,0.94482,0.87988
9.712,2.5787,0.65624,0.059629,0.94971,0.87988
9.72,2.5386,0.65966,0.064516,0.94971,0.87988
9.728,2.4897,0.66308,0.054741,0.95996,0.88477
9.736,2.4311,0.66724,0.064516,0.96484,0.88477
9.744,2.3568,0.67139,0.069892,0.9751,0.88477
9.752,2.2688,0.67554,0.049853,0.98486,0.88477
9.76,2.1711,0.6797,0.049853,0.98975,0.89502
9.768,2.0655,0.68385,0.034702,1.0049,0.90479
9.776,1.9541,0.688,0.029814,1.0146,0.90479
9.784,1.8397,0.69216,0.044477,1.0298,0.8999
9.792,1.7253,0.69631,0.064516,1.0298,0.88477
9.8,1.6149,0.70046,0.07478,1.0146,0.87988
9.808,1.5103,0.70462,0.10459,1.0049,0.85498
9.816,1.4135,0.70853,0.15494,0.97998,0.81494
9.824,1.3382,0.71244,0.22483,0.93506,0.76514
9.832,1.2766,0.71634,0.26002,0.90967,0.73486
9.84,1.218,0.72025,0.26002,0.88477,0.72998
9.848,1.1672,0.72343,0.23998,0.86475,0.73975
9.856,1.1271,0.72685,0.2346,0.84473,0.74512
9.864,1.0987,0.73003,0.20968,0.83984,0.75977
9.872,1.0821,0.7332,0.1999,0.83984,0.76514
9.88,1.0743,0.73687,0.18964,0.83496,0.7749
9.888,1.0733,0.74078,0.18475,0.83496,0.77979
9.896,1.0792,0.74493,0.17986,0.83496,0.77979
9.904,1.089,0.74933,0.18475,0.83496,0.77979
9.912,1.1007,0.75397,0.19501,0.83008,0.77002
9.92,1.1144,0.75886,0.21994,0.82471,0.75488
9.928,1.1281,0.76374,0.21457,0.83984,0.75977
9.936,1.1417,0.76887,0.25464,0.83984,0.72998
9.944,1.1535,0.77303,0.28495,0.83984,0.7002
9.952,1.1632,0.77742,0.30987,0.83984,0.6748
9.96,1.1701,0.78109,0.32991,0.83984,0.66504
9.968,1.175,0.785,0.32502,0.83496,0.66992
9.976,1.176,0.78964,0.30499,0.82471,0.68506
9.984,1.175,0.79453,0.27468,0.82471,0.70508
9.992,1.1701,0.80015,0.24487,0.82471,0.72998
10,1.1632,0.80577,0.22483,0.83496,0.75
10.008,1.1535,0.8109,0.18964,0.84473,0.77979
10.016,1.1417,0.81627,0.16471,0.83984,0.79492
10.024,1.132,0.82116,0.15982,0.83496,0.7998
10.032,1.1232,0.82604,0.16471,0.83496,0.7998
10.04,1.1095,0.83118,0.14467,0.83496,0.81006
10.048,1.0929,0.83655,0.15494,0.82471,0.7998
10.056,1.0743,0.84193,0.14467,0.83008,0.81006
10.064,1.0538,0.8473,0.11975,0.8501,0.83008
10.072,1.0323,0.85219,0.094819,0.89014,0.85986
10.08,1.0127,0.85732,0.15982,0.87988,0.81982
10.088,0.99902,0.86196,0.45015,0.7002,0.60498
10.096,0.99707,0.8666,0.99022,0.37012,0.17529
10.104,1.0137,0.871,1.2908,0.11523,-0.049805
10.112,1.0547,0.8754,0.64027,0.24023,0.33496
10.12,1.1241,0.87955,0.0043988,0.4751,0.77002
10.128,1.2063,0.88395,-0.10557,0.66016,0.90967
10.136,1.304,0.88737,-0.020528,0.79004,0.9248
10.144,1.435,0.89103,-0.00048876,0.875,0.92969
10.152,1.5885,0.89397,0.01955,0.90967,0.91992
10.16,1.7546,0.8969,0.044477,0.91504,0.90479
10.168,1.9238,0.89934,0.044477,0.91504,0.8999
10.176,2.087,0.90203,0.049853,0.91504,0.89014
10.184,2.2366,0.90423,0.049853,0.91504,0.89502
10.192,2.3666,0.90643,0.064516,0.91504,0.88477
10.2,2.4721,0.90887,0.059629,0.91504,0.88477
10.208,2.5523,0.91131,0.07478,0.91992,0.88477
10.216,2.608,0.914,0.064516,0.91992,0.88477
10.224,2.6364,0.91669,0.069892,0.9248,0.88477
10.232,2.6422,0.91962,0.069892,0.91992,0.875
10.24,2.6325,0.92255,0.084555,0.91992,0.87012
10.248,2.6061,0.92548,0.079668,0.91992,0.875
10.256,2.563,0.92866,0.07478,0.9248,0.875
10.264,2.5054,0.9311,0.069892,0.93506,0.87988
10.272,2.434,0.93379,0.064516,0.93994,0.88477
10.28,2.35,0.93599,0.069892,0.94971,0.88477
10.288,2.2551,0.93843,0.084555,0.94971,0.87988
10.296,2.1515,0.94087,0.089932,0.95996,0.88477
10.304,2.042,0.94356,0.084555,0.96973,0.88477
10.312,1.9286,0.94625,0.079668,0.98486,0.88477
10.32,1.8133,0.94894,0.094819,0.97998,0.88477
10.328,1.7146,0.95114,0.12463,0.96973,0.86475
10.336,1.6266,0.95358,0.15494,0.95996,0.84473
10.344,1.5347,0.95553,0.19501,0.93506,0.81494
10.352,1.4457,0.95773,0.24976,0.90967,0.77002
10.36,1.3666,0.95944,0.30499,0.875,0.73486
10.368,1.3001,0.96115,0.32991,0.84473,0.70996
10.376,1.2463,0.96262,0.3348,0.81982,0.69482
10.384,1.2053,0.96433,0.33969,0.79492,0.69482
10.392,1.1769,0.9658,0.30499,0.79492,0.70996
10.4,1.1593,0.96726,0.29472,0.79492,0.71484
10.408,1.1515,0.96848,0.30499,0.79004,0.70996
10.416,1.1515,0.96995,0.29472,0.77979,0.71484
10.424,1.1574,0.97044,0.28006,0.78516,0.7251
10.432,1.1672,0.97117,0.28495,0.77979,0.7251
10.44,1.1789,0.97117,0.29472,0.7749,0.71973
10.448,1.1926,0.97141,0.30499,0.77979,0.71484
10.456,1.2053,0.97117,0.30987,0.7749,0.70996
10.464,1.217,0.97117,0.32991,0.77979,0.69482
10.472,1.2278,0.97068,0.35484,0.78516,0.68018
10.48,1.2375,0.97019,0.39003,0.79004,0.6499
10.488,1.2454,0.96946,0.41496,0.77979,0.62012
10.496,1.2502,0.96873,0.42473,0.79004,0.61475
10.504,1.2522,0.96751,0.41496,0.78516,0.625
10.512,1.2512,0.96628,0.40469,0.77979,0.63477
10.52,1.2483,0.9636,0.37977,0.7749,0.65479
10.528,1.2454,0.96091,0.33969,0.79004,0.68018
10.536,1.2414,0.95651,0.30987,0.79492,0.70508
10.544,1.2326,0.95236,0.26979,0.80469,0.73486
10.552,1.2209,0.94649,0.24976,0.7998,0.74512
10.56,1.2072,0.94087,0.2346,0.80469,0.75488
10.568,1.1916,0.93379,0.22972,0.7998,0.75488
10.576,1.174,0.92695,0.21457,0.81006,0.76514
10.584,1.1554,0.91937,0.20479,0.80469,0.77002
10.592,1.1359,0.91204,0.21457,0.81494,0.76514
10.6,1.1183,0.90423,0.16471,0.83496,0.81006
10.608,1.1056,0.89641,0.15494,0.86475,0.82471
10.616,1.1026,0.88737,0.26979,0.83984,0.75977
10.624,1.1124,0.87833,0.67009,0.65479,0.45508
10.632,1.1388,0.86831,1.3456,0.29004,-0.069824
10.64,1.1916,0.85854,1.501,0.084961,-0.22998
10.648,1.2747,0.84925,0.73998,0.22021,0.26514
10.656,1.3891,0.84022,0.17498,0.43506,0.66992
10.664,1.5709,0.83142,0.044477,0.62988,0.82471
10.672,1.7977,0.82287,0.014663,0.79004,0.89502
10.68,2.0137,0.81334,-0.00048876,0.875,0.9248
10.688,2.2219,0.80381,-0.00048876,0.90479,0.92969
10.696,2.4203,0.79331,0.0097752,0.90967,0.91992
10.704,2.6031,0.7828,0.014663,0.90967,0.91504
10.712,2.7654,0.77156,-0.00048876,0.91992,0.91992
10.72,2.9032,0.76057,0.0043988,0.91992,0.91504
10.728,3.002,0.74908,0.0097752,0.91504,0.90967
10.736,3.0694,0.73785,-0.00048876,0.9248,0.91992
10.744,3.1241,0.72734,-0.010264,0.92969,0.92969
10.752,3.1593,0.71708,-0.00048876,0.92969,0.91504
10.76,3.174,0.70755,0.0043988,0.92969,0.91504
10.768,3.1691,0.69802,-0.0053763,0.93506,0.91992
10.776,3.1476,0.68776,-0.00048876,0.93994,0.9248
10.784,3.1105,0.67774,-0.015152,0.94482,0.91992
10.792,3.0596,0.66699,-0.0053763,0.94971,0.91992
10.8,2.9961,0.65624,-0.015152,0.95996,0.92969
10.808,2.9218,0.64598,-0.010264,0.95996,0.93506
10.816,2.8377,0.63596,-0.050342,0.97998,0.95508
10.824,2.7546,0.62619,-0.065494,0.98975,0.96484
10.832,2.6696,0.61642,-0.060606,1.0098,0.9751
10.84,2.5718,0.6064,-0.075269,1.0098,0.9751
10.848,2.4673,0.59663,-0.080645,1.0249,0.98486
10.856,2.3587,0.58661,-0.065494,1.0249,0.9751
10.864,2.2493,0.57659,-0.060606,1.0249,0.9751
10.872,2.1427,0.56633,-0.035191,1.0098,0.95508
10.88,2.042,0.55632,0.014663,0.98486,0.91992
10.888,1.9492,0.5463,0.079668,0.95508,0.87012
10.896,1.8671,0.53628,0.12952,0.91992,0.83008
10.904,1.7967,0.52773,0.15982,0.88477,0.80469
10.912,1.739,0.51942,0.16471,0.87012,0.79004
10.92,1.6931,0.51185,0.1696,0.84473,0.78516
10.928,1.6628,0.50452,0.14956,0.84473,0.79004
10.936,1.6432,0.49646,0.13978,0.84473,0.79492
10.944,1.6295,0.48864,0.14467,0.83496,0.79004
10.952,1.6217,0.48033,0.15494,0.83008,0.79004
10.96,1.6197,0.47227,0.14467,0.83008,0.79492
10.968,1.6217,0.46518,0.15494,0.83496,0.79004
10.976,1.6256,0.4581,0.16471,0.83008,0.79004
10.984,1.6295,0.45175,0.18475,0.82471,0.7749
10.992,1.6334,0.44539,0.17986,0.83008,0.77979
11,1.6364,0.4388,0.18964,0.83984,0.77002
11.008,1.6373,0.43245,0.20968,0.84473,0.73975
11.016,1.6354,0.4256,0.2346,0.84473,0.71973
11.024,1.6325,0.41876,0.25464,0.83984,0.70508
11.032,1.6285,0.41168,0.24976,0.84473,0.70996
11.04,1.6207,0.40484,0.26002,0.83984,0.71484
11.048,1.609,0.39775,0.22972,0.83496,0.7251
11.056,1.5943,0.39091,0.1999,0.83984,0.75
11.064,1.5777,0.3848,0.1696,0.84473,0.77002
11.072,1.5582,0.3787,0.12463,0.8501,0.80469
11.08,1.5367,0.37308,0.11486,0.84473,0.81494
11.088,1.5132,0.3677,0.11486,0.84473,0.81494
11.096,1.4878,0.36233,0.094819,0.84473,0.83008
11.104,1.4614,0.3572,0.10459,0.84473,0.82471
11.112,1.435,0.35206,0.099707,0.84473,0.83008
11.12,1.4086,0.34693,0.069892,0.8501,0.84473
11.128,1.3891,0.34229,0.094819,0.84473,0.83496
11.136,1.3763,0.33765,0.079668,0.875,0.86475
11.144,1.3695,0.33325,0.12952,0.89014,0.84473
11.152,1.3773,0.3291,0.43988,0.76514,0.60986
11.16,1.4066,0.3247,1.0503,0.49023,0.095215
11.168,1.4624,0.3203,1.4555,0.14502,-0.22998
11.176,1.5474,0.31566,0.93548,0.1001,0.080078
11.184,1.6608,0.31102,0.27468,0.30029,0.56006
11.192,1.7996,0.30564,0.064516,0.52979,0.77002
11.2,1.9589,0.30051,-0.0053763,0.72998,0.89502
11.208,2.13,0.29489,-0.045455,0.85986,0.94971
11.216,2.304,0.28927,-0.070381,0.91504,0.9751
11.224,2.4497,0.28366,-0.045455,0.91992,0.95996
11.232,2.5748,0.27804,-0.045455,0.9248,0.96484
11.24,2.7028,0.27266,-0.040567,0.92969,0.95996
11.248,2.8192,0.26729,-0.060606,0.93506,0.96484
11.256,2.9169,0.26142,-0.045455,0.93506,0.95508
11.264,2.9912,0.2558,-0.040567,0.93994,0.95508
11.272,3.043,0.24994,-0.050342,0.93994,0.95996
11.28,3.0733,0.24408,-0.045455,0.93994,0.95508
11.288,3.0841,0.23846,-0.040567,0.93994,0.95996
11.296,3.0762,0.23308,-0.050342,0.94971,0.95508
11.304,3.0528,0.22795,-0.045455,0.94971,0.95996
11.312,3.0156,0.22282,-0.045455,0.95996,0.95508
11.32,2.9668,0.21744,-0.045455,0.95996,0.95996
11.328,2.912,0.21231,-0.050342,0.96484,0.96973
11.336,2.8504,0.20669,-0.050342,0.97998,0.96973
11.344,2.7761,0.20132,-0.080645,1,0.98975
11.352,2.6911,0.19521,-0.085533,1.0049,0.99512
11.36,2.5973,0.1891,-0.070381,1.0098,0.99512
11.368,2.4956,0.18275,-0.095308,1.0249,1
11.376,2.3881,0.1764,-0.12023,1.0449,1.0249
11.384,2.2776,0.17054,-0.085533,1.04,1.0049
11.392,2.1672,0.16492,-0.070381,1.0298,1
11.4,2.0587,0.15979,-0.045455,1.0146,0.9751
11.408,1.9531,0.1549,-0.010264,0.99512,0.94971
11.416,1.8553,0.14977,0.034702,0.96973,0.90967
11.424,1.7752,0.14488,0.10459,0.92969,0.85986
11.432,1.7077,0.13975,0.15494,0.89502,0.81982
11.44,1.6422,0.13486,0.16471,0.87012,0.80469
11.448,1.5836,0.13047,0.14956,0.85986,0.7998
11.456,1.5347,0.12631,0.14467,0.8501,0.79492
11.464,1.4966,0.12216,0.15982,0.83496,0.79004
11.472,1.4692,0.11825,0.15494,0.83008,0.79004
11.48,1.4506,0.1141,0.14956,0.83984,0.79004
11.488,1.4409,0.11019,0.13978,0.83984,0.79004
11.496,1.437,0.10603,0.16471,0.83496,0.78516
11.504,1.4379,0.10213,0.15982,0.83008,0.79004
11.512,1.4428,0.098949,0.18475,0.82471,0.77002
11.52,1.4497,0.095773,0.16471,0.83008,0.78516
11.528,1.4565,0.09333,0.19501,0.83496,0.76514
11.536,1.4624,0.091131,0.21457,0.83008,0.74512
11.544,1.4673,0.089421,0.2346,0.83496,0.7251
11.552,1.4712,0.087955,0.22483,0.83984,0.71484
11.56,1.4721,0.086733,0.25464,0.83008,0.70996
11.568,1.4702,0.085756,0.2346,0.83496,0.7251
11.576,1.4653,0.085512,0.23998,0.81982,0.72998
11.584,1.4575,0.085268,0.20479,0.82471,0.75488
11.592,1.4457,0.085512,0.1696,0.84473,0.77979
11.6,1.4311,0.086,0.14467,0.84473,0.80469
11.608,1.4135,0.086733,0.12952,0.83984,0.81982
11.616,1.393,0.087711,0.10459,0.84473,0.83496
11.624,1.3754,0.088932,0.10948,0.83496,0.83008
11.632,1.3587,0.090154,0.099707,0.83984,0.83496
11.64,1.3372,0.091131,0.10948,0.83496,0.83496
11.648,1.3138,0.092353,0.094819,0.83984,0.83496
11.656,1.2903,0.093086,0.11486,0.83008,0.83984
11.664,1.2717,0.094063,0.069892,0.87012,0.88477
11.672,1.263,0.094552,0.14467,0.875,0.83496
11.68,1.2708,0.095285,0.5,0.71484,0.56006
11.688,1.3021,0.095773,1.1403,0.41504,0.015137
11.696,1.3607,0.096262,1.4355,0.084961,-0.24463
11.704,1.4497,0.096995,0.91544,0.024902,0.070312
11.712,1.5699,0.097972,0.30499,0.26514,0.53516
11.72,1.6931,0.098949,0.1349,0.50977,0.73975
11.728,1.8231,0.10017,0.044477,0.72998,0.875
11.736,1.9814,0.10066,-0.010264,0.86475,0.94971
11.744,2.1515,0.10115,-0.015152,0.90967,0.95996
11.752,2.3226,0.10115,-0.020528,0.91992,0.95508
11.76,2.4829,0.10115,-0.020528,0.9248,0.95508
11.768,2.6266,0.10139,-0.020528,0.92969,0.95996
11.776,2.7488,0.10188,-0.010264,0.93506,0.95508
11.784,2.8465,0.10261,-0.0053763,0.93994,0.95508
11.792,2.9189,0.10335,-0.00048876,0.93994,0.94971
11.8,2.9677,0.10335,-0.00048876,0.93994,0.94482
11.808,2.9941,0.10359,0.0043988,0.94482,0.93506
11.816,3.001,0.1031,0.0043988,0.93994,0.93506
11.824,2.9902,0.10261,0.0043988,0.94971,0.93994
11.832,2.9648,0.10213,0.0097752,0.94971,0.93506
11.84,2.9286,0.10164,0.014663,0.95996,0.93994
11.848,2.8817,0.10139,0.014663,0.96484,0.93994
11.856,2.824,0.10115,0.0097752,0.96973,0.94482
11.864,2.7566,0.1009,-0.00048876,0.97998,0.95508
11.872,2.6784,0.10066,0.0043988,0.98975,0.95508
11.88,2.5914,0.10042,-0.0053763,1.0049,0.96484
11.888,2.4976,0.10042,-0.015152,1.0146,0.9751
11.896,2.3978,0.10066,-0.020528,1.0298,0.97998
11.904,2.2923,0.10115,-0.020528,1.0298,0.98486
11.912,2.1828,0.10188,-0.015152,1.0347,0.98486
11.92,2.086,0.10286,-0.00048876,1.0298,0.9751
11.928,1.9951,0.10359,0.034702,1.0146,0.95508
11.936,1.8974,0.10432,0.07478,0.99512,0.91992
11.944,1.7996,0.10481,0.13978,0.95996,0.87012
11.952,1.7077,0.10555,0.19501,0.9248,0.82471
11.96,1.6237,0.10628,0.22972,0.88477,0.78516
11.968,1.5503,0.10726,0.26002,0.85498,0.75488
11.976,1.4888,0.10848,0.26491,0.83984,0.73975
11.984,1.4389,0.1097,0.26002,0.83008,0.73486
11.992,1.4008,0.11117,0.24976,0.82471,0.73975
12,1.3744,0.11263,0.24976,0.83008,0.73975
12.008,1.3587,0.1141,0.25464,0.82471,0.73486
12.016,1.3519,0.11581,0.24976,0.81982,0.73975
12.024,1.3519,0.11752,0.26002,0.81982,0.73975
12.032,1.3578,0.11923,0.26002,0.82471,0.73486
12.04,1.3675,0.12094,0.28006,0.81982,0.7251
12.048,1.3783,0.12289,0.28006,0.81982,0.7251
12.056,1.3891,0.12509,0.3001,0.81982,0.71484
12.064,1.3988,0.12753,0.31965,0.83008,0.69482
12.072,1.4066,0.13022,0.33969,0.83008,0.66992
12.08,1.4115,0.13291,0.34995,0.82471,0.66016
12.088,1.4125,0.13535,0.33969,0.83008,0.66504
12.096,1.4096,0.1378,0.32991,0.82471,0.68018
12.104,1.4037,0.14,0.31965,0.81982,0.68994
12.112,1.3949,0.14244,0.29472,0.81982,0.70996
12.12,1.3861,0.14537,0.26979,0.82471,0.72998
12.128,1.3763,0.14855,0.22972,0.83008,0.75977
12.136,1.3607,0.15221,0.20968,0.82471,0.77002
12.144,1.3412,0.15588,0.19501,0.83008,0.78516
12.152,1.3196,0.15954,0.19501,0.81982,0.78516
12.16,1.2952,0.16321,0.18475,0.82471,0.79004
12.168,1.2698,0.16687,0.17498,0.81982,0.79492
12.176,1.2434,0.17054,0.19501,0.82471,0.79004
12.184,1.218,0.17396,0.1696,0.83984,0.81006
12.192,1.1975,0.17762,0.1349,0.86475,0.84473
12.2,1.1857,0.18104,0.18475,0.87012,0.8501
12.208,1.1906,0.18471,0.46481,0.6748,0.60498
12.216,1.217,0.18837,1.0655,0.30518,0.095215
12.224,1.26,0.19228,1.3656,-0.0048828,-0.15479
12.232,1.3226,0.19619,0.87048,-0.040039,0.1499
12.24,1.4184,0.20034,0.28006,0.2749,0.58984
12.248,1.5435,0.20352,0.10948,0.54004,0.77979
12.256,1.6911,0.20694,0.07478,0.74512,0.86475
12.264,1.8543,0.20987,0.039589,0.875,0.91992
12.272,2.0235,0.2128,0.034702,0.90967,0.91992
12.28,2.1906,0.21647,0.044477,0.91992,0.91992
12.288,2.346,0.22013,0.039589,0.92969,0.91504
12.296,2.4839,0.22477,0.034702,0.93994,0.91992
12.304,2.6002,0.22942,0.044477,0.93994,0.90479
12.312,2.6921,0.23528,0.049853,0.93994,0.90479
12.32,2.7517,0.24114,0.044477,0.93994,0.90479
12.328,2.7859,0.24774,0.054741,0.93994,0.90479
12.336,2.8055,0.25434,0.059629,0.94482,0.8999
12.344,2.8074,0.26044,0.059629,0.94971,0.8999
12.352,2.7918,0.2668,0.049853,0.95996,0.90479
12.36,2.7595,0.2729,0.044477,0.96484,0.90479
12.368,2.7136,0.27926,0.049853,0.96973,0.90479
12.376,2.654,0.28659,0.059629,0.95996,0.8999
12.384,2.5826,0.29392,0.054741,0.98486,0.90479
12.392,2.5015,0.30222,0.044477,0.99512,0.91504
12.4,2.4106,0.31053,0.039589,1.0049,0.91992
12.408,2.3109,0.31859,0.029814,1.0146,0.91992
12.416,2.2033,0.3269,0.034702,1.0249,0.92969
12.424,2.1036,0.33496,0.014663,1.0347,0.93506
12.432,2.0068,0.34327,0.014663,1.0449,0.93506
12.44,1.8983,0.35206,0.024438,1.0449,0.92969
12.448,1.7859,0.36086,0.044477,1.0347,0.91992
12.456,1.6725,0.37039,0.069892,1.0298,0.8999
12.464,1.564,0.37992,0.11486,1.0049,0.86475
12.472,1.4614,0.38871,0.1696,0.9751,0.81982
12.48,1.3675,0.39775,0.22483,0.93994,0.7749
12.488,1.2845,0.4063,0.24976,0.8999,0.75488
12.496,1.2131,0.41485,0.24487,0.875,0.73975
12.504,1.1544,0.42243,0.22483,0.85498,0.75
12.512,1.1095,0.43,0.21457,0.8501,0.75977
12.52,1.0821,0.43684,0.1999,0.84473,0.76514
12.528,1.0665,0.44368,0.20479,0.84473,0.76514
12.536,1.0577,0.4493,0.18964,0.84473,0.7749
12.544,1.0547,0.45492,0.18475,0.84473,0.77002
12.552,1.0587,0.45957,0.18475,0.8501,0.77002
12.56,1.0674,0.46445,0.1999,0.8501,0.76514
12.568,1.0792,0.46812,0.20479,0.84473,0.76514
12.576,1.0919,0.47178,0.20968,0.84473,0.75977
12.584,1.1046,0.47447,0.24487,0.8501,0.73486
12.592,1.1173,0.4774,0.28495,0.84473,0.69482
12.6,1.1271,0.48033,0.3001,0.84473,0.68018
12.608,1.1339,0.48351,0.30499,0.8501,0.6748
12.616,1.1378,0.48668,0.3001,0.84473,0.68994
12.624,1.1417,0.48986,0.30499,0.84473,0.68506
12.632,1.1447,0.49279,0.27468,0.83984,0.71484
12.64,1.1427,0.49597,0.23998,0.84473,0.73486
12.648,1.1369,0.49866,0.20479,0.8501,0.76514
12.656,1.1271,0.50159,0.18475,0.84473,0.78516
12.664,1.1134,0.50403,0.16471,0.84473,0.79492
12.672,1.0978,0.50647,0.15494,0.84473,0.7998
12.68,1.0811,0.50892,0.14467,0.84473,0.80469
12.688,1.0626,0.51136,0.13978,0.84473,0.81006
12.696,1.043,0.51405,0.13978,0.84473,0.81494
12.704,1.0225,0.51698,0.1349,0.8501,0.81006
12.712,1.0039,0.52016,0.10948,0.86475,0.83984
12.72,0.99316,0.52333,0.059629,0.90479,0.88477
12.728,0.98534,0.52626,0.12463,0.87012,0.83984
12.736,0.97947,0.5292,0.44477,0.64502,0.58496
12.744,0.9824,0.53188,1.0855,0.22021,0.090332
12.752,1.001,0.53457,1.2556,0.035156,-0.040039
12.76,1.043,0.5375,0.52004,0.19531,0.4248
12.768,1.1124,0.54068,0.029814,0.4502,0.7749
12.776,1.2102,0.54386,-0.030303,0.66016,0.88477
12.784,1.3353,0.54728,-0.00048876,0.81982,0.91992
12.792,1.4829,0.5507,-0.010264,0.90479,0.93506
12.8,1.6452,0.55436,0.01955,0.91992,0.90967
12.808,1.8143,0.55803,0.039589,0.92969,0.8999
12.816,1.9824,0.56169,0.039589,0.93506,0.8999
12.824,2.1212,0.56487,0.044477,0.92969,0.89502
12.832,2.2366,0.56829,0.044477,0.92969,0.89014
12.84,2.349,0.57122,0.059629,0.92969,0.88477
12.848,2.4467,0.5744,0.064516,0.9248,0.88477
12.856,2.5239,0.57806,0.054741,0.93506,0.87988
12.864,2.5777,0.58172,0.049853,0.93994,0.88477
12.872,2.609,0.58612,0.064516,0.93506,0.87988
12.88,2.6188,0.59052,0.059629,0.93994,0.875
12.888,2.61,0.59419,0.054741,0.94971,0.87988
12.896,2.5836,0.59809,0.054741,0.94971,0.88477
12.904,2.5425,0.60151,0.069892,0.94971,0.875
12.912,2.4878,0.60494,0.069892,0.95508,0.87988
12.92,2.4301,0.60836,0.059629,0.96484,0.87988
12.928,2.3656,0.61178,0.044477,0.97998,0.89014
12.936,2.2864,0.61544,0.054741,0.98486,0.89502
12.944,2.1965,0.61911,0.059629,1.0049,0.88477
12.952,2.0987,0.62277,0.044477,1.0146,0.89502
12.96,1.9951,0.62644,0.034702,1.0298,0.90479
12.968,1.8886,0.63034,0.054741,1.0249,0.89014
12.976,1.782,0.63425,0.079668,1.0249,0.875
12.984,1.6794,0.63816,0.10948,1.0049,0.85498
12.992,1.5816,0.64207,0.14467,0.98975,0.82471
13,1.4917,0.64598,0.21457,0.95508,0.7749
13.008,1.4106,0.64989,0.24976,0.91992,0.73975
13.016,1.3402,0.6538,0.26002,0.89014,0.72998
13.024,1.2884,0.65771,0.24976,0.86475,0.73486
13.032,1.2512,0.66162,0.22483,0.8501,0.74512
13.04,1.218,0.66553,0.20968,0.84473,0.75977
13.048,1.1926,0.66895,0.18964,0.83984,0.76514
13.056,1.176,0.67237,0.19501,0.83496,0.7749
13.064,1.1672,0.67554,0.18475,0.83496,0.77002
13.072,1.1662,0.67896,0.18964,0.83008,0.77979
13.08,1.172,0.68312,0.18964,0.83008,0.7749
13.088,1.1818,0.68752,0.18964,0.83984,0.77979
13.096,1.1955,0.69289,0.1999,0.83496,0.76514
13.104,1.2102,0.69827,0.21457,0.83008,0.75488
13.112,1.2239,0.70437,0.24976,0.83496,0.73486
13.12,1.2375,0.71073,0.28983,0.83496,0.7002
13.128,1.2512,0.71732,0.30987,0.83984,0.6748
13.136,1.262,0.72416,0.30499,0.84473,0.66992
13.144,1.2708,0.72978,0.31965,0.83984,0.66992
13.152,1.2766,0.7354,0.31476,0.82471,0.66992
13.16,1.2786,0.74029,0.28006,0.82471,0.69482
13.168,1.2776,0.74517,0.25464,0.82471,0.71973
13.176,1.2737,0.75079,0.21994,0.83984,0.73975
13.184,1.2669,0.75641,0.18964,0.84473,0.77002
13.192,1.2561,0.76252,0.17986,0.83496,0.78516
13.2,1.2424,0.76863,0.14956,0.83496,0.7998
13.208,1.2268,0.77425,0.14467,0.83496,0.80469
13.216,1.2092,0.78011,0.14956,0.83496,0.80469
13.224,1.1965,0.78524,0.15494,0.83496,0.80469
13.232,1.1848,0.79062,0.13978,0.83496,0.81006
13.24,1.1691,0.7955,0.12463,0.83984,0.81982
13.248,1.1505,0.80064,0.094819,0.88477,0.85986
13.256,1.132,0.80528,0.14956,0.89014,0.83008
13.264,1.1163,0.80992,0.42473,0.70508,0.62012
13.272,1.1065,0.81432,0.96041,0.37988,0.18994
13.28,1.1095,0.81871,1.2805,0.090332,-0.060059
13.288,1.13,0.82287,0.70039,0.19531,0.30029
13.296,1.174,0.82727,0.064516,0.43018,0.73486
13.304,1.2444,0.83069,-0.065494,0.63477,0.89502
13.312,1.3421,0.83435,-0.025415,0.77979,0.9248
13.32,1.4448,0.83728,-0.010264,0.87988,0.93506
13.328,1.5552,0.84046,0.014663,0.90967,0.91504
13.336,1.6921,0.8429,0.024438,0.91992,0.90479
13.344,1.8407,0.84559,0.044477,0.91504,0.8999
13.352,1.9912,0.84779,0.039589,0.91992,0.8999
13.36,2.1359,0.85023,0.044477,0.91992,0.89014
13.368,2.2678,0.85219,0.044477,0.9248,0.89502
13.376,2.3822,0.85414,0.044477,0.9248,0.89502
13.384,2.4751,0.8561,0.054741,0.9248,0.88477
13.392,2.5445,0.85805,0.059629,0.92969,0.88477
13.4,2.5904,0.86025,0.059629,0.9248,0.88477
13.408,2.6139,0.86245,0.064516,0.93506,0.87988
13.416,2.6158,0.86489,0.044477,0.93994,0.89502
13.424,2.6012,0.86758,0.054741,0.93994,0.88477
13.432,2.5709,0.87027,0.049853,0.93994,0.89014
13.44,2.5249,0.8732,0.054741,0.94971,0.89014
13.448,2.4653,0.87613,0.044477,0.95996,0.89502
13.456,2.392,0.87906,0.054741,0.95996,0.88477
13.464,2.3069,0.88151,0.044477,0.9751,0.8999
13.472,2.2121,0.88419,0.039589,0.98975,0.8999
13.48,2.1095,0.88639,0.034702,1.0049,0.90479
13.488,2.0029,0.88883,0.034702,1.0098,0.90479
13.496,1.8944,0.89128,0.039589,1.0098,0.90479
13.504,1.7869,0.89397,0.059629,1.0049,0.89014
13.512,1.6852,0.89665,0.079668,1,0.87988
13.52,1.6012,0.89934,0.11975,0.97998,0.8501
13.528,1.5308,0.90178,0.1696,0.94971,0.81006
13.536,1.4604,0.90423,0.22483,0.91504,0.77002
13.544,1.3969,0.90643,0.26002,0.88477,0.73975
13.552,1.3441,0.90862,0.26002,0.85986,0.72998
13.56,1.303,0.91107,0.26002,0.84473,0.7251
13.568,1.2737,0.91351,0.24487,0.83496,0.73975
13.576,1.2551,0.9162,0.2346,0.83008,0.73975
13.584,1.2454,0.91889,0.22483,0.81982,0.74512
13.592,1.2444,0.92182,0.21994,0.81982,0.75488
13.6,1.2493,0.92475,0.21457,0.81982,0.75488
13.608,1.259,0.92768,0.21457,0.81982,0.75488
13.616,1.2717,0.93061,0.2346,0.81494,0.75
13.624,1.2854,0.93306,0.24976,0.81006,0.73975
13.632,1.2991,0.93574,0.26491,0.80469,0.7251
13.64,1.3128,0.93794,0.28006,0.7998,0.71973
13.648,1.3255,0.94039,0.30987,0.80469,0.69482
13.656,1.3372,0.94332,0.34995,0.80469,0.66504
13.664,1.346,0.94649,0.37488,0.7998,0.64014
13.672,1.3519,0.94991,0.39492,0.7998,0.625
13.68,1.3558,0.95358,0.37977,0.80469,0.63477
13.688,1.3568,0.95602,0.3651,0.7998,0.6499
13.696,1.3548,0.95871,0.34506,0.79492,0.66504
13.704,1.349,0.96042,0.31476,0.7998,0.68994
13.712,1.3412,0.96237,0.28006,0.81006,0.71484
13.72,1.3333,0.96433,0.23998,0.81494,0.73975
13.728,1.3255,0.96653,0.22483,0.81494,0.75488
13.736,1.3128,0.96873,0.20968,0.81494,0.76514
13.744,1.2981,0.97093,0.1999,0.81982,0.77002
13.752,1.2805,0.97239,0.1999,0.81982,0.77002
13.76,1.262,0.97386,0.18964,0.81982,0.7749
13.768,1.2414,0.97459,0.18964,0.81982,0.7749
13.776,1.2209,0.97557,0.15494,0.83984,0.81006
13.784,1.2033,0.97581,0.13978,0.87012,0.83496
13.792,1.1926,0.9763,0.2346,0.8501,0.7749
13.8,1.1935,0.97606,0.60997,0.66016,0.5
13.808,1.2141,0.97581,1.2854,0.29492,-0.02002
13.816,1.2493,0.9741,1.501,0.050293,-0.21484
13.824,1.304,0.97264,0.82502,0.18018,0.21484
13.832,1.39,0.96995,0.1999,0.41504,0.6499
13.84,1.5064,0.96726,0.049853,0.61475,0.81494
13.848,1.6471,0.9636,0.059629,0.76514,0.87012
13.856,1.8065,0.96018,0.034702,0.85986,0.89502
13.864,1.9765,0.95578,0.044477,0.89014,0.8999
13.872,2.1486,0.95162,0.049853,0.8999,0.88477
13.88,2.3138,0.94625,0.054741,0.90479,0.89014
13.888,2.4643,0.94112,0.069892,0.90967,0.87988
13.896,2.5963,0.93501,0.069892,0.90967,0.87988
13.904,2.7048,0.9289,0.069892,0.90967,0.87988
13.912,2.7889,0.92157,0.089932,0.90967,0.86475
13.92,2.8426,0.91424,0.089932,0.91504,0.86475
13.928,2.8719,0.90618,0.07478,0.90967,0.87012
13.936,2.8895,0.89812,0.079668,0.91504,0.87012
13.944,2.8915,0.8903,0.084555,0.91992,0.87012
13.952,2.8778,0.88273,0.07478,0.9248,0.875
13.96,2.8495,0.87515,0.069892,0.92969,0.87988
13.968,2.8084,0.86758,0.059629,0.93994,0.88477
13.976,2.7546,0.85878,0.064516,0.93994,0.87988
13.984,2.6901,0.84999,0.039589,0.94971,0.89502
13.992,2.6158,0.84046,0.044477,0.95996,0.8999
14,2.5327,0.83093,0.024438,0.9751,0.90479
14.008,2.4428,0.82189,0.0097752,0.98486,0.91992
14.016,2.3568,0.81285,-0.00048876,1.0049,0.92969
14.024,2.2727,0.8043,-0.010264,1.0098,0.93506
14.032,2.1799,0.79599,-0.00048876,1.0146,0.92969
14.04,2.0831,0.78646,0.014663,1.0098,0.91992
14.048,1.9863,0.77718,0.039589,1.0049,0.8999
14.056,1.8935,0.76667,0.079668,0.98486,0.875
14.064,1.8074,0.75617,0.1349,0.95996,0.83008
14.072,1.7312,0.74444,0.19501,0.9248,0.78516
14.08,1.6657,0.73296,0.2346,0.89014,0.75488
14.088,1.6129,0.7205,0.24487,0.87012,0.73975
14.096,1.5718,0.70828,0.2346,0.85498,0.73975
14.104,1.5415,0.69656,0.20968,0.8501,0.75
14.112,1.523,0.68507,0.20479,0.84473,0.75488
14.12,1.5142,0.67408,0.20968,0.84473,0.75977
14.128,1.5132,0.66308,0.17986,0.84473,0.76514
14.136,1.5181,0.6516,0.1999,0.83496,0.75488
14.144,1.5269,0.64036,0.18964,0.84473,0.76514
14.152,1.5376,0.62888,0.1999,0.83984,0.75977
14.16,1.5494,0.6174,0.20968,0.83496,0.75488
14.168,1.5601,0.60713,0.21457,0.83496,0.75488
14.176,1.5709,0.59687,0.22972,0.83984,0.73975
14.184,1.5797,0.58759,0.24976,0.84473,0.7251
14.192,1.5855,0.5783,0.28006,0.83984,0.69482
14.2,1.5885,0.56878,0.28983,0.84473,0.68018
14.208,1.5885,0.55949,0.3001,0.83984,0.68018
14.216,1.5875,0.54996,0.28983,0.83984,0.68506
14.224,1.5846,0.54043,0.27468,0.83496,0.69482
14.232,1.5777,0.53115,0.24487,0.83496,0.71973
14.24,1.5689,0.52187,0.21994,0.84473,0.73975
14.248,1.5562,0.51307,0.18475,0.84473,0.77002
14.256,1.5406,0.50428,0.14956,0.84473,0.79004
14.264,1.523,0.4967,0.12952,0.8501,0.80469
14.272,1.5024,0.48913,0.13978,0.84473,0.7998
14.28,1.4809,0.48253,0.12952,0.8501,0.80469
14.288,1.4575,0.47593,0.10948,0.85498,0.81494
14.296,1.433,0.46909,0.11975,0.84473,0.81494
14.304,1.4106,0.4625,0.10948,0.85498,0.82471
14.312,1.393,0.45566,0.089932,0.88477,0.85986
14.32,1.3832,0.44882,0.12952,0.89014,0.83008
14.328,1.3842,0.44222,0.40469,0.79492,0.64014
14.336,1.3998,0.43562,0.95552,0.55518,0.18018
14.344,1.436,0.42903,1.4956,0.18506,-0.23975
14.352,1.4976,0.42267,1.0406,0.125,0.02002
14.36,1.5855,0.41485,0.3651,0.29004,0.49512
14.368,1.6989,0.40728,0.07478,0.52002,0.75488
14.376,1.8338,0.39849,0.0097752,0.7251,0.875
14.384,1.9824,0.38969,-0.025415,0.85498,0.92969
14.392,2.1388,0.38041,-0.050342,0.91504,0.95508
14.4,2.2933,0.37137,-0.045455,0.9248,0.95508
14.408,2.4399,0.36208,-0.040567,0.93506,0.94971
14.416,2.5562,0.35304,-0.035191,0.93994,0.94971
14.424,2.6491,0.34449,-0.020528,0.93994,0.93994
14.432,2.738,0.33618,-0.025415,0.93994,0.93994
14.44,2.8123,0.32837,-0.030303,0.94482,0.93994
14.448,2.869,0.32055,-0.025415,0.94482,0.93994
14.456,2.9052,0.31224,-0.025415,0.95508,0.93994
14.464,2.9228,0.30418,-0.035191,0.95996,0.94482
14.472,2.9238,0.29563,-0.030303,0.95996,0.93994
14.48,2.9091,0.28732,-0.035191,0.95996,0.93994
14.488,2.8817,0.27975,-0.030303,0.96484,0.93994
14.496,2.8416,0.27217,-0.035191,0.96973,0.93994
14.504,2.7918,0.26509,-0.025415,0.9751,0.94482
14.512,2.7322,0.25825,-0.040567,0.98486,0.95508
14.52,2.6706,0.25165,-0.050342,0.99512,0.95996
14.528,2.6051,0.24505,-0.05523,1.0049,0.96973
14.536,2.5279,0.23846,-0.070381,1.02,0.97998
14.544,2.4399,0.23186,-0.085533,1.0298,0.98975
14.552,2.3451,0.22526,-0.070381,1.0347,0.98975
14.56,2.2454,0.21891,-0.070381,1.04,0.99512
14.568,2.1427,0.21256,-0.065494,1.0449,0.98975
14.576,2.0411,0.20645,-0.025415,1.02,0.96484
14.584,1.9423,0.20132,0.0097752,1.0049,0.93506
14.592,1.8495,0.19619,0.064516,0.97998,0.89502
14.6,1.7644,0.19179,0.11975,0.94482,0.8501
14.608,1.6882,0.18764,0.16471,0.90967,0.81006
14.616,1.6285,0.183,0.17986,0.88477,0.79004
14.624,1.5826,0.1786,0.17498,0.87012,0.77979
14.632,1.5396,0.17396,0.18475,0.85498,0.77002
14.64,1.5044,0.16956,0.17986,0.84473,0.77002
14.648,1.478,0.16614,0.1696,0.83984,0.77979
14.656,1.4604,0.16296,0.16471,0.84473,0.77979
14.664,1.4506,0.16076,0.16471,0.83984,0.77979
14.672,1.4467,0.15856,0.17498,0.83984,0.7749
14.68,1.4467,0.15636,0.17986,0.83984,0.77002
14.688,1.4506,0.15417,0.18964,0.83984,0.76514
14.696,1.4555,0.15172,0.18475,0.83496,0.77002
14.704,1.4604,0.14952,0.19501,0.83984,0.76514
14.712,1.4643,0.14732,0.21994,0.83984,0.73975
14.72,1.4682,0.14537,0.24487,0.84473,0.71484
14.728,1.4702,0.14366,0.28006,0.83984,0.69482
14.736,1.4702,0.14219,0.26979,0.84473,0.69482
14.744,1.4673,0.14073,0.23998,0.84473,0.71973
14.752,1.4614,0.13951,0.2346,0.83008,0.7251
14.76,1.4614,0.13828,0.21457,0.82471,0.73975
14.768,1.4624,0.13731,0.18964,0.84473,0.75977
14.776,1.4545,0.13633,0.14956,0.84473,0.79004
14.784,1.4418,0.13535,0.13978,0.83984,0.80469
14.792,1.4252,0.13438,0.10948,0.84473,0.81982
14.8,1.4047,0.13364,0.11975,0.83984,0.82471
14.808,1.3832,0.1334,0.12952,0.84473,0.81494
14.816,1.3646,0.13315,0.11486,0.84473,0.81494
14.824,1.348,0.1334,0.10948,0.83984,0.81982
14.832,1.3275,0.13389,0.099707,0.84473,0.83496
14.84,1.3089,0.13438,0.07478,0.875,0.86475
14.848,1.2972,0.13511,0.10948,0.89014,0.875
14.856,1.2981,0.13584,0.3651,0.79004,0.66016
14.864,1.3187,0.13657,0.97019,0.52979,0.14502
14.872,1.3627,0.13657,1.4609,0.16016,-0.26465
14.88,1.434,0.13657,1.0503,0.055176,-0.029785
14.888,1.5347,0.13584,0.38514,0.23486,0.45996
14.896,1.6608,0.13535,0.12463,0.48486,0.71484
14.904,1.8074,0.13486,0.064516,0.69482,0.84473
14.912,1.9677,0.13438,-0.015152,0.85986,0.93506
14.92,2.1095,0.13364,-0.040567,0.90967,0.95508
14.928,2.2395,0.13291,-0.020528,0.92969,0.95508
14.936,2.3793,0.13169,-0.030303,0.93506,0.95508
14.944,2.5142,0.13071,-0.025415,0.93994,0.94971
14.952,2.6354,0.12925,-0.030303,0.93994,0.95508
14.96,2.737,0.12778,-0.025415,0.93994,0.94971
14.968,2.8162,0.12656,-0.020528,0.94482,0.94482
14.976,2.8719,0.12534,-0.030303,0.93994,0.94971
14.984,2.9062,0.12411,-0.010264,0.94971,0.93506
14.992,2.9198,0.12314,-0.0053763,0.94482,0.93994
15,2.9169,0.12118,0.0043988,0.95508,0.92969
15.008,2.8983,0.11947,-0.00048876,0.95508,0.93506
15.016,2.868,0.11678,-0.015152,0.96484,0.92969
15.024,2.8289,0.11434,-0.0053763,0.96484,0.94482
15.032,2.7801,0.11117,-0.00048876,0.9751,0.93994
15.04,2.7214,0.10823,-0.010264,0.98486,0.94482
15.048,2.654,0.10481,-0.025415,1,0.95996
15.056,2.5777,0.10164,-0.035191,1.0098,0.96484
15.064,2.4936,0.098949,-0.040567,1.0146,0.9751
15.072,2.4027,0.096506,-0.035191,1.0249,0.9751
15.08,2.306,0.094552,-0.030303,1.0298,0.98486
15.088,2.2043,0.092841,-0.045455,1.04,0.99512
15.096,2.0997,0.091376,-0.030303,1.0298,0.97998
15.104,1.9951,0.090154,0.0097752,1.0098,0.95508
15.112,1.9052,0.089177,0.054741,0.98975,0.9248
15.12,1.825,0.088444,0.099707,0.96484,0.89014
15.128,1.7419,0.088199,0.15982,0.92969,0.83496
15.136,1.6628,0.088199,0.20968,0.89014,0.79004
15.144,1.5904,0.088688,0.20968,0.87012,0.77002
15.152,1.5288,0.089421,0.22972,0.8501,0.75488
15.16,1.478,0.090398,0.21457,0.83984,0.75488
15.168,1.4389,0.091376,0.22483,0.83008,0.74512
15.176,1.4106,0.092597,0.20968,0.82471,0.74512
15.184,1.392,0.094063,0.20968,0.83008,0.75
15.192,1.3812,0.095529,0.20479,0.83496,0.75488
15.2,1.3783,0.097239,0.1999,0.83496,0.75488
15.208,1.3803,0.098949,0.20968,0.83496,0.75488
15.216,1.3871,0.10066,0.22483,0.82471,0.74512
15.224,1.3949,0.10237,0.22972,0.82471,0.75
15.232,1.4027,0.10432,0.2346,0.82471,0.73975
15.24,1.4106,0.10628,0.25464,0.83008,0.71484
15.248,1.4174,0.10823,0.28495,0.83496,0.68994
15.256,1.4223,0.11019,0.30499,0.83496,0.66992
15.264,1.4242,0.11214,0.28983,0.84473,0.68506
15.272,1.4233,0.1141,0.28006,0.83984,0.69482
15.28,1.4194,0.11605,0.28006,0.83008,0.7002
15.288,1.4115,0.11801,0.26002,0.83496,0.71484
15.296,1.4018,0.11996,0.22972,0.8501,0.73975
15.304,1.3881,0.12192,0.18964,0.84473,0.7749
15.312,1.3763,0.12387,0.16471,0.84473,0.79004
15.32,1.3646,0.12582,0.16471,0.84473,0.79492
15.328,1.347,0.12778,0.16471,0.84473,0.79492
15.336,1.3265,0.12949,0.16471,0.83984,0.79492
15.344,1.304,0.1312,0.16471,0.84473,0.79492
15.352,1.2805,0.13291,0.15982,0.84473,0.79492
15.36,1.2581,0.13462,0.13978,0.84473,0.81006
15.368,1.2385,0.13633,0.11975,0.875,0.84473
15.376,1.2258,0.13804,0.17498,0.87988,0.81494
15.384,1.2248,0.13975,0.45992,0.75,0.59521
15.392,1.2424,0.14146,1.0904,0.4502,0.055176
15.4,1.2825,0.14293,1.501,0.080078,-0.2998
15.408,1.3509,0.14464,1.0552,0.0048828,-0.034668
15.416,1.4301,0.14561,0.41496,0.2251,0.44482
15.424,1.5239,0.14684,0.20479,0.47998,0.66992
15.432,1.6481,0.14757,0.12463,0.70996,0.81982
15.44,1.7937,0.1483,0.064516,0.85498,0.89502
15.448,1.9511,0.14855,0.044477,0.90479,0.91992
15.456,2.1105,0.14903,0.049853,0.91992,0.91504
15.464,2.2639,0.14928,0.054741,0.9248,0.90967
15.472,2.4027,0.14952,0.069892,0.92969,0.90479
15.48,2.523,0.14977,0.064516,0.9248,0.90479
15.488,2.6217,0.15026,0.069892,0.93506,0.8999
15.496,2.697,0.15075,0.069892,0.93994,0.90479
15.504,2.7488,0.15148,0.07478,0.93994,0.8999
15.512,2.7761,0.15172,0.07478,0.93994,0.8999
15.52,2.784,0.15221,0.079668,0.94482,0.8999
15.528,2.7801,0.15246,0.079668,0.94971,0.89502
15.536,2.7625,0.1527,0.084555,0.95508,0.89014
15.544,2.7322,0.15294,0.079668,0.95996,0.89502
15.552,2.6911,0.15343,0.079668,0.96484,0.89502
15.56,2.6383,0.15417,0.084555,0.96973,0.89502
15.568,2.5758,0.1549,0.089932,0.97998,0.8999
15.576,2.5034,0.15563,0.079668,0.98975,0.90479
15.584,2.4233,0.15661,0.069892,1.0098,0.91504
15.592,2.3363,0.15759,0.054741,1.0249,0.9248
15.6,2.2414,0.15856,0.049853,1.0298,0.92969
15.608,2.1427,0.15954,0.059629,1.04,0.91992
15.616,2.0528,0.16052,0.069892,1.04,0.91504
15.624,1.9677,0.16174,0.079668,1.0347,0.90967
15.632,1.8739,0.16321,0.10948,1.0146,0.89014
15.64,1.7791,0.1654,0.14956,0.99512,0.85986
15.648,1.6862,0.1676,0.1999,0.96484,0.81982
15.656,1.5992,0.17078,0.26002,0.9248,0.77002
15.664,1.521,0.17396,0.28495,0.89014,0.73486
15.672,1.4526,0.17811,0.29472,0.87012,0.71973
15.68,1.3949,0.18226,0.28006,0.85498,0.71973
15.688,1.348,0.18715,0.27468,0.83984,0.71973
15.696,1.3118,0.19228,0.26002,0.83496,0.71973
15.704,1.2864,0.19741,0.26002,0.83496,0.7251
15.712,1.2727,0.20254,0.25464,0.83496,0.7251
15.72,1.2678,0.20792,0.24487,0.83496,0.72998
15.728,1.2659,0.21329,0.23998,0.83496,0.73975
15.736,1.2678,0.22038,0.25464,0.83496,0.73486
15.744,1.2727,0.22746,0.25464,0.83008,0.72998
15.752,1.2786,0.23577,0.26002,0.83008,0.7251
15.76,1.2845,0.24432,0.27468,0.83496,0.71484
15.768,1.2893,0.25214,0.30987,0.83984,0.68506
15.776,1.2923,0.25996,0.33969,0.83008,0.66016
15.784,1.2923,0.26729,0.34995,0.83984,0.6499
15.792,1.2884,0.27462,0.32991,0.83984,0.66504
15.8,1.2805,0.28292,0.31476,0.83008,0.6748
15.808,1.2688,0.29123,0.30499,0.82471,0.68506
15.816,1.259,0.30027,0.28006,0.82471,0.70996
15.824,1.2473,0.30931,0.25464,0.83496,0.73486
15.832,1.2297,0.31786,0.21994,0.83984,0.75977
15.84,1.2092,0.32666,0.1999,0.83496,0.77002
15.848,1.1867,0.33496,0.18964,0.83008,0.77979
15.856,1.1623,0.34327,0.16471,0.83984,0.79004
15.864,1.1359,0.35011,0.16471,0.83496,0.78516
15.872,1.1085,0.35695,0.16471,0.83496,0.77979
15.88,1.0802,0.36257,0.16471,0.83984,0.78516
15.888,1.0518,0.36843,0.13978,0.8501,0.81494
15.896,1.0254,0.37259,0.084555,0.89502,0.86475
15.904,1.0029,0.37699,0.079668,0.8999,0.87012
15.912,0.9912,0.38016,0.38514,0.68018,0.64502
15.92,0.99218,0.38334,0.97556,0.30518,0.15527
15.928,1.0068,0.38578,1.2757,0.010254,-0.080078
15.936,1.044,0.38822,0.76002,-0.014648,0.23486
15.944,1.1085,0.38993,0.1999,0.31982,0.64502
15.952,1.2023,0.39189,0.039589,0.58008,0.82471
15.96,1.3245,0.39311,0.024438,0.77979,0.89014
15.968,1.4702,0.39458,0.024438,0.89014,0.91504
15.976,1.6325,0.39555,0.01955,0.92969,0.90967
15.984,1.8016,0.39653,0.024438,0.93994,0.90967
15.992,1.9697,0.39751,0.024438,0.93994,0.90479
16,2.129,0.39873,0.029814,0.93994,0.90479
16.008,2.2717,0.4002,0.029814,0.94482,0.90479
16.016,2.3812,0.40166,0.039589,0.94971,0.8999
16.024,2.4633,0.40313,0.049853,0.94482,0.89014
16.032,2.5357,0.40459,0.044477,0.94971,0.89502
16.04,2.5904,0.4063,0.039589,0.95508,0.89502
16.048,2.6246,0.40826,0.054741,0.95996,0.89014
16.056,2.6373,0.41046,0.044477,0.95996,0.88477
16.064,2.6305,0.4129,0.054741,0.95996,0.88477
16.072,2.607,0.41559,0.054741,0.96484,0.88477
16.08,2.5689,0.41828,0.044477,0.96973,0.89014
16.088,2.5171,0.42096,0.044477,0.97998,0.89014
16.096,2.4526,0.42365,0.044477,0.98486,0.89014
16.104,2.3783,0.42609,0.039589,0.99512,0.8999
16.112,2.304,0.42878,0.034702,1.0098,0.90479
16.12,2.2278,0.4322,0.044477,1.0098,0.8999
16.128,2.1378,0.43587,0.039589,1.0298,0.90479
16.136,2.0381,0.44026,0.024438,1.0449,0.90967
16.144,1.9335,0.44466,0.024438,1.0498,0.91504
16.152,1.827,0.44955,0.054741,1.0449,0.89014
16.16,1.7204,0.45468,0.084555,1.0298,0.875
16.168,1.6178,0.45981,0.11975,1.0146,0.83984
16.176,1.522,0.46518,0.16471,0.98486,0.7998
16.184,1.435,0.46958,0.22483,0.94482,0.75977
16.192,1.3597,0.47422,0.23998,0.91504,0.73975
16.2,1.2962,0.47838,0.2346,0.89014,0.73486
16.208,1.2444,0.48253,0.22972,0.875,0.72998
16.216,1.2102,0.48717,0.1999,0.86475,0.75488
16.224,1.1887,0.49182,0.18964,0.85986,0.76514
16.232,1.173,0.4967,0.17498,0.85498,0.7749
16.24,1.1642,0.50183,0.1696,0.84473,0.77979
16.248,1.1632,0.50599,0.16471,0.84473,0.78516
16.256,1.1681,0.51038,0.1696,0.85498,0.78516
16.264,1.1779,0.51429,0.16471,0.85498,0.79004
16.272,1.1906,0.5182,0.17986,0.85498,0.7749
16.28,1.2043,0.5226,0.18475,0.85986,0.76514
16.288,1.218,0.52724,0.21457,0.85986,0.74512
16.296,1.2317,0.53213,0.24976,0.86475,0.71484
16.304,1.2434,0.53726,0.28495,0.85986,0.68506
16.312,1.2542,0.54263,0.28983,0.86475,0.68018
16.32,1.262,0.54801,0.28495,0.85498,0.68506
16.328,1.2649,0.55338,0.26979,0.8501,0.69482
16.336,1.2659,0.559,0.26002,0.84473,0.70508
16.344,1.2639,0.56389,0.21457,0.85498,0.73486
16.352,1.2581,0.56878,0.18475,0.85986,0.76514
16.36,1.2493,0.57293,0.14956,0.86475,0.79004
16.368,1.2385,0.57708,0.1349,0.85986,0.80469
16.376,1.2258,0.58172,0.12463,0.85498,0.81006
16.384,1.2111,0.58661,0.11486,0.85498,0.81494
16.392,1.1945,0.5915,0.12952,0.8501,0.80469
16.4,1.176,0.59663,0.11486,0.85498,0.81006
16.408,1.1564,0.60078,0.11486,0.8501,0.81494
16.416,1.1417,0.60518,0.084555,0.87012,0.83984
16.424,1.129,0.60884,0.044477,0.90479,0.88477
16.432,1.1114,0.61275,0.039589,0.91504,0.86475
16.44,1.0938,0.61642,0.33969,0.72998,0.66504
16.448,1.0811,0.62033,0.87537,0.39014,0.24023
16.456,1.0792,0.62424,1.2053,0.095215,-0.014648
16.464,1.0938,0.62815,0.67009,0.18994,0.31006
16.472,1.13,0.63254,0.054741,0.43018,0.73486
16.48,1.1935,0.63719,-0.080645,0.64014,0.89502
16.488,1.2845,0.64207,-0.045455,0.79492,0.92969
16.496,1.4018,0.64696,-0.040567,0.8999,0.94971
16.504,1.5406,0.65111,-0.020528,0.93506,0.92969
16.512,1.6725,0.65527,-0.010264,0.94482,0.9248
16.52,1.8006,0.65893,-0.010264,0.93994,0.9248
16.528,1.9462,0.66259,-0.00048876,0.94482,0.91992
16.536,2.0929,0.66675,0.0097752,0.93994,0.90967
16.544,2.2307,0.67115,0.024438,0.93994,0.90479
16.552,2.3519,0.67579,0.029814,0.94482,0.8999
16.56,2.4516,0.68043,0.039589,0.93994,0.89502
16.568,2.5279,0.68434,0.01955,0.94971,0.90479
16.576,2.5797,0.68849,0.024438,0.95508,0.8999
16.584,2.608,0.69191,0.034702,0.94971,0.8999
16.592,2.6139,0.69558,0.039589,0.95508,0.89014
16.6,2.5992,0.699,0.044477,0.95996,0.89014
16.608,2.565,0.70266,0.029814,0.95996,0.89502
16.616,2.522,0.70633,0.034702,0.96484,0.8999
16.624,2.4692,0.70999,0.01955,0.9751,0.90479
16.632,2.3988,0.71366,0.024438,0.98486,0.90479
16.64,2.3138,0.71732,0.01955,0.98975,0.90479
16.648,2.218,0.72099,0.024438,1.0049,0.90479
16.656,2.1144,0.72465,0.0043988,1.0146,0.91992
16.664,2.0059,0.72783,0.0043988,1.0249,0.9248
16.672,1.8954,0.731,0.01955,1.02,0.91504
16.68,1.7859,0.73394,0.024438,1.0298,0.90967
16.688,1.6813,0.73687,0.044477,1.0098,0.89014
16.696,1.5836,0.74053,0.089932,0.99512,0.85986
16.704,1.4946,0.7442,0.15494,0.95996,0.81494
16.712,1.4262,0.74811,0.20479,0.93506,0.7749
16.72,1.3734,0.75226,0.2346,0.90479,0.74512
16.728,1.3236,0.75519,0.21994,0.87988,0.75977
16.736,1.2825,0.75837,0.20968,0.87012,0.75488
16.744,1.2522,0.76057,0.18964,0.85986,0.76514
16.752,1.2336,0.76301,0.17498,0.85498,0.7749
16.76,1.2239,0.76594,0.16471,0.84473,0.78516
16.768,1.2219,0.76912,0.17498,0.84473,0.77979
16.776,1.2258,0.77278,0.16471,0.84473,0.79004
16.784,1.2346,0.77669,0.16471,0.84473,0.79004
16.792,1.2473,0.78109,0.15494,0.84473,0.79004
16.8,1.262,0.78549,0.1696,0.84473,0.77979
16.808,1.2845,0.79013,0.19501,0.84473,0.76514
16.816,1.3109,0.79502,0.21457,0.84473,0.75977
16.824,1.3304,0.79966,0.24976,0.84473,0.73486
16.832,1.3451,0.8043,0.28495,0.83984,0.7002
16.84,1.3568,0.8087,0.30499,0.84473,0.68018
16.848,1.3646,0.8131,0.30499,0.84473,0.6748
16.856,1.3705,0.81774,0.30499,0.8501,0.68506
16.864,1.3734,0.82262,0.29472,0.83984,0.68994
16.872,1.3734,0.82751,0.25464,0.83984,0.71973
16.88,1.3705,0.83264,0.21994,0.84473,0.73975
16.888,1.3656,0.83679,0.19501,0.84473,0.76514
16.896,1.3578,0.84095,0.17498,0.84473,0.79004
16.904,1.348,0.84461,0.14467,0.84473,0.81006
16.912,1.3402,0.84828,0.13978,0.84473,0.81494
16.92,1.3314,0.85243,0.1349,0.84473,0.81494
16.928,1.3187,0.85658,0.13978,0.84473,0.81494
16.936,1.303,0.86098,0.13978,0.83984,0.81494
16.944,1.2845,0.86538,0.1349,0.83984,0.81494
16.952,1.2639,0.86904,0.099707,0.86475,0.84473
16.96,1.2434,0.87295,0.089932,0.89014,0.86475
16.968,1.2268,0.87613,0.21457,0.84473,0.79004
16.976,1.217,0.87931,0.58993,0.625,0.5
16.984,1.2209,0.88199,1.2253,0.24512,0.010254
16.992,1.2444,0.88468,1.3504,0.125,-0.084961
17,1.2933,0.88712,0.41984,0.31006,0.48486
17.008,1.3568,0.88957,-0.075269,0.53516,0.84473
17.016,1.4399,0.89201,-0.11535,0.68994,0.9248
17.024,1.5572,0.8947,-0.025415,0.81006,0.93506
17.032,1.6999,0.89739,-0.0053763,0.87988,0.93994
17.04,1.8612,0.90032,0.024438,0.89014,0.91992
17.048,2.0313,0.90227,0.039589,0.90479,0.90967
17.056,2.2014,0.90423,0.054741,0.90479,0.8999
17.064,2.3617,0.90545,0.059629,0.8999,0.89014
17.072,2.5073,0.90667,0.069892,0.90479,0.88477
17.08,2.6315,0.90814,0.07478,0.8999,0.88477
17.088,2.7322,0.90985,0.084555,0.89502,0.87988
17.096,2.8074,0.9118,0.089932,0.8999,0.875
17.104,2.8573,0.914,0.094819,0.89014,0.87012
17.112,2.8807,0.91571,0.10459,0.89502,0.86475
17.12,2.8827,0.91766,0.10459,0.89502,0.86475
17.128,2.869,0.91913,0.10948,0.89014,0.86475
17.136,2.8397,0.92084,0.10948,0.89014,0.85986
17.144,2.7947,0.92182,0.10459,0.8999,0.87012
17.152,2.7361,0.9228,0.11486,0.8999,0.85986
17.16,2.6637,0.92328,0.099707,0.91504,0.87012
17.168,2.5806,0.92377,0.094819,0.91992,0.87988
17.176,2.4868,0.92426,0.099707,0.93506,0.87988
17.184,2.3842,0.92499,0.084555,0.94482,0.89014
17.192,2.2747,0.92548,0.079668,0.94971,0.89502
17.2,2.1623,0.92622,0.07478,0.95996,0.8999
17.208,2.0626,0.92646,0.079668,0.96484,0.89502
17.216,1.9697,0.92695,0.099707,0.95996,0.88477
17.224,1.871,0.9267,0.11486,0.95508,0.87012
17.232,1.7722,0.92646,0.1696,0.93506,0.83008
17.24,1.6804,0.92475,0.23998,0.90479,0.78516
17.248,1.5992,0.92328,0.29472,0.86475,0.73975
17.256,1.5298,0.9206,0.32991,0.83984,0.71484
17.264,1.4721,0.91791,0.32991,0.81494,0.7002
17.272,1.4272,0.91424,0.31476,0.80469,0.70508
17.28,1.3949,0.91082,0.30499,0.79492,0.71484
17.288,1.3744,0.90667,0.28983,0.7998,0.71973
17.296,1.3646,0.90276,0.28006,0.79492,0.72998
17.304,1.3636,0.89861,0.26979,0.79492,0.73486
17.312,1.3685,0.8947,0.28006,0.79492,0.72998
17.32,1.3783,0.89054,0.27468,0.79004,0.72998
17.328,1.39,0.88664,0.28006,0.79004,0.73486
17.336,1.4037,0.88199,0.28983,0.79004,0.71973
17.344,1.4174,0.8776,0.28495,0.79492,0.71973
17.352,1.4311,0.87271,0.3001,0.79492,0.71484
17.36,1.4438,0.86807,0.32502,0.7998,0.68994
17.368,1.4545,0.86294,0.3651,0.79492,0.66016
17.376,1.4643,0.85781,0.37488,0.79492,0.64502
17.384,1.4721,0.85243,0.37977,0.7998,0.64014
17.392,1.477,0.84706,0.3651,0.7998,0.6499
17.4,1.48,0.84144,0.34506,0.79492,0.66992
17.408,1.4819,0.83606,0.30987,0.7998,0.68994
17.416,1.4829,0.8302,0.27468,0.81494,0.71973
17.424,1.4809,0.82458,0.24976,0.81982,0.73975
17.432,1.477,0.81823,0.21994,0.81982,0.76514
17.44,1.4712,0.81212,0.18964,0.82471,0.77979
17.448,1.4643,0.80528,0.1999,0.81982,0.78516
17.456,1.4555,0.79844,0.17986,0.81982,0.77979
17.464,1.4457,0.79184,0.18475,0.81494,0.78516
17.472,1.435,0.78524,0.1696,0.81982,0.79004
17.48,1.4242,0.7784,0.15982,0.82471,0.7998
17.488,1.4164,0.77181,0.11975,0.85986,0.83496
17.496,1.4145,0.76374,0.11486,0.875,0.8501
17.504,1.4233,0.75592,0.34995,0.7998,0.68994
17.512,1.4428,0.74688,0.8304,0.58496,0.31006
17.52,1.4761,0.73785,1.4707,0.20508,-0.18506
17.528,1.5327,0.72929,1.1857,0.12012,-0.040039
17.536,1.6149,0.72099,0.47996,0.28027,0.43018
17.544,1.7234,0.71268,0.079668,0.5,0.74512
17.552,1.8553,0.70462,0.024438,0.6748,0.85986
17.56,2.0059,0.69484,-0.0053763,0.81494,0.91992
17.568,2.1681,0.68532,-0.030303,0.89014,0.94971
17.576,2.3353,0.67408,-0.030303,0.90967,0.94971
17.584,2.4976,0.66308,-0.045455,0.91504,0.95508
17.592,2.6491,0.65038,-0.025415,0.91504,0.94482
17.6,2.783,0.63767,-0.025415,0.91504,0.93994
17.608,2.8827,0.62399,-0.025415,0.91504,0.94482
17.616,2.955,0.61031,-0.030303,0.9248,0.94482
17.624,3.0186,0.59761,-0.030303,0.91992,0.94482
17.632,3.0655,0.58515,-0.050342,0.92969,0.95508
17.64,3.0929,0.57342,-0.025415,0.9248,0.93994
17.648,3.1007,0.56169,-0.040567,0.92969,0.94971
17.656,3.0919,0.54923,-0.030303,0.93506,0.94482
17.664,3.0684,0.53701,-0.035191,0.93994,0.94971
17.672,3.0313,0.52407,-0.040567,0.94971,0.95508
17.68,2.9834,0.51136,-0.045455,0.94971,0.95508
17.688,2.9247,0.50012,-0.05523,0.95508,0.95996
17.696,2.8563,0.48888,-0.060606,0.96484,0.96484
17.704,2.7791,0.47862,-0.070381,0.98486,0.9751
17.712,2.7019,0.4686,-0.075269,0.98975,0.97998
17.72,2.6237,0.4581,-0.080645,1,0.98975
17.728,2.5327,0.44759,-0.095308,1.0146,1
17.736,2.434,0.43635,-0.10557,1.0249,1.0049
17.744,2.3304,0.42536,-0.09042,1.02,1
17.752,2.2268,0.41388,-0.085533,1.0098,1
17.76,2.1251,0.40264,-0.040567,0.99512,0.96973
17.768,2.0274,0.39116,0.0097752,0.96973,0.92969
17.776,1.9374,0.37967,0.069892,0.94482,0.87988
17.784,1.8583,0.36941,0.1349,0.90479,0.83008
17.792,1.7898,0.35939,0.16471,0.875,0.80469
17.8,1.7331,0.35011,0.17498,0.85498,0.79004
17.808,1.6921,0.34107,0.15982,0.8501,0.79004
17.816,1.6618,0.33179,0.15494,0.83984,0.79004
17.824,1.6373,0.32275,0.13978,0.83984,0.80469
17.832,1.6197,0.31371,0.13978,0.83496,0.7998
17.84,1.609,0.30467,0.14956,0.83496,0.79492
17.848,1.6041,0.29685,0.13978,0.83008,0.7998
17.856,1.6031,0.28927,0.14467,0.83008,0.7998
17.864,1.6061,0.28268,0.15494,0.83008,0.79492
17.872,1.61,0.27633,0.1696,0.83496,0.79004
17.88,1.6129,0.26973,0.17498,0.83008,0.78516
17.888,1.6158,0.26338,0.18964,0.83496,0.77002
17.896,1.6168,0.25678,0.20968,0.83984,0.74512
17.904,1.6168,0.25043,0.21994,0.83984,0.72998
17.912,1.6158,0.24432,0.23998,0.83496,0.71973
17.92,1.6139,0.23846,0.23998,0.83008,0.71973
17.928,1.61,0.23308,0.22972,0.81982,0.73486
17.936,1.6031,0.22771,0.19501,0.82471,0.75488
17.944,1.5934,0.22306,0.1696,0.83496,0.77979
17.952,1.5806,0.21867,0.15982,0.83496,0.79004
17.96,1.566,0.21476,0.11486,0.83984,0.82471
17.968,1.5484,0.21109,0.099707,0.83496,0.83496
17.976,1.5298,0.20792,0.079668,0.83984,0.8501
17.984,1.5093,0.20474,0.089932,0.83984,0.83984
17.992,1.4858,0.20181,0.079668,0.83984,0.84473
18,1.4614,0.19912,0.094819,0.83008,0.83984
18.008,1.4418,0.19619,0.079668,0.83496,0.84473
18.016,1.4262,0.19326,0.044477,0.85986,0.87988
18.024,1.4115,0.19008,0.054741,0.89014,0.89502
18.032,1.4057,0.18715,0.22483,0.84473,0.77979
18.04,1.4135,0.18397,0.70039,0.64502,0.39014
18.048,1.4438,0.1808,1.3905,0.26025,-0.16992
18.056,1.5005,0.17762,1.4409,0.080078,-0.22998
18.064,1.5855,0.17444,0.55523,0.18018,0.33984
18.072,1.6979,0.17127,0.11486,0.41504,0.7002
18.08,1.8338,0.16809,0.029814,0.625,0.8501
18.088,1.9883,0.16492,-0.045455,0.81006,0.94971
18.096,2.1535,0.16174,-0.075269,0.89014,0.97998
18.104,2.3196,0.15856,-0.095308,0.91992,0.99512
18.112,2.4594,0.15539,-0.080645,0.9248,0.98975
18.12,2.5777,0.15246,-0.080645,0.93506,0.98975
18.128,2.697,0.14952,-0.09042,0.93994,0.99512
18.136,2.8045,0.14659,-0.075269,0.93994,0.97998
18.144,2.8935,0.14366,-0.065494,0.93994,0.97998
18.152,2.9609,0.14073,-0.065494,0.93994,0.97998
18.16,3.0068,0.1378,-0.070381,0.94482,0.97998
18.168,3.0313,0.13486,-0.060606,0.94971,0.9751
18.176,3.0362,0.13193,-0.070381,0.95508,0.97998
18.184,3.0254,0.129,-0.065494,0.95508,0.9751
18.192,3,0.12631,-0.070381,0.95996,0.9751
18.2,2.9619,0.12289,-0.065494,0.96973,0.97998
18.208,2.9159,0.11972,-0.060606,0.96973,0.9751
18.216,2.8641,0.1163,-0.070381,0.98486,0.98486
18.224,2.8016,0.11288,-0.075269,0.99512,0.98975
18.232,2.7292,0.10946,-0.085533,1.0049,1
18.24,2.6481,0.10628,-0.1002,1.02,1.0098
18.248,2.5601,0.10335,-0.1002,1.0298,1.02
18.256,2.4643,0.10042,-0.1002,1.0298,1.0249
18.264,2.3636,0.098216,-0.11535,1.04,1.0298
18.272,2.26,0.096018,-0.12023,1.0498,1.0347
18.28,2.1554,0.094307,-0.080645,1.0298,1.0098
18.288,2.0518,0.092841,-0.040567,1.0146,0.98486
18.296,1.9511,0.092108,-0.00048876,0.98975,0.94971
18.304,1.8573,0.091376,0.069892,0.94482,0.89502
18.312,1.781,0.091376,0.11975,0.91504,0.85498
18.32,1.7175,0.09162,0.12952,0.89014,0.83496
18.328,1.6559,0.091864,0.1696,0.85498,0.80469
18.336,1.6012,0.092108,0.15982,0.84473,0.7998
18.344,1.5552,0.092353,0.14956,0.83984,0.79492
18.352,1.52,0.092597,0.14467,0.83496,0.7998
18.36,1.4956,0.093086,0.1349,0.83496,0.80469
18.368,1.479,0.093819,0.12463,0.83008,0.81006
18.376,1.4702,0.094796,0.13978,0.83008,0.7998
18.384,1.4682,0.096018,0.13978,0.83496,0.80469
18.392,1.4721,0.097239,0.16471,0.82471,0.79004
18.4,1.479,0.098705,0.15982,0.82471,0.79492
18.408,1.4878,0.10017,0.1696,0.82471,0.79004
18.416,1.4966,0.10188,0.18475,0.83496,0.7749
18.424,1.5054,0.10408,0.20479,0.83496,0.74512
18.432,1.5122,0.10652,0.22972,0.83984,0.7251
18.44,1.5171,0.10921,0.22483,0.83496,0.72998
18.448,1.5191,0.1119,0.21457,0.84473,0.73975
18.456,1.5171,0.11434,0.20479,0.83496,0.75
18.464,1.5122,0.11703,0.18475,0.83496,0.76514
18.472,1.5024,0.11947,0.16471,0.84473,0.78516
18.48,1.4897,0.12192,0.1349,0.84473,0.81006
18.488,1.4731,0.12411,0.11486,0.84473,0.82471
18.496,1.4545,0.12631,0.099707,0.84473,0.83496
18.504,1.433,0.12851,0.094819,0.84473,0.83496
18.512,1.4145,0.13071,0.099707,0.84473,0.83496
18.52,1.3969,0.13267,0.10459,0.84473,0.83496
18.528,1.3744,0.13462,0.094819,0.84473,0.83984
18.536,1.35,0.13657,0.089932,0.83984,0.84473
18.544,1.3275,0.13853,0.059629,0.87012,0.87988
18.552,1.3089,0.14048,0.084555,0.87988,0.88477
18.56,1.3011,0.14244,0.30987,0.7998,0.70996
18.568,1.3079,0.14415,0.88514,0.5498,0.20996
18.576,1.3363,0.14586,1.4707,0.16504,-0.27002
18.584,1.39,0.14757,1.1256,0.030273,-0.080078
18.592,1.4721,0.14928,0.44477,0.19531,0.41016
18.6,1.5816,0.15075,0.14467,0.43994,0.68506
18.608,1.694,0.15246,0.064516,0.66992,0.83984
18.616,1.8133,0.15343,0.0043988,0.83496,0.92969
18.624,1.9589,0.15465,-0.020528,0.90479,0.95508
18.632,2.1153,0.15514,-0.025415,0.91992,0.96484
18.64,2.2717,0.15588,-0.015152,0.91992,0.95996
18.648,2.4194,0.15612,-0.020528,0.92969,0.96484
18.656,2.5513,0.15636,0.0043988,0.93506,0.94971
18.664,2.6628,0.15636,0.0043988,0.93506,0.94482
18.672,2.7507,0.15636,0.014663,0.93994,0.93994
18.68,2.8152,0.15612,0.01955,0.93994,0.93506
18.688,2.8563,0.15588,0.024438,0.93994,0.92969
18.696,2.8768,0.15563,0.039589,0.94482,0.9248
18.704,2.8778,0.15539,0.044477,0.95508,0.91992
18.712,2.8641,0.1549,0.044477,0.95508,0.91992
18.72,2.8397,0.15441,0.049853,0.95996,0.91504
18.728,2.8045,0.15392,0.029814,0.96973,0.93506
18.736,2.7595,0.15343,0.029814,0.97998,0.92969
18.744,2.7058,0.15319,0.029814,0.98486,0.93506
18.752,2.6432,0.15319,0.024438,1.0049,0.92969
18.76,2.5718,0.15343,0.014663,1.0098,0.94482
18.768,2.4927,0.15392,0.01955,1.0249,0.94971
18.776,2.4066,0.15441,0.024438,1.0298,0.95508
18.784,2.3128,0.15514,0.014663,1.04,0.95996
18.792,2.2141,0.15588,0.014663,1.0449,0.95996
18.8,2.1124,0.15685,0.024438,1.04,0.94971
18.808,2.0205,0.15783,0.039589,1.0298,0.93994
18.816,1.9355,0.15881,0.07478,1.0098,0.91504
18.824,1.8446,0.15979,0.12463,0.97998,0.875
18.832,1.7546,0.16101,0.18964,0.94482,0.81982
18.84,1.6686,0.16247,0.21994,0.90479,0.78516
18.848,1.5904,0.16418,0.23998,0.875,0.76514
18.856,1.4741,0.16638,0.22483,0.85498,0.76514
18.864,1.3441,0.16858,0.20968,0.8501,0.76514
18.872,1.261,0.17151,0.1999,0.83984,0.76514
18.88,1.2082,0.17444,0.18964,0.83984,0.77002
18.888,1.175,0.17786,0.17986,0.83496,0.7749
18.896,1.1554,0.18153,0.18475,0.83496,0.77979
18.904,1.1486,0.18495,0.18964,0.83496,0.77002
18.912,1.1496,0.18837,0.17986,0.83984,0.77979
18.92,1.1535,0.19179,0.18964,0.83984,0.77002
18.928,1.1603,0.19546,0.19501,0.83496,0.77002
18.936,1.1691,0.19961,0.20479,0.83496,0.76514
18.944,1.1779,0.20401,0.2346,0.83496,0.73486
18.952,1.1857,0.20889,0.26002,0.83008,0.71484
18.96,1.1906,0.21402,0.27468,0.83496,0.7002
18.968,1.1916,0.21891,0.26491,0.83984,0.70508
18.976,1.1887,0.2238,0.25464,0.83984,0.70996
18.984,1.1818,0.22868,0.2346,0.83008,0.72998
18.992,1.1701,0.23381,0.20479,0.82471,0.75488
19,1.1544,0.23992,0.17498,0.83984,0.7749
19.008,1.1408,0.24603,0.15494,0.83984,0.7998
19.016,1.1271,0.25287,0.12952,0.83984,0.81494
19.024,1.1056,0.25971,0.11486,0.83984,0.82471
19.032,1.0802,0.2668,0.099707,0.83984,0.83496
19.04,1.0518,0.27388,0.099707,0.83984,0.83496
19.048,1.0205,0.28072,0.094819,0.83984,0.83496
19.056,0.98631,0.28781,0.094819,0.83984,0.83496
19.064,0.9521,0.29367,0.099707,0.83984,0.84473
19.072,0.91887,0.29954,0.039589,0.875,0.89014
19.08,0.88856,0.30467,0.014663,0.89502,0.91504
19.088,0.86608,0.31004,0.17986,0.79492,0.79492
19.096,0.8563,0.31493,0.60997,0.50977,0.43506
19.104,0.86413,0.31981,1.2004,0.095215,-0.02002
19.112,0.89247,0.32446,0.91544,0.030273,0.14014
19.12,0.94721,0.32934,0.28006,0.24023,0.56494
19.128,1.0323,0.3335,-0.040567,0.50977,0.83496
19.136,1.1476,0.33789,-0.050342,0.71484,0.91992
19.144,1.2884,0.34156,-0.040567,0.85498,0.95508
19.152,1.4497,0.34547,-0.030303,0.91992,0.95508
19.16,1.6217,0.34889,-0.025415,0.93994,0.94482
19.168,1.7967,0.35231,-0.025415,0.93994,0.93994
19.176,1.9648,0.35548,-0.030303,0.94971,0.93994
19.184,2.1183,0.35866,-0.015152,0.94482,0.92969
19.192,2.2522,0.36208,-0.00048876,0.93994,0.9248
19.2,2.3627,0.36575,-0.00048876,0.94971,0.9248
19.208,2.4379,0.36917,-0.00048876,0.94482,0.91992
19.216,2.4878,0.37283,-0.00048876,0.95508,0.9248
19.224,2.523,0.37552,0.01955,0.95508,0.90479
19.232,2.5396,0.37845,0.024438,0.95508,0.90967
19.24,2.5376,0.38065,0.01955,0.95996,0.90479
19.248,2.5171,0.38309,0.0097752,0.96973,0.91504
19.256,2.4809,0.38627,0.01955,0.96973,0.90967
19.264,2.4311,0.38945,0.01955,0.97998,0.90967
19.272,2.3705,0.39335,0.0043988,0.98486,0.91992
19.28,2.2981,0.39751,0.0097752,1,0.91504
19.288,2.2151,0.40166,0.014663,1.0049,0.91504
19.296,2.1232,0.40606,0.01955,1.0146,0.91992
19.304,2.0362,0.41046,0.014663,1.0249,0.9248
19.312,1.9492,0.41485,0.01955,1.0347,0.91992
19.32,1.8475,0.41925,0.0097752,1.0449,0.92969
19.328,1.739,0.42365,0.014663,1.0449,0.9248
19.336,1.6266,0.42805,0.049853,1.0298,0.8999
19.344,1.5152,0.43269,0.094819,1.0146,0.86475
19.352,1.4086,0.43758,0.12463,0.99512,0.83008
19.36,1.3079,0.44271,0.17498,0.96973,0.7998
19.368,1.216,0.44784,0.21457,0.92969,0.76514
19.376,1.1359,0.45321,0.22483,0.8999,0.75488
19.384,1.0674,0.45785,0.21457,0.87988,0.75488
19.392,1.0117,0.4625,0.20968,0.87012,0.75977
19.4,0.96872,0.46641,0.17986,0.86475,0.77002
19.408,0.94233,0.47056,0.1696,0.85498,0.78516
19.416,0.92864,0.47471,0.15982,0.85986,0.79004
19.424,0.92082,0.47887,0.16471,0.86475,0.78516
19.432,0.91984,0.48302,0.15982,0.8501,0.79004
19.44,0.92571,0.48717,0.1696,0.85986,0.77979
19.448,0.93744,0.49133,0.17986,0.86475,0.77002
19.456,0.9521,0.49548,0.18964,0.85498,0.76514
19.464,0.96872,0.49963,0.20479,0.85986,0.75977
19.472,0.98534,0.50403,0.23998,0.86475,0.72998
19.48,1,0.50867,0.27468,0.85986,0.69482
19.488,1.0137,0.51356,0.28983,0.8501,0.68018
19.496,1.0244,0.51869,0.28495,0.85498,0.68018
19.504,1.0342,0.52407,0.28495,0.8501,0.68506
19.512,1.043,0.52968,0.26491,0.84473,0.7002
19.52,1.0479,0.53555,0.24487,0.84473,0.71973
19.528,1.0489,0.54117,0.20968,0.85498,0.75
19.536,1.045,0.54703,0.19501,0.85986,0.77002
19.544,1.0381,0.55192,0.15494,0.85498,0.79492
19.552,1.0283,0.5568,0.13978,0.85498,0.7998
19.56,1.0156,0.5612,0.1349,0.85498,0.80469
19.568,1.001,0.5656,0.11975,0.85986,0.81494
19.576,0.98534,0.57024,0.1349,0.8501,0.81006
19.584,0.96774,0.57513,0.11486,0.85498,0.81494
19.592,0.94819,0.58026,0.11486,0.87012,0.81982
19.6,0.92766,0.58539,0.084555,0.88477,0.8501
19.608,0.91202,0.59028,0.064516,0.91504,0.875
19.616,0.90029,0.59541,0.21994,0.83008,0.76514
19.624,0.88661,0.60005,0.62023,0.5752,0.44482
19.632,0.87977,0.60494,1.2454,0.17529,-0.029785
19.64,0.88661,0.60958,0.99022,0.11523,0.10986
19.648,0.913,0.61422,0.29472,0.33496,0.56494
19.656,0.96579,0.61862,-0.085533,0.58496,0.8501
19.664,1.0489,0.62326,-0.09042,0.73975,0.91992
19.672,1.1613,0.62766,-0.040567,0.87012,0.93994
19.68,1.3001,0.63205,-0.015152,0.91992,0.93506
19.688,1.4585,0.63621,0.0097752,0.93506,0.91504
19.696,1.6295,0.64036,0.0043988,0.93994,0.91992
19.704,1.781,0.64354,0.014663,0.94482,0.90967
19.712,1.9189,0.64671,0.0097752,0.94971,0.91504
19.72,2.0635,0.64891,0.034702,0.93994,0.8999
19.728,2.2004,0.65136,0.039589,0.94482,0.89014
19.736,2.3196,0.6538,0.044477,0.93994,0.89014
19.744,2.4154,0.65649,0.029814,0.94971,0.8999
19.752,2.4868,0.65942,0.024438,0.94482,0.8999
19.76,2.5327,0.66235,0.024438,0.95508,0.89502
19.768,2.5543,0.66504,0.034702,0.95996,0.89014
19.776,2.5533,0.66773,0.044477,0.95996,0.88477
19.784,2.5318,0.67017,0.044477,0.95996,0.88477
19.792,2.4917,0.67261,0.029814,0.96973,0.8999
19.8,2.435,0.6753,0.024438,0.9751,0.90479
19.808,2.3724,0.67823,0.029814,0.98486,0.90479
19.816,2.303,0.68116,0.039589,0.98975,0.8999
19.824,2.217,0.68434,0.01955,1.0049,0.90967
19.832,2.1183,0.68752,0.024438,1.0098,0.90967
19.84,2.0108,0.69094,0.014663,1.0249,0.91992
19.848,1.8974,0.69436,0.0043988,1.0298,0.9248
19.856,1.782,0.69778,0.034702,1.0249,0.90479
19.864,1.6676,0.7012,0.059629,1.02,0.89014
19.872,1.5572,0.70486,0.089932,1.0098,0.86475
19.88,1.4545,0.70853,0.1349,0.97998,0.83008
19.888,1.3617,0.71219,0.19501,0.94971,0.78516
19.896,1.2796,0.71586,0.2346,0.91992,0.75
19.904,1.219,0.71952,0.24976,0.89014,0.73975
19.912,1.173,0.72319,0.22972,0.87988,0.75
19.92,1.131,0.72685,0.20968,0.87012,0.75977
19.928,1.0978,0.73003,0.20479,0.85498,0.76514
19.936,1.0743,0.73345,0.19501,0.84473,0.76514
19.944,1.0616,0.73638,0.1696,0.8501,0.78516
19.952,1.0577,0.73956,0.1696,0.8501,0.7749
19.96,1.0616,0.74371,0.17498,0.84473,0.7749
19.968,1.0704,0.74786,0.16471,0.83984,0.77979
19.976,1.0831,0.75324,0.1696,0.84473,0.78516
19.984,1.0978,0.75861,0.1999,0.84473,0.76514
19.992,1.1134,0.76472,0.20968,0.84473,0.75977
20,1.129,0.77083,0.2346,0.84473,0.73486
20.008,1.1447,0.77742,0.28983,0.83984,0.70508
20.016,1.1584,0.78402,0.30499,0.84473,0.68018
20.024,1.1691,0.78989,0.30987,0.83984,0.66992
20.032,1.176,0.79599,0.30499,0.84473,0.66992
20.04,1.1808,0.80161,0.31965,0.84473,0.6748
20.048,1.1818,0.80723,0.28495,0.83496,0.69482
20.056,1.1808,0.81285,0.26491,0.83496,0.71484
20.064,1.176,0.81847,0.21994,0.84473,0.75
20.072,1.1681,0.82409,0.18964,0.8501,0.77002
20.08,1.1584,0.82995,0.18475,0.84473,0.78516
20.088,1.1476,0.83508,0.15982,0.85498,0.79492
20.096,1.1339,0.84046,0.14467,0.8501,0.80469
20.104,1.1232,0.84535,0.13978,0.8501,0.80469
20.112,1.1124,0.85023,0.13978,0.84473,0.81006
20.12,1.0958,0.85536,0.13978,0.84473,0.80469
20.128,1.0753,0.86074,0.12463,0.8501,0.81982
20.136,1.0528,0.86611,0.099707,0.87988,0.85498
20.144,1.0313,0.87149,0.13978,0.89014,0.83496
20.152,1.0137,0.87637,0.39003,0.75977,0.66016
20.16,1.0068,0.88151,0.87048,0.47998,0.26514
20.168,1.0156,0.8859,1.3407,0.16016,-0.084961
20.176,1.0479,0.89054,0.8001,0.2251,0.22998
20.184,1.1085,0.89372,0.089932,0.44482,0.7002
20.192,1.2004,0.89714,-0.11046,0.63477,0.88477
20.2,1.3216,0.89934,-0.030303,0.75977,0.91504
20.208,1.4467,0.90178,-0.00048876,0.85986,0.91992
20.216,1.5777,0.90423,0.024438,0.89014,0.90479
20.224,1.737,0.90667,0.044477,0.90967,0.89502
20.232,1.9091,0.90936,0.059629,0.90479,0.88477
20.24,2.0811,0.91204,0.069892,0.90967,0.87988
20.248,2.2434,0.91424,0.084555,0.90967,0.87012
20.256,2.39,0.91669,0.094819,0.90967,0.86475
20.264,2.5152,0.91864,0.094819,0.90967,0.85986
20.272,2.6158,0.92084,0.10459,0.90479,0.85986
20.28,2.6891,0.92255,0.11486,0.90479,0.8501
20.288,2.7361,0.92451,0.11975,0.90479,0.84473
20.296,2.7586,0.92622,0.13978,0.90479,0.83496
20.304,2.7586,0.92793,0.14467,0.90479,0.83496
20.312,2.741,0.92939,0.14956,0.90479,0.83496
20.32,2.7087,0.93086,0.15494,0.8999,0.83008
20.328,2.6628,0.93208,0.14467,0.90967,0.83496
20.336,2.6031,0.93355,0.14956,0.91504,0.83008
20.344,2.5298,0.93428,0.15494,0.91504,0.83496
20.352,2.4448,0.93501,0.13978,0.93506,0.84473
20.36,2.349,0.93526,0.1349,0.93994,0.84473
20.368,2.2434,0.9355,0.12463,0.95996,0.85498
20.376,2.131,0.93526,0.10948,0.9751,0.87012
20.384,2.0137,0.93526,0.11975,0.9751,0.85986
20.392,1.8944,0.93452,0.12952,0.96973,0.85986
20.4,1.7771,0.93403,0.14467,0.96484,0.84473
20.408,1.6784,0.93281,0.18475,0.94971,0.81982
20.416,1.5914,0.93159,0.22972,0.92969,0.78516
20.424,1.5034,0.92964,0.30987,0.88477,0.73486
20.432,1.4213,0.92768,0.35484,0.85498,0.68994
20.44,1.35,0.92426,0.37488,0.82471,0.66992
20.448,1.2903,0.92108,0.37488,0.81006,0.66992
20.456,1.2434,0.9162,0.35973,0.7998,0.6748
20.464,1.2092,0.91131,0.34506,0.79492,0.68018
20.472,1.1877,0.90447,0.32991,0.79492,0.69482
20.48,1.175,0.89787,0.31476,0.79492,0.7002
20.488,1.1711,0.88957,0.30987,0.79492,0.7002
20.496,1.175,0.88151,0.3001,0.7998,0.70996
20.504,1.1838,0.87369,0.30987,0.79492,0.7002
20.512,1.1945,0.86587,0.30499,0.79492,0.70996
20.52,1.2072,0.85829,0.30499,0.81006,0.70508
20.528,1.2209,0.85097,0.31965,0.80469,0.69482
20.536,1.2346,0.84388,0.3348,0.80469,0.68018
20.544,1.2473,0.83679,0.36999,0.80469,0.65479
20.552,1.259,0.82995,0.3998,0.7998,0.625
20.56,1.2688,0.82336,0.41007,0.81006,0.62012
20.568,1.2766,0.81725,0.41496,0.80469,0.61475
20.576,1.2815,0.81114,0.39003,0.81006,0.62988
20.584,1.2845,0.80552,0.36999,0.7998,0.6499
20.592,1.2845,0.80015,0.3348,0.81494,0.6748
20.6,1.2845,0.79502,0.28983,0.82471,0.7002
20.608,1.2835,0.79013,0.26002,0.83008,0.72998
20.616,1.2796,0.78549,0.2346,0.82471,0.73975
20.624,1.2717,0.78085,0.21994,0.82471,0.75488
20.632,1.262,0.77571,0.20968,0.82471,0.75977
20.64,1.2512,0.77083,0.20479,0.82471,0.76514
20.648,1.2395,0.7657,0.19501,0.83008,0.77002
20.656,1.2278,0.76057,0.19501,0.83008,0.77002
20.664,1.216,0.75568,0.15494,0.84473,0.79492
20.672,1.2082,0.75104,0.13978,0.875,0.82471
20.68,1.2082,0.7464,0.21457,0.87988,0.77979
20.688,1.2219,0.74175,0.54985,0.72998,0.54004
20.696,1.2551,0.73516,1.1755,0.43994,0.040039
20.704,1.3001,0.72881,1.501,0.14502,-0.21973
20.712,1.3636,0.72074,0.90518,0.2251,0.14014
20.72,1.4594,0.71268,0.22483,0.4248,0.61475
20.728,1.5836,0.70388,0.024438,0.62012,0.81006
20.736,1.7331,0.69533,0.014663,0.77002,0.88477
20.744,1.9003,0.68581,-0.010264,0.875,0.9248
20.752,2.0772,0.67652,-0.010264,0.91504,0.92969
20.76,2.2551,0.66528,-0.010264,0.9248,0.92969
20.768,2.4252,0.65404,-0.00048876,0.9248,0.9248
20.776,2.5806,0.64109,-0.00048876,0.92969,0.9248
20.784,2.7155,0.62815,-0.0053763,0.93506,0.9248
20.792,2.827,0.61349,-0.010264,0.93994,0.92969
20.8,2.9032,0.59907,-0.010264,0.93994,0.92969
20.808,2.9521,0.58344,-0.020528,0.93994,0.9248
20.816,2.9892,0.5678,-0.00048876,0.93994,0.91992
20.824,3.0108,0.55314,-0.025415,0.94482,0.9248
20.832,3.0147,0.53848,-0.0053763,0.93994,0.91992
20.84,3.002,0.52455,-0.015152,0.94971,0.9248
20.848,2.9746,0.51087,-0.025415,0.95508,0.92969
20.856,2.9345,0.4967,-0.010264,0.95996,0.92969
20.864,2.8817,0.48278,-0.015152,0.95996,0.9248
20.872,2.8182,0.4686,-0.035191,0.96973,0.93506
20.88,2.7449,0.45468,-0.045455,0.97998,0.94971
20.888,2.6618,0.44173,-0.060606,0.99512,0.95508
20.896,2.5709,0.42903,-0.05523,1.0049,0.96484
20.904,2.4888,0.4173,-0.05523,1.0098,0.95996
20.912,2.4125,0.40557,-0.065494,1.02,0.9751
20.92,2.3236,0.39311,-0.075269,1.0298,0.97998
20.928,2.2278,0.38089,-0.080645,1.0298,0.98486
20.936,2.13,0.36795,-0.030303,1.0098,0.95508
20.944,2.0332,0.35524,0.01955,0.98975,0.9248
20.952,1.9413,0.34351,0.059629,0.96484,0.88477
20.96,1.8563,0.33179,0.11975,0.93506,0.83984
20.968,1.781,0.32128,0.15982,0.8999,0.81006
20.976,1.7155,0.31077,0.18964,0.87012,0.77979
20.984,1.6618,0.30149,0.17986,0.85498,0.7749
20.992,1.6188,0.29245,0.18475,0.84473,0.7749
21,1.5885,0.28414,0.16471,0.83984,0.7749
21.008,1.5679,0.27608,0.16471,0.84473,0.77979
21.016,1.5533,0.26777,0.1696,0.83008,0.77979
21.024,1.5455,0.25947,0.14956,0.83496,0.79004
21.032,1.5415,0.25116,0.16471,0.83008,0.78516
21.04,1.5415,0.24285,0.15982,0.83496,0.77979
21.048,1.5435,0.23601,0.16471,0.83496,0.7749
21.056,1.5474,0.22942,0.17498,0.83008,0.7749
21.064,1.5513,0.2238,0.1696,0.83496,0.77979
21.072,1.5543,0.21818,0.21457,0.83984,0.74512
21.08,1.5562,0.21305,0.24976,0.83984,0.71484
21.088,1.5552,0.20816,0.26002,0.84473,0.70508
21.096,1.5513,0.20327,0.26002,0.84473,0.70508
21.104,1.5474,0.19863,0.2346,0.83984,0.71973
21.112,1.5425,0.19423,0.22972,0.83496,0.7251
21.12,1.5347,0.18984,0.19501,0.83984,0.75488
21.128,1.5239,0.18568,0.17986,0.84473,0.77002
21.136,1.5103,0.18177,0.14956,0.84473,0.7998
21.144,1.4946,0.17884,0.11975,0.84473,0.81494
21.152,1.477,0.17615,0.10459,0.84473,0.83008
21.16,1.4467,0.1742,0.099707,0.84473,0.83008
21.168,1.4262,0.17225,0.11486,0.84473,0.82471
21.176,1.4037,0.17005,0.10459,0.84473,0.83008
21.184,1.3617,0.16809,0.11486,0.84473,0.82471
21.192,1.348,0.16565,0.069892,0.86475,0.85498
21.2,1.3412,0.16345,0.064516,0.88477,0.87988
21.208,1.3695,0.16198,0.11486,0.89014,0.8501
