Time [s], RESP, PLETH, I, MCL, II
0,0.84946,0.45943,0.75,0.35882,0.10392
0.008,0.82991,0.45259,0.75977,0.35882,0.10392
0.016,0.81036,0.44673,0.75977,0.35882,0.10392
0.024,0.79081,0.44086,0.75977,0.3549,0.10392
0.032,0.77028,0.43597,0.75391,0.35882,0.11373
0.04,0.74976,0.43109,0.75977,0.3549,0.11373
0.048,0.72727,0.44086,0.75977,0.3549,0.11961
0.056,0.70577,0.45748,0.77539,0.3451,0.12353
0.064,0.68328,0.46334,0.7793,0.3451,0.12941
0.072,0.6608,0.46432,0.78516,0.3451,0.11961
0.08,0.63636,0.46334,0.78516,0.33922,0.13333
0.088,0.6129,0.45943,0.78906,0.33922,0.14902
0.096,0.58847,0.45552,0.79492,0.33922,0.14902
0.104,0.56305,0.45161,0.80469,0.33529,0.14902
0.112,0.53861,0.4477,0.81055,0.33529,0.14902
0.12,0.51417,0.44282,0.80469,0.33529,0.14902
0.128,0.48876,0.43891,0.81445,0.32941,0.14902
0.136,0.46432,0.43402,0.82422,0.32941,0.14902
0.144,0.44086,0.42913,0.82422,0.33529,0.1549
0.152,0.41838,0.42522,0.83008,0.32941,0.14902
0.16,0.39589,0.41935,0.82422,0.32941,0.14902
0.168,0.37439,0.41447,0.82031,0.32941,0.14314
0.176,0.35191,0.41153,0.81445,0.31961,0.13922
0.184,0.32942,0.40958,0.81055,0.31961,0.14902
0.192,0.30792,0.40762,0.81445,0.31373,0.14314
0.2,0.28543,0.40567,0.81055,0.31373,0.13333
0.208,0.26393,0.40371,0.81055,0.31373,0.13333
0.216,0.24242,0.40176,0.81055,0.31373,0.12941
0.224,0.22092,0.3998,0.81055,0.31373,0.12353
0.232,0.19941,0.39687,0.81055,0.3098,0.12941
0.24,0.17889,0.39296,0.81055,0.30392,0.12353
0.248,0.15738,0.38905,0.81055,0.3098,0.11961
0.256,0.13685,0.38514,0.79883,0.31373,0.12353
0.264,0.11632,0.38123,0.79883,0.3098,0.12941
0.272,0.095797,0.3783,0.78906,0.3098,0.12941
0.28,0.076246,0.37537,0.78516,0.31373,0.11961
0.288,0.056696,0.37146,0.7793,0.31373,0.10392
0.296,0.038123,0.36755,0.78516,0.31373,0.11373
0.304,0.018573,0.36364,0.76953,0.31373,0.11373
0.312,0,0.35973,0.76562,0.31373,0.12353
0.32,0,0.35679,0.76953,0.31373,0.12941
0.328,0,0.35484,0.75977,0.31961,0.12353
0.336,0,0.35288,0.77539,0.31373,0.11961
0.344,0,0.35191,0.76562,0.31961,0.12941
0.352,0,0.35191,0.76953,0.31961,0.13922
0.36,0,0.35191,0.77539,0.31961,0.12941
0.368,0,0.35191,0.76562,0.32353,0.12353
0.376,0,0.35386,0.76562,0.32353,0.11961
0.384,0,0.35679,0.77539,0.32353,0.12941
0.392,0,0.36168,0.77539,0.31961,0.14314
0.4,0,0.3695,0.76953,0.32353,0.12941
0.408,0,0.38025,0.78516,0.31373,0.12941
0.416,0,0.39296,0.78516,0.31373,0.13333
0.424,0,0.40762,0.78516,0.31373,0.13333
0.432,0,0.42522,0.78516,0.31373,0.14314
0.44,0,0.44477,0.7793,0.31373,0.15882
0.448,0,0.4653,0.78516,0.31373,0.16863
0.456,0,0.48778,0.78516,0.31373,0.17451
0.464,0,0.51026,0.78516,0.31373,0.17451
0.472,0,0.52884,0.78906,0.31373,0.16471
0.48,0,0.54545,0.78906,0.3098,0.14902
0.488,0,0.56305,0.79492,0.3098,0.14902
0.496,0,0.57967,0.78906,0.3098,0.13922
0.504,0,0.59531,0.81055,0.3,0.12941
0.512,0,0.60899,0.82031,0.29412,0.12941
0.52,0,0.6217,0.83008,0.3,0.13922
0.528,0,0.63539,0.82422,0.30392,0.13922
0.536,0,0.64712,0.79492,0.31373,0.12941
0.544,0,0.65787,0.7793,0.31373,0.12941
0.552,0,0.66569,0.76953,0.31373,0.1098
0.56,0,0.67058,0.76562,0.31961,0.098039
0.568,0,0.67351,0.76953,0.31961,0.10392
0.576,0,0.67546,0.76562,0.32353,0.098039
0.584,0,0.67546,0.75977,0.32941,0.10392
0.592,0,0.67351,0.76562,0.32353,0.098039
0.6,0,0.67155,0.76562,0.32353,0.094118
0.608,0,0.66862,0.77539,0.32353,0.098039
0.616,0,0.66471,0.76953,0.32353,0.10392
0.624,0,0.65885,0.75,0.33922,0.12353
0.632,0,0.65103,0.68945,0.37059,0.12941
0.64,0,0.64321,0.68555,0.38039,0.11373
0.648,0,0.63245,1.1699,0.23333,0.32941
0.656,0,0.62072,1.5,0.013725,0.44902
0.664,0,0.61095,1.4141,-0.05098,0.1098
0.672,0,0.60215,0.78516,0.039216,-0.10196
0.68,0,0.59433,0.71484,0.18824,-0.015686
0.688,0,0.58749,0.75977,0.27843,0.058824
0.696,0,0.57869,0.74414,0.33529,0.084314
0.704,0,0.57185,0.73438,0.33922,0.094118
0.712,0,0.56305,0.73438,0.34902,0.1098
0.72,0,0.55425,0.73438,0.3549,0.10392
0.728,0,0.54448,0.73438,0.35882,0.11961
0.736,0,0.53568,0.73438,0.35882,0.10392
0.744,0,0.52786,0.74023,0.3549,0.11961
0.752,0,0.51906,0.75,0.3549,0.12941
0.76,0,0.51124,0.74414,0.34902,0.11373
0.768,0,0.50342,0.74414,0.3549,0.11373
0.776,0,0.49756,0.74414,0.34902,0.1098
0.784,0,0.49267,0.75,0.3549,0.1098
0.792,0,0.4868,0.75,0.3549,0.1098
0.8,0,0.48094,0.75391,0.3549,0.1098
0.808,0,0.47507,0.75391,0.34902,0.11373
0.816,0,0.46823,0.75977,0.34902,0.1098
0.824,0,0.46334,0.76562,0.34902,0.11961
0.832,0,0.45846,0.76562,0.34902,0.1098
0.84,0,0.45357,0.77539,0.34902,0.10392
0.848,0,0.44868,0.7793,0.34902,0.11373
0.856,0,0.44477,0.78516,0.34902,0.11373
0.864,0,0.43988,0.78516,0.34902,0.12353
0.872,0,0.43597,0.79883,0.3451,0.13333
0.88,0,0.43304,0.79883,0.3451,0.12941
0.888,0,0.42913,0.81055,0.33922,0.13333
0.896,0,0.42424,0.81055,0.33922,0.12941
0.904,0,0.41838,0.81445,0.33922,0.13333
0.912,0,0.41349,0.81445,0.3451,0.13922
0.92,0,0.4086,0.81445,0.33922,0.13333
0.928,0,0.40371,0.81055,0.33922,0.12353
0.936,0,0.3998,0.81055,0.33922,0.11961
0.944,0,0.39785,0.81055,0.33922,0.12941
0.952,0,0.39492,0.80469,0.33922,0.11961
0.96,0,0.39394,0.79492,0.33529,0.10392
0.968,0,0.39198,0.79492,0.33529,0.10392
0.976,0,0.39003,0.78906,0.32941,0.10392
0.984,0,0.38905,0.78906,0.31961,0.10392
0.992,0,0.38807,0.78516,0.31373,0.1098
1,0,0.38612,0.7793,0.31373,0.094118
1.008,0,0.38514,0.78516,0.31373,0.10392
1.016,0,0.38416,0.79883,0.31373,0.084314
1.024,0,0.38319,0.79492,0.3098,0.078431
1.032,0,0.38221,0.79883,0.29412,0.094118
1.04,0,0.38123,0.83398,0.2902,0.10392
1.048,0,0.38025,0.85547,0.3,0.1098
1.056,0,0.37928,0.83008,0.3098,0.11961
1.064,0,0.3783,0.79492,0.31373,0.12353
1.072,0,0.3783,0.77539,0.31373,0.10392
1.08,0,0.3783,0.75977,0.31373,0.098039
1.088,0,0.37928,0.75977,0.31961,0.10392
1.096,0,0.37928,0.76562,0.31373,0.12941
1.104,0,0.37928,0.76562,0.31373,0.13333
1.112,0,0.38025,0.75977,0.31373,0.12941
1.12,0,0.38319,0.75977,0.31373,0.12941
1.128,0,0.3871,0.75977,0.31373,0.12353
1.136,0,0.39198,0.75977,0.31961,0.12353
1.144,0,0.39883,0.75977,0.31961,0.12941
1.152,0,0.40665,0.75977,0.31961,0.12941
1.16,0,0.41838,0.75977,0.32353,0.12941
1.168,0,0.43402,0.75,0.32941,0.12941
1.176,0,0.44868,0.70898,0.3549,0.12353
1.184,0,0.46432,0.875,0.31961,0.11373
1.192,0,0.48192,1.3047,0.12941,0.3451
1.2,0,0.50244,1.5,-0.037255,0.38431
1.208,0,0.52395,1.0547,-0.041176,-0.072549
1.216,0,0.5435,0.69922,0.10392,-0.11765
1.224,0,0.56403,0.74023,0.22941,0.043137
1.232,0,0.58456,0.75391,0.31373,0.068627
1.24,0,0.60313,0.73438,0.33922,0.078431
1.248,0,0.6217,0.72461,0.3451,0.088235
1.256,0,0.63832,0.7207,0.3549,0.094118
1.264,0,0.65396,0.72461,0.35882,0.088235
1.272,0,0.66569,0.7207,0.35882,0.088235
1.28,0,0.67351,0.7207,0.35882,0.10392
1.288,0,0.68231,0.72461,0.35882,0.094118
1.296,0,0.68915,0.7207,0.35882,0.098039
1.304,0,0.69501,0.73047,0.35882,0.098039
1.312,0,0.6999,0.72461,0.37059,0.078431
1.32,0,0.70283,0.73438,0.35882,0.078431
1.328,0,0.70479,0.73047,0.3549,0.084314
1.336,0,0.70479,0.73438,0.3549,0.094118
1.344,0.01173,0.70381,0.73438,0.3549,0.10392
1.352,0.02346,0.70186,0.74023,0.34902,0.10392
1.36,0.035191,0.6999,0.73438,0.34902,0.1098
1.368,0.046921,0.69795,0.74414,0.3549,0.1098
1.376,0.059629,0.69404,0.75,0.3549,0.1098
1.384,0.072336,0.68915,0.75391,0.34902,0.1098
1.392,0.084066,0.68231,0.75977,0.3451,0.12353
1.4,0.095797,0.67449,0.76562,0.3451,0.11373
1.408,0.10655,0.66667,0.77539,0.3451,0.12353
1.416,0.1173,0.65787,0.7793,0.3451,0.12353
1.424,0.12414,0.64907,0.78516,0.34902,0.12941
1.432,0.13196,0.64027,0.78516,0.3451,0.12353
1.44,0.13685,0.63148,0.78516,0.3451,0.12353
1.448,0.14174,0.62268,0.78906,0.33922,0.12941
1.456,0.14272,0.61681,0.79492,0.33922,0.12353
1.464,0.1437,0.60997,0.78906,0.32941,0.11373
1.472,0.14272,0.60411,0.79883,0.32941,0.11961
1.48,0.14174,0.59922,0.79492,0.33529,0.11373
1.488,0.13978,0.59335,0.79492,0.32353,0.1098
1.496,0.13783,0.58749,0.79883,0.32941,0.10392
1.504,0.13587,0.58162,0.79492,0.32353,0.1098
1.512,0.1349,0.57674,0.78906,0.31961,0.1098
1.52,0.13392,0.57087,0.78906,0.31961,0.10392
1.528,0.13294,0.565,0.78516,0.31373,0.1098
1.536,0.13392,0.55914,0.79492,0.31373,0.11373
1.544,0.1349,0.55327,0.78906,0.31373,0.10392
1.552,0.13881,0.54643,0.7793,0.31373,0.11373
1.56,0.14174,0.53959,0.76953,0.3098,0.11373
1.568,0.14761,0.53079,0.76953,0.31373,0.11373
1.576,0.15347,0.52297,0.76562,0.31373,0.11961
1.584,0.16129,0.51711,0.75977,0.31961,0.10392
1.592,0.16911,0.51026,0.76562,0.31373,0.098039
1.6,0.17693,0.50244,0.75977,0.31373,0.088235
1.608,0.18573,0.49365,0.75977,0.31373,0.094118
1.616,0.1955,0.48583,0.75391,0.31373,0.084314
1.624,0.20626,0.47703,0.75977,0.31961,0.088235
1.632,0.21701,0.46921,0.75391,0.32353,0.094118
1.64,0.22874,0.46139,0.75,0.31961,0.084314
1.648,0.2434,0.45357,0.75391,0.31961,0.088235
1.656,0.25806,0.44575,0.75,0.31961,0.088235
1.664,0.27566,0.43891,0.75,0.31373,0.078431
1.672,0.29423,0.43304,0.75977,0.31373,0.098039
1.68,0.31672,0.42815,0.75391,0.31961,0.10392
1.688,0.34018,0.42326,0.75391,0.31373,0.094118
1.696,0.36852,0.41935,0.75391,0.31961,0.098039
1.704,0.39589,0.4174,0.74414,0.31373,0.084314
1.712,0.42913,0.41935,0.75391,0.32353,0.088235
1.72,0.46237,0.42522,0.75,0.32353,0.084314
1.728,0.49951,0.435,0.74414,0.31373,0.088235
1.736,0.53763,0.44673,0.75,0.31961,0.078431
1.744,0.57967,0.45943,0.74414,0.31961,0.084314
1.752,0.62072,0.47507,0.75391,0.31373,0.088235
1.76,0.66569,0.49071,0.74414,0.31373,0.078431
1.768,0.71163,0.50538,0.74414,0.31373,0.07451
1.776,0.75953,0.51906,0.75391,0.3098,0.078431
1.784,0.80743,0.53177,0.74414,0.31373,0.084314
1.792,0.8563,0.54448,0.75,0.31373,0.088235
1.8,0.90518,0.55621,0.75391,0.31373,0.07451
1.808,0.94428,0.56794,0.75,0.31373,0.062745
1.816,0.98436,0.57869,0.75391,0.31373,0.078431
1.824,0.99218,0.58749,0.74414,0.31373,0.062745
1.832,1,0.59433,0.75391,0.31373,0.078431
1.84,1,0.59922,0.75,0.31373,0.088235
1.848,1,0.60215,0.75977,0.31373,0.078431
1.856,1,0.60411,0.75,0.31373,0.068627
1.864,1,0.60508,0.75977,0.31373,0.084314
1.872,1,0.60411,0.75391,0.31373,0.078431
1.88,1,0.60117,0.75977,0.31373,0.07451
1.888,1,0.59824,0.75977,0.31961,0.078431
1.896,1,0.59531,0.75977,0.31373,0.094118
1.904,1,0.59042,0.76562,0.3098,0.10392
1.912,1,0.58358,0.75977,0.3098,0.11373
1.92,1,0.57478,0.76562,0.3098,0.10392
1.928,1,0.565,0.77539,0.31373,0.11961
1.936,1,0.55425,0.78516,0.3098,0.10392
1.944,1,0.54448,0.78516,0.30392,0.088235
1.952,1,0.53568,0.7793,0.30392,0.084314
1.96,1,0.52688,0.81055,0.29412,0.098039
1.968,1,0.51906,0.81445,0.29412,0.078431
1.976,1,0.51222,0.82031,0.30392,0.088235
1.984,1,0.5044,0.78516,0.3098,0.078431
1.992,1,0.4956,0.76562,0.31373,0.07451
2,1,0.48778,0.75977,0.31961,0.078431
2.008,1,0.47898,0.75977,0.32353,0.052941
2.016,1,0.47116,0.74414,0.31961,0.04902
2.024,1,0.46432,0.74414,0.33529,0.062745
2.032,1,0.45748,0.75,0.32941,0.07451
2.04,1,0.45064,0.75,0.32353,0.043137
2.048,1,0.44477,0.75,0.32941,0.052941
2.056,1,0.43793,0.75391,0.31961,0.062745
2.064,1,0.43304,0.75,0.32353,0.052941
2.072,1,0.42913,0.70898,0.3549,0.052941
2.08,1,0.42522,0.66406,0.38431,0.039216
2.088,1,0.41935,0.88477,0.33922,0.17451
2.096,1,0.40665,1.3242,0.11373,0.41569
2.104,1,0.38905,1.5,-0.056863,0.46078
2.112,1,0.37732,0.96484,-0.0019608,-0.0058823
2.12,1,0.36852,0.625,0.14902,-0.10588
2.128,1,0.36168,0.69922,0.26863,-0.021569
2.136,1,0.35582,0.73438,0.32941,0.029412
2.144,1,0.35093,0.73047,0.33922,0.052941
2.152,1,0.34702,0.7207,0.34902,0.052941
2.16,1,0.34213,0.7207,0.35882,0.052941
2.168,1,0.33724,0.72461,0.3549,0.062745
2.176,1,0.33333,0.72461,0.35882,0.068627
2.184,1,0.32942,0.73047,0.35882,0.07451
2.192,1,0.32551,0.73047,0.35882,0.052941
2.2,1,0.32258,0.73438,0.35882,0.052941
2.208,1,0.31965,0.73438,0.35882,0.052941
2.216,1,0.31867,0.73438,0.35882,0.052941
2.224,1,0.31672,0.73438,0.3549,0.052941
2.232,1,0.31378,0.73438,0.3549,0.068627
2.24,1,0.31183,0.74023,0.35882,0.088235
2.248,1,0.30987,0.75,0.3549,0.078431
2.256,1,0.3089,0.75977,0.34902,0.088235
2.264,1,0.30792,0.75977,0.3451,0.078431
2.272,1,0.30792,0.75977,0.33922,0.07451
2.28,1,0.3089,0.75977,0.3451,0.084314
2.288,1,0.3089,0.76953,0.33922,0.088235
2.296,1,0.30694,0.75977,0.33922,0.078431
2.304,1,0.30596,0.78516,0.33529,0.11961
2.312,1,0.30401,0.78516,0.33529,0.14314
2.32,1,0.30205,0.78906,0.33922,0.13333
2.328,1,0.3001,0.79492,0.33529,0.11961
2.336,1,0.29814,0.80469,0.31961,0.12353
2.344,1,0.29619,0.79492,0.32353,0.12941
2.352,1,0.29521,0.79883,0.32941,0.13333
2.36,1,0.29423,0.80469,0.31373,0.12941
2.368,1,0.29423,0.79883,0.31961,0.12941
2.376,1,0.29423,0.81055,0.31373,0.12353
2.384,1,0.29423,0.79883,0.31961,0.1098
2.392,1,0.29423,0.80469,0.31373,0.10392
2.4,1,0.29423,0.79492,0.31961,0.1098
2.408,1,0.29423,0.79883,0.3098,0.10392
2.416,1,0.29326,0.79492,0.31373,0.084314
2.424,1,0.2913,0.79883,0.30392,0.078431
2.432,1,0.28935,0.79492,0.3098,0.078431
2.44,1,0.28739,0.80469,0.3098,0.084314
2.448,1,0.28543,0.79492,0.31373,0.088235
2.456,1,0.28348,0.80469,0.30392,0.10392
2.464,1,0.2825,0.80469,0.30392,0.07451
2.472,1,0.28348,0.79883,0.3098,0.068627
2.48,1,0.28543,0.79492,0.31373,0.088235
2.488,1,0.28739,0.79883,0.31373,0.084314
2.496,1,0.28837,0.78516,0.31373,0.084314
2.504,1,0.28935,0.78516,0.32353,0.078431
2.512,1,0.28837,0.76953,0.32941,0.078431
2.52,1,0.28641,0.7793,0.31961,0.084314
2.528,1,0.28446,0.76953,0.32941,0.068627
2.536,1,0.2825,0.76953,0.32353,0.078431
2.544,1,0.28055,0.75977,0.33529,0.078431
2.552,1,0.27859,0.76562,0.32941,0.094118
2.56,1,0.27761,0.75977,0.32353,0.098039
2.568,1,0.27859,0.77539,0.32941,0.088235
2.576,1,0.28152,0.76953,0.33529,0.10392
2.584,1,0.28348,0.75977,0.33922,0.078431
2.592,1,0.2913,0.76562,0.32353,0.088235
2.6,1,0.3001,0.77539,0.33922,0.12353
2.608,1,0.3089,0.77539,0.33529,0.098039
2.616,1,0.32258,0.76562,0.32941,0.088235
2.624,1,0.34018,0.77539,0.32353,0.10392
2.632,1,0.3607,0.76562,0.33529,0.1098
2.64,1,0.38319,0.76953,0.33529,0.12353
2.648,1,0.40762,0.76562,0.33922,0.1098
2.656,1,0.43206,0.75977,0.32941,0.11961
2.664,1,0.45552,0.76953,0.32941,0.12353
2.672,1,0.47507,0.77539,0.32941,0.12941
2.68,1,0.49462,0.76562,0.32353,0.13922
2.688,1,0.51417,0.76953,0.32941,0.13333
2.696,1,0.53372,0.7793,0.32941,0.13922
2.704,1,0.55327,0.78516,0.32941,0.11961
2.712,1,0.57087,0.7793,0.31961,0.1098
2.72,1,0.58847,0.78516,0.31961,0.12353
2.728,1,0.60411,0.79492,0.31373,0.10392
2.736,1,0.61877,0.80469,0.31373,0.088235
2.744,1,0.6305,0.81055,0.31373,0.088235
2.752,1,0.63832,0.79492,0.31961,0.098039
2.76,1,0.64418,0.76562,0.32353,0.078431
2.768,1,0.64712,0.75977,0.32941,0.068627
2.776,1,0.64907,0.75977,0.32941,0.058824
2.784,1,0.65005,0.75391,0.33922,0.052941
2.792,1,0.65103,0.75,0.33922,0.052941
2.8,1,0.65103,0.75391,0.33922,0.062745
2.808,1,0.64907,0.75391,0.3451,0.07451
2.816,1,0.64321,0.75391,0.33922,0.07451
2.824,1,0.63636,0.75391,0.3451,0.078431
2.832,1,0.63148,0.75,0.3451,0.084314
2.84,1,0.62463,0.75,0.33922,0.088235
2.848,1,0.61584,0.72461,0.35882,0.084314
2.856,1,0.60704,0.66992,0.39412,0.07451
2.864,1,0.59824,0.79492,0.4,0.14314
2.872,1,0.58944,1.2188,0.18824,0.39412
2.88,1,0.58162,1.4941,-0.0058823,0.49412
2.888,1,0.5738,1.1191,-0.037255,0.11961
2.896,1,0.56598,0.64453,0.14902,-0.076471
2.904,1,0.55816,0.68555,0.26863,-0.0019608
2.912,1,0.54936,0.73438,0.33922,0.062745
2.92,1,0.54057,0.74023,0.35882,0.078431
2.928,1,0.53177,0.73438,0.36471,0.094118
2.936,1,0.52395,0.73438,0.36471,0.098039
2.944,1,0.51613,0.73438,0.35882,0.094118
2.952,1,0.50635,0.73438,0.36471,0.094118
2.96,1,0.49756,0.74023,0.35882,0.10392
2.968,1,0.49267,0.74414,0.36471,0.10392
2.976,1,0.4868,0.74023,0.35882,0.10392
2.984,1,0.47996,0.75,0.35882,0.10392
2.992,1,0.47312,0.75,0.35882,0.10392
3,1,0.46628,0.75,0.35882,0.10392
3.008,1,0.45943,0.75391,0.3549,0.10392
3.016,1,0.45357,0.75977,0.3451,0.1098
3.024,1,0.44868,0.75977,0.33922,0.11373
3.032,1,0.44379,0.76562,0.33922,0.10392
3.04,1,0.44086,0.77539,0.33922,0.1098
3.048,1,0.43695,0.77539,0.33922,0.11373
3.056,1,0.43304,0.7793,0.33922,0.12353
3.064,1,0.42913,0.78516,0.33529,0.12941
3.072,1,0.42424,0.78906,0.32941,0.12941
3.08,1,0.42033,0.79492,0.32353,0.13333
3.088,1,0.41544,0.79883,0.31961,0.13922
3.096,1,0.41056,0.80469,0.31373,0.14314
3.104,1,0.40665,0.81055,0.31373,0.14902
3.112,1,0.40274,0.81055,0.31373,0.14314
3.12,0.98436,0.39883,0.81445,0.31373,0.14902
3.128,0.96774,0.39492,0.82031,0.3098,0.1549
3.136,0.95015,0.39198,0.82422,0.3098,0.14902
3.144,0.93255,0.38807,0.82031,0.3098,0.14902
3.152,0.91593,0.38514,0.82422,0.30392,0.1549
3.16,0.90029,0.38221,0.82031,0.3,0.13333
3.168,0.88465,0.38025,0.81055,0.30392,0.11961
3.176,0.86999,0.3783,0.81055,0.3098,0.11961
3.184,0.8563,0.37537,0.80469,0.30392,0.12353
3.192,0.84164,0.37243,0.79492,0.3098,0.11373
3.2,0.82796,0.3695,0.79492,0.30392,0.10392
3.208,0.81427,0.36852,0.79492,0.3098,0.10392
3.216,0.79765,0.36755,0.78906,0.30392,0.10392
3.224,0.78201,0.36755,0.78906,0.3098,0.094118
3.232,0.76344,0.36755,0.78906,0.3098,0.084314
3.24,0.74487,0.36755,0.78516,0.31373,0.088235
3.248,0.72532,0.36755,0.78516,0.3098,0.094118
3.256,0.70577,0.36657,0.78516,0.3098,0.098039
3.264,0.68524,0.36461,0.7793,0.31373,0.098039
3.272,0.66569,0.36461,0.77539,0.31373,0.10392
3.28,0.64516,0.36461,0.76562,0.31373,0.10392
3.288,0.62463,0.36266,0.76562,0.31373,0.088235
3.296,0.60411,0.3607,0.76562,0.31373,0.084314
3.304,0.58358,0.35875,0.76562,0.31373,0.088235
3.312,0.565,0.35582,0.75977,0.31373,0.098039
3.32,0.54545,0.35191,0.75977,0.31373,0.1098
3.328,0.52688,0.348,0.75977,0.32353,0.11373
3.336,0.50929,0.34506,0.76562,0.31373,0.1098
3.344,0.49169,0.34409,0.75977,0.31961,0.1098
3.352,0.47507,0.34311,0.76562,0.32353,0.11373
3.36,0.45943,0.34506,0.76953,0.31961,0.10392
3.368,0.44282,0.34702,0.76562,0.33529,0.11961
3.376,0.42717,0.35288,0.75977,0.32353,0.12941
3.384,0.41153,0.36266,0.77539,0.31961,0.12353
3.392,0.39589,0.37146,0.7793,0.32353,0.13333
3.4,0.37928,0.38416,0.77539,0.31961,0.12941
3.408,0.36168,0.40469,0.77539,0.32353,0.13333
3.416,0.34311,0.42522,0.76953,0.32941,0.12353
3.424,0.32258,0.44086,0.76562,0.33922,0.12941
3.432,0.30205,0.45846,0.77539,0.32353,0.12353
3.44,0.27957,0.48192,0.7793,0.31373,0.13333
3.448,0.25709,0.50244,0.7793,0.31373,0.14902
3.456,0.23265,0.52004,0.78516,0.31373,0.16863
3.464,0.20821,0.5347,0.78516,0.31373,0.17451
3.472,0.18182,0.54643,0.78516,0.31373,0.17451
3.48,0.15445,0.55914,0.78906,0.31373,0.15882
3.488,0.12512,0.57185,0.78516,0.31373,0.12941
3.496,0.096774,0.58456,0.79492,0.31373,0.12353
3.504,0.066471,0.59629,0.81055,0.30392,0.12941
3.512,0.036168,0.60606,0.81055,0.31373,0.13333
3.52,0.017595,0.61486,0.83008,0.30392,0.12941
3.528,0,0.62268,0.83008,0.29412,0.13333
3.536,0,0.62952,0.80469,0.30392,0.13922
3.544,0,0.63441,0.78516,0.31373,0.12941
3.552,0,0.63832,0.77539,0.31373,0.12353
3.56,0,0.64027,0.76953,0.31961,0.11373
3.568,0,0.6393,0.76953,0.31373,0.1098
3.576,0,0.63832,0.75977,0.31373,0.11373
3.584,0,0.63539,0.76562,0.31373,0.10392
3.592,0,0.63148,0.76562,0.3098,0.1098
3.6,0,0.62659,0.77539,0.31373,0.094118
3.608,0,0.61975,0.76953,0.30392,0.10392
3.616,0,0.61193,0.76953,0.31961,0.11373
3.624,0,0.60313,0.76562,0.33922,0.12353
3.632,0,0.59433,0.71484,0.36471,0.11373
3.64,0,0.58553,0.68945,0.38431,0.12941
3.648,0,0.57674,1.0098,0.3098,0.29412
3.656,0,0.57087,1.4492,0.078431,0.50588
3.664,0,0.565,1.5,-0.037255,0.26471
3.672,0,0.55718,0.91406,0.017647,-0.086275
3.68,0,0.54839,0.73047,0.1549,-0.10588
3.688,0,0.53959,0.75391,0.2549,0.043137
3.696,0,0.52884,0.75,0.3,0.084314
3.704,0,0.51808,0.73438,0.33922,0.10392
3.712,0,0.50733,0.73438,0.35882,0.1098
3.72,0,0.49853,0.73047,0.35882,0.10392
3.728,0,0.49071,0.73047,0.37451,0.11373
3.736,0,0.48289,0.73438,0.38039,0.10392
3.744,0,0.4741,0.74023,0.38039,0.098039
3.752,0,0.46628,0.73438,0.37059,0.094118
3.76,0,0.45943,0.74023,0.36471,0.11961
3.768,0,0.45357,0.74414,0.36471,0.11373
3.776,0,0.4477,0.74023,0.36471,0.10392
3.784,0,0.44184,0.74414,0.35882,0.10392
3.792,0,0.43793,0.75,0.33922,0.12353
3.8,0,0.43402,0.74414,0.33922,0.11373
3.808,0,0.42913,0.75391,0.34902,0.11961
3.816,0,0.42424,0.75,0.35882,0.12353
3.824,0,0.42033,0.76953,0.3549,0.12941
3.832,0,0.41544,0.77539,0.35882,0.1098
3.84,0,0.40958,0.7793,0.36471,0.10392
3.848,0,0.40371,0.76953,0.34902,0.13333
3.856,0,0.3998,0.7793,0.33922,0.12941
3.864,0,0.39687,0.76953,0.31961,0.12941
3.872,0,0.39198,0.78516,0.33922,0.12941
3.88,0,0.38612,0.78516,0.34902,0.14902
3.888,0,0.38123,0.80469,0.3451,0.15882
3.896,0,0.37634,0.79883,0.34902,0.15882
3.904,0,0.37243,0.79883,0.3451,0.16471
3.912,0,0.37048,0.81055,0.33922,0.14902
3.92,0,0.36657,0.81055,0.3451,0.1549
3.928,0,0.36364,0.81055,0.31961,0.14902
3.936,0,0.36168,0.81445,0.32941,0.1549
3.944,0,0.35777,0.81055,0.33922,0.13922
3.952,0,0.35582,0.79492,0.33529,0.13333
3.96,0,0.35386,0.78906,0.33922,0.13333
3.968,0,0.35386,0.79883,0.33529,0.11961
3.976,0,0.35288,0.78516,0.31373,0.11373
3.984,0,0.35288,0.78516,0.31961,0.10392
3.992,0,0.35288,0.77539,0.32941,0.12941
4,0,0.35191,0.76953,0.31373,0.10392
4.008,0,0.35093,0.78516,0.32353,0.1098
4.016,0,0.34897,0.7793,0.33922,0.10392
4.024,0,0.34702,0.78516,0.33529,0.11961
4.032,0,0.34506,0.78516,0.32941,0.11961
4.04,0,0.34311,0.78516,0.32353,0.10392
4.048,0,0.34213,0.77539,0.32353,0.098039
4.056,0,0.34115,0.76562,0.32941,0.11373
4.064,0,0.34115,0.75977,0.32353,0.10392
4.072,0,0.34018,0.75977,0.31373,0.098039
4.08,0,0.34018,0.76562,0.3,0.078431
4.088,0,0.3392,0.75977,0.32353,0.062745
4.096,0,0.33822,0.76953,0.31373,0.094118
4.104,0,0.33822,0.79883,0.30392,0.10392
4.112,0,0.33822,0.83008,0.30392,0.12353
4.12,0,0.3392,0.82031,0.31961,0.1098
4.128,0,0.34018,0.78516,0.32941,0.11373
4.136,0,0.35582,0.76562,0.33529,0.10392
4.144,0,0.3783,0.75977,0.31961,0.11961
4.152,0,0.39492,0.76562,0.32353,0.1098
4.16,0,0.40762,0.75977,0.30392,0.12353
4.168,0,0.41935,0.76562,0.31961,0.13333
4.176,0,0.435,0.76562,0.32941,0.12353
4.184,0,0.45259,0.75977,0.33922,0.11373
4.192,0,0.47019,0.76562,0.33529,0.11961
4.2,0,0.48876,0.75977,0.33529,0.12941
4.208,0,0.50733,0.75977,0.32941,0.11961
4.216,0,0.52493,0.75977,0.33529,0.11373
4.224,0,0.54057,0.7207,0.32941,0.1098
4.232,0,0.55718,0.66406,0.37059,0.052941
4.24,0,0.57283,0.89453,0.31961,0.16863
4.248,0,0.58847,1.3242,0.11373,0.37451
4.256,0,0.6002,1.4883,-0.027451,0.39412
4.264,0,0.61095,1.0039,-0.031373,-0.082353
4.272,0,0.6217,0.73438,0.13922,-0.096078
4.28,0,0.63245,0.75977,0.22941,0.058824
4.288,0,0.64223,0.75,0.30392,0.094118
4.296,0,0.65103,0.74023,0.33922,0.098039
4.304,0,0.65787,0.73438,0.3549,0.094118
4.312,0,0.66471,0.72461,0.34902,0.088235
4.32,0,0.67058,0.7207,0.35882,0.098039
4.328,0,0.67546,0.73047,0.35882,0.10392
4.336,0,0.6784,0.72461,0.35882,0.098039
4.344,0,0.67937,0.73438,0.35882,0.084314
4.352,0,0.6784,0.73438,0.36471,0.078431
4.36,0,0.67644,0.73438,0.35882,0.088235
4.368,0,0.67253,0.73047,0.35882,0.094118
4.376,0,0.66764,0.73438,0.35882,0.098039
4.384,0,0.66276,0.73438,0.3549,0.088235
4.392,0,0.65787,0.73438,0.34902,0.084314
4.4,0,0.65298,0.74414,0.34902,0.088235
4.408,0,0.64907,0.74414,0.3451,0.10392
4.416,0,0.64516,0.75,0.34902,0.10392
4.424,0,0.6393,0.75977,0.33922,0.098039
4.432,0,0.63245,0.75977,0.32353,0.10392
4.44,0,0.62561,0.76562,0.33922,0.13333
4.448,0,0.61877,0.7793,0.34902,0.13922
4.456,0,0.61193,0.78516,0.3451,0.12353
4.464,0,0.60508,0.79492,0.3451,0.11373
4.472,0,0.59824,0.78906,0.33922,0.12941
4.48,0,0.59238,0.79492,0.33922,0.13333
4.488,0,0.58553,0.79883,0.33922,0.13922
4.496,0,0.57967,0.79883,0.33922,0.14314
4.504,0,0.57478,0.81055,0.33922,0.14902
4.512,0,0.56891,0.80469,0.33922,0.13333
4.52,0,0.56305,0.80469,0.32941,0.12941
4.528,0,0.55718,0.79492,0.33529,0.12941
4.536,0,0.55132,0.78516,0.33922,0.11961
4.544,0,0.54643,0.78516,0.32353,0.10392
4.552,0,0.54057,0.78516,0.32941,0.1098
4.56,0,0.53568,0.78516,0.31961,0.1098
4.568,0,0.53177,0.78516,0.3098,0.094118
4.576,0,0.52688,0.7793,0.30392,0.10392
4.584,0,0.52297,0.78516,0.31961,0.1098
4.592,0,0.51808,0.78516,0.31373,0.11961
4.6,0,0.5132,0.78906,0.31961,0.098039
4.608,0,0.50831,0.78906,0.31373,0.094118
4.616,0,0.50244,0.78516,0.31373,0.098039
4.624,0,0.49658,0.7793,0.31961,0.10392
4.632,0,0.49071,0.76562,0.31373,0.094118
4.64,0,0.48583,0.75977,0.32941,0.10392
4.648,0,0.48094,0.76562,0.32353,0.094118
4.656,0,0.47801,0.75977,0.31373,0.088235
4.664,0,0.47605,0.75977,0.31961,0.094118
4.672,0,0.4741,0.75391,0.32353,0.094118
4.68,0,0.47214,0.75,0.31961,0.10392
4.688,0,0.47019,0.75391,0.31373,0.098039
4.696,0,0.46921,0.75391,0.32941,0.094118
4.704,0,0.46725,0.75391,0.31961,0.088235
4.712,0,0.4653,0.75977,0.31373,0.088235
4.72,0,0.46334,0.75391,0.32353,0.098039
4.728,0,0.46237,0.75977,0.31961,0.10392
4.736,0,0.46334,0.75391,0.32353,0.1098
4.744,0,0.46725,0.75977,0.31373,0.10392
4.752,0,0.4741,0.76562,0.31373,0.1098
4.76,0,0.48094,0.75977,0.31961,0.11373
4.768,0,0.48876,0.76953,0.31373,0.10392
4.776,0,0.50147,0.76562,0.31961,0.1098
4.784,0,0.51417,0.76562,0.31373,0.10392
4.792,0,0.52786,0.75977,0.31961,0.10392
4.8,0,0.54154,0.76953,0.31373,0.098039
4.808,0,0.55523,0.76562,0.31961,0.098039
4.816,0,0.56891,0.75977,0.32353,0.094118
4.824,0,0.58162,0.77539,0.31373,0.094118
4.832,0,0.59335,0.76562,0.31961,0.084314
4.84,0,0.60411,0.76562,0.31961,0.078431
4.848,0,0.6129,0.75977,0.31373,0.078431
4.856,0,0.62072,0.76562,0.31961,0.078431
4.864,0,0.62659,0.76562,0.31373,0.078431
4.872,0,0.63245,0.75977,0.32353,0.088235
4.88,0,0.63636,0.76562,0.31961,0.094118
4.888,0,0.64125,0.77539,0.31373,0.098039
4.896,0,0.64516,0.7793,0.31961,0.088235
4.904,0,0.64809,0.76953,0.31373,0.084314
4.912,0,0.64907,0.75977,0.31961,0.078431
4.92,0,0.65005,0.76953,0.31961,0.084314
4.928,0,0.65005,0.77539,0.31373,0.078431
4.936,0,0.64907,0.76562,0.32353,0.094118
4.944,0,0.64614,0.76562,0.31961,0.088235
4.952,0,0.64223,0.77539,0.31373,0.10392
4.96,0,0.63734,0.77539,0.31373,0.12353
4.968,0,0.63245,0.78516,0.3098,0.12941
4.976,0,0.62561,0.77539,0.31373,0.13333
4.984,0,0.61877,0.78516,0.3098,0.12941
4.992,0,0.61095,0.78906,0.31373,0.14314
5,0,0.60313,0.78906,0.31373,0.11961
5.008,0,0.59531,0.79492,0.30392,0.11961
5.016,0,0.58749,0.81055,0.3098,0.12353
5.024,0.0048876,0.57967,0.82031,0.30392,0.11373
5.032,0.0097752,0.57185,0.83008,0.3,0.098039
5.04,0.013685,0.565,0.83398,0.29412,0.1098
5.048,0.018573,0.55816,0.81445,0.30392,0.098039
5.056,0.02346,0.5523,0.78516,0.3098,0.094118
5.064,0.02737,0.54741,0.77539,0.31373,0.10392
5.072,0.031281,0.54154,0.76953,0.31373,0.088235
5.08,0.034213,0.53666,0.76953,0.31961,0.07451
5.088,0.037146,0.53275,0.75977,0.31373,0.07451
5.096,0.040078,0.52786,0.75977,0.32353,0.078431
5.104,0.042033,0.52395,0.75977,0.31373,0.088235
5.112,0.044966,0.51906,0.75977,0.31961,0.098039
5.12,0.046921,0.5132,0.75977,0.31961,0.084314
5.128,0.048876,0.50733,0.75977,0.32353,0.084314
5.136,0.049853,0.50049,0.70898,0.34902,0.094118
5.144,0.050831,0.49462,0.67578,0.38039,0.098039
5.152,0.051808,0.48778,0.94922,0.31961,0.23922
5.16,0.052786,0.48289,1.4141,0.11961,0.4451
5.168,0.053763,0.47996,1.5,-0.011765,0.27451
5.176,0.054741,0.47703,1.0039,-0.031373,-0.086275
5.184,0.055718,0.47507,0.73438,0.12353,-0.11765
5.192,0.057674,0.47312,0.75,0.2451,0.013725
5.2,0.059629,0.47116,0.74023,0.3098,0.04902
5.208,0.061584,0.47019,0.72461,0.33529,0.062745
5.216,0.063539,0.46823,0.7207,0.34902,0.058824
5.224,0.065494,0.46725,0.71484,0.35882,0.052941
5.232,0.067449,0.46432,0.71484,0.35882,0.052941
5.24,0.069404,0.46139,0.71484,0.3549,0.052941
5.248,0.072336,0.4565,0.71484,0.34902,0.058824
5.256,0.075269,0.45357,0.7207,0.33922,0.068627
5.264,0.079179,0.45064,0.72461,0.34902,0.062745
5.272,0.084066,0.4477,0.73047,0.34902,0.068627
5.28,0.089932,0.44379,0.73438,0.3549,0.078431
5.288,0.096774,0.43988,0.72461,0.34902,0.07451
5.296,0.10362,0.43597,0.73047,0.3549,0.098039
5.304,0.11144,0.43206,0.73438,0.34902,0.10392
5.312,0.11926,0.43011,0.73438,0.34902,0.088235
5.32,0.12805,0.42717,0.74023,0.3451,0.094118
5.328,0.13783,0.42522,0.74414,0.34902,0.094118
5.336,0.14761,0.42326,0.74023,0.33922,0.078431
5.344,0.15934,0.42131,0.75,0.3451,0.094118
5.352,0.17107,0.41935,0.75391,0.33529,0.098039
5.36,0.18671,0.41838,0.75977,0.3451,0.10392
5.368,0.20235,0.41642,0.75391,0.34902,0.1098
5.376,0.2219,0.41349,0.75977,0.33922,0.098039
5.384,0.24145,0.41153,0.76562,0.33922,0.094118
5.392,0.26882,0.40958,0.76953,0.33529,0.11373
5.4,0.29619,0.4086,0.7793,0.33922,0.10392
5.408,0.3304,0.40762,0.78516,0.32941,0.1098
5.416,0.36461,0.40762,0.78516,0.32941,0.11373
5.424,0.40665,0.40762,0.79492,0.32353,0.10392
5.432,0.4477,0.40762,0.78516,0.31373,0.10392
5.44,0.49658,0.40762,0.78906,0.31373,0.10392
5.448,0.54545,0.40762,0.78906,0.31373,0.094118
5.456,0.60117,0.40762,0.79492,0.31373,0.098039
5.464,0.65689,0.4086,0.78516,0.31373,0.078431
5.472,0.71652,0.4086,0.7793,0.3098,0.078431
5.48,0.77615,0.4086,0.77539,0.31373,0.084314
5.488,0.82698,0.40762,0.76953,0.3098,0.07451
5.496,0.87879,0.40567,0.77539,0.30392,0.07451
5.504,0.9218,0.40469,0.7793,0.31373,0.084314
5.512,0.96481,0.40469,0.7793,0.3098,0.088235
5.52,0.9824,0.40371,0.78516,0.3,0.052941
5.528,1,0.40469,0.7793,0.29412,0.04902
5.536,1,0.40567,0.78516,0.30392,0.088235
5.544,1,0.40762,0.77539,0.3,0.094118
5.552,1,0.40958,0.7793,0.3,0.052941
5.56,1,0.41153,0.76562,0.3098,0.07451
5.568,1,0.41349,0.75977,0.31373,0.052941
5.576,1,0.41544,0.75391,0.3098,0.033333
5.584,1,0.41642,0.75391,0.3098,0.068627
5.592,1,0.41642,0.75,0.31373,0.07451
5.6,1,0.41642,0.75391,0.31373,0.052941
5.608,1,0.4174,0.74023,0.31373,0.058824
5.616,1,0.41838,0.74023,0.31373,0.07451
5.624,1,0.42033,0.74414,0.31373,0.078431
5.632,1,0.42131,0.75,0.31373,0.07451
5.64,1,0.42424,0.74023,0.31373,0.062745
5.648,1,0.42913,0.75,0.31961,0.068627
5.656,1,0.435,0.74414,0.31373,0.062745
5.664,1,0.44184,0.73438,0.31961,0.058824
5.672,1,0.45161,0.74414,0.31961,0.07451
5.68,1,0.46334,0.74023,0.32353,0.078431
5.688,1,0.47703,0.75,0.31961,0.078431
5.696,1,0.49169,0.75,0.31961,0.068627
5.704,1,0.50831,0.75,0.31961,0.058824
5.712,1,0.52493,0.74414,0.32353,0.084314
5.72,1,0.54154,0.75977,0.31373,0.098039
5.728,1,0.55621,0.75,0.31961,0.094118
5.736,1,0.56891,0.75977,0.31373,0.1098
5.744,1,0.58065,0.75977,0.31961,0.11961
5.752,1,0.58847,0.75977,0.31961,0.10392
5.76,1,0.59531,0.76953,0.31961,0.078431
5.768,1,0.60215,0.75977,0.32353,0.068627
5.776,1,0.60704,0.76562,0.31373,0.058824
5.784,1,0.61193,0.78516,0.31373,0.07451
5.792,1,0.61681,0.79492,0.3098,0.078431
5.8,1,0.62072,0.78906,0.31373,0.084314
5.808,1,0.62463,0.77539,0.31373,0.078431
5.816,1,0.62757,0.75391,0.31961,0.062745
5.824,1,0.62952,0.75,0.32941,0.068627
5.832,1,0.63148,0.73438,0.33529,0.043137
5.84,1,0.63148,0.74023,0.32353,0.052941
5.848,1,0.6305,0.75391,0.33529,0.043137
5.856,1,0.62854,0.73438,0.33529,0.039216
5.864,1,0.62561,0.74023,0.33529,0.04902
5.872,1,0.62268,0.73438,0.32941,0.052941
5.88,1,0.61877,0.75,0.33529,0.052941
5.888,1,0.61486,0.74023,0.33922,0.058824
5.896,1,0.60899,0.73438,0.33529,0.033333
5.904,1,0.60215,0.74023,0.3451,0.058824
5.912,1,0.59531,0.66016,0.38431,0.029412
5.92,1,0.58749,0.79883,0.3902,0.10392
5.928,1,0.57967,1.209,0.16863,0.3451
5.936,1,0.57185,1.4531,-0.027451,0.42941
5.944,1,0.56598,1.0039,-0.047059,0.058824
5.952,1,0.56012,0.60938,0.1549,-0.096078
5.96,1,0.55425,0.66992,0.26863,-0.027451
5.968,1,0.54839,0.73438,0.33529,0.033333
5.976,1,0.54252,0.73438,0.3451,0.04902
5.984,1,0.53666,0.73047,0.33922,0.052941
5.992,1,0.53177,0.73438,0.3549,0.058824
6,1,0.52688,0.74023,0.34902,0.052941
6.008,1,0.52297,0.72461,0.3549,0.029412
6.016,1,0.51906,0.74023,0.35882,0.078431
6.024,1,0.51417,0.73438,0.35882,0.07451
6.032,1,0.50929,0.73438,0.3549,0.04902
6.04,1,0.50244,0.73047,0.35882,0.068627
6.048,1,0.4956,0.74414,0.3549,0.078431
6.056,1,0.48876,0.74414,0.35882,0.062745
6.064,1,0.48387,0.75,0.34902,0.068627
6.072,1,0.47801,0.75,0.34902,0.058824
6.08,1,0.47214,0.75391,0.3549,0.07451
6.088,1,0.46725,0.75977,0.3451,0.078431
6.096,1,0.46334,0.75977,0.3451,0.068627
6.104,1,0.45846,0.76953,0.33922,0.094118
6.112,1,0.45357,0.75977,0.33922,0.088235
6.12,1,0.4477,0.76562,0.34902,0.094118
6.128,1,0.44282,0.77539,0.33529,0.058824
6.136,1,0.43891,0.78516,0.33922,0.098039
6.144,1,0.435,0.78906,0.3451,0.12353
6.152,1,0.43206,0.78516,0.33922,0.11373
6.16,1,0.42913,0.78906,0.33529,0.098039
6.168,1,0.42424,0.80469,0.32941,0.1098
6.176,1,0.41935,0.81055,0.31961,0.11961
6.184,1,0.39883,0.81055,0.32353,0.12941
6.192,1,0.37048,0.81055,0.31961,0.1098
6.2,1,0.35386,0.81055,0.31961,0.11373
6.208,1,0.34311,0.81055,0.32353,0.11373
6.216,1,0.33529,0.81055,0.31961,0.10392
6.224,1,0.3304,0.81055,0.32353,0.098039
6.232,1,0.32649,0.79492,0.31373,0.10392
6.24,1,0.32258,0.78906,0.31373,0.10392
6.248,1,0.31867,0.78516,0.31373,0.094118
6.256,1,0.31574,0.78906,0.31961,0.084314
6.264,1,0.31378,0.78516,0.31373,0.088235
6.272,1,0.31183,0.78516,0.32353,0.098039
6.28,1,0.3089,0.7793,0.31373,0.07451
6.288,1,0.30694,0.78516,0.31373,0.062745
6.296,1,0.30596,0.77539,0.31961,0.094118
6.304,1,0.30596,0.7793,0.32353,0.078431
6.312,1,0.30499,0.77539,0.31373,0.078431
6.32,1,0.30401,0.76562,0.32941,0.084314
6.328,1,0.30303,0.75977,0.33529,0.058824
6.336,1,0.30303,0.75977,0.32941,0.078431
6.344,1,0.30303,0.75391,0.31961,0.084314
6.352,1,0.30303,0.75,0.31373,0.062745
6.36,1,0.30401,0.75391,0.32941,0.07451
6.368,1,0.30401,0.75391,0.33529,0.078431
6.376,1,0.30205,0.75977,0.32353,0.078431
6.384,1,0.29912,0.75977,0.32941,0.078431
6.392,1,0.29521,0.75,0.33922,0.088235
6.4,1,0.2913,0.75977,0.33922,0.078431
6.408,1,0.28935,0.75977,0.3451,0.058824
6.416,1,0.28837,0.75977,0.33922,0.058824
6.424,1,0.28837,0.76562,0.33922,0.07451
6.432,1,0.29228,0.75977,0.33922,0.078431
6.44,1,0.29912,0.76562,0.33922,0.07451
6.448,1,0.3089,0.76953,0.33922,0.088235
6.456,1,0.32063,0.76953,0.33922,0.094118
6.464,1,0.33236,0.76953,0.33922,0.094118
6.472,1,0.348,0.75977,0.33922,0.11373
6.48,1,0.36559,0.76562,0.32941,0.13333
6.488,1,0.38514,0.76953,0.33529,0.14314
6.496,1,0.40469,0.76953,0.33922,0.13922
6.504,1,0.42326,0.76562,0.33922,0.14902
6.512,1,0.44086,0.77539,0.33529,0.14902
6.52,1,0.45846,0.78516,0.33922,0.13333
6.528,1,0.47312,0.78516,0.32941,0.12353
6.536,1,0.4868,0.78906,0.32353,0.1098
6.544,1,0.49853,0.79883,0.31373,0.10392
6.552,1,0.50929,0.81055,0.31373,0.11373
6.56,1,0.51808,0.81055,0.31373,0.11961
6.568,1,0.52786,0.79492,0.31961,0.12353
6.576,1,0.53666,0.76562,0.31961,0.1098
6.584,1,0.5435,0.75977,0.32941,0.10392
6.592,1,0.54741,0.76562,0.33529,0.098039
6.6,1,0.55132,0.76562,0.33529,0.088235
6.608,1,0.55425,0.76562,0.33529,0.084314
6.616,1,0.55621,0.76562,0.33529,0.088235
6.624,1,0.55914,0.76562,0.33529,0.098039
6.632,1,0.56012,0.76953,0.32941,0.094118
6.64,1,0.55914,0.76953,0.33529,0.098039
6.648,1,0.55718,0.76953,0.32941,0.098039
6.656,1,0.55425,0.7793,0.32941,0.10392
6.664,1,0.54936,0.75391,0.33922,0.094118
6.672,1,0.54448,0.71484,0.36471,0.07451
6.68,1,0.53763,0.83398,0.37059,0.16471
6.688,1,0.53079,1.1738,0.17843,0.4451
6.696,1,0.52199,1.3887,0.017647,0.55098
6.704,1,0.51222,1.0352,0.0039216,0.13333
6.712,1,0.50244,0.66406,0.17843,-0.082353
6.72,1,0.4956,0.71484,0.26863,-0.0058823
6.728,1,0.48876,0.75977,0.32353,0.058824
6.736,1,0.48387,0.76562,0.33922,0.084314
6.744,1,0.47801,0.75391,0.34902,0.088235
6.752,0.99218,0.4741,0.75977,0.34902,0.088235
6.76,0.98436,0.47019,0.75391,0.35882,0.084314
6.768,0.96774,0.46628,0.75977,0.3549,0.084314
6.776,0.95015,0.46334,0.75977,0.3549,0.084314
6.784,0.93255,0.45943,0.75977,0.34902,0.078431
6.792,0.91496,0.45455,0.75977,0.3451,0.084314
6.8,0.89638,0.45064,0.75977,0.34902,0.078431
6.808,0.87781,0.44575,0.76562,0.3451,0.078431
6.816,0.85924,0.44086,0.76953,0.34902,0.078431
6.824,0.84066,0.435,0.76562,0.33922,0.084314
6.832,0.82307,0.42913,0.76953,0.33529,0.084314
6.84,0.80645,0.42424,0.7793,0.32941,0.084314
6.848,0.79081,0.42033,0.7793,0.32353,0.088235
6.856,0.77517,0.4174,0.78516,0.32353,0.084314
6.864,0.76051,0.41544,0.78516,0.31961,0.094118
6.872,0.74585,0.41349,0.78906,0.31373,0.10392
6.88,0.73216,0.41251,0.79492,0.31961,0.10392
6.888,0.71848,0.41251,0.79492,0.31373,0.1098
6.896,0.70577,0.41251,0.79883,0.31373,0.11373
6.904,0.69306,0.41153,0.80469,0.31373,0.11961
6.912,0.68035,0.40958,0.81055,0.31373,0.12941
6.92,0.66764,0.40469,0.82031,0.31373,0.13922
6.928,0.65396,0.39883,0.81055,0.30392,0.14314
6.936,0.64125,0.39296,0.80469,0.3098,0.12941
6.944,0.62757,0.38807,0.81445,0.3098,0.1549
6.952,0.61388,0.38416,0.83008,0.31373,0.13333
6.96,0.59922,0.38123,0.83008,0.30392,0.12941
6.968,0.58456,0.37928,0.83984,0.2902,0.13333
6.976,0.56891,0.37732,0.85938,0.28431,0.16863
6.984,0.55327,0.37537,0.86914,0.2902,0.17843
6.992,0.53763,0.37439,0.82422,0.29412,0.1549
7,0.52199,0.37341,0.80469,0.29412,0.14314
7.008,0.50538,0.37146,0.78516,0.2902,0.12353
7.016,0.48876,0.3695,0.78906,0.29412,0.11373
7.024,0.47312,0.36461,0.78516,0.2902,0.1098
7.032,0.45846,0.35973,0.78516,0.29412,0.094118
7.04,0.44379,0.35582,0.78516,0.3,0.098039
7.048,0.42913,0.35093,0.7793,0.2902,0.094118
7.056,0.41544,0.348,0.78516,0.29412,0.098039
7.064,0.40274,0.34702,0.78516,0.29412,0.084314
7.072,0.39101,0.34604,0.7793,0.3,0.078431
7.08,0.37928,0.34604,0.76562,0.29412,0.062745
7.088,0.37048,0.34604,0.75977,0.3098,0.084314
7.096,0.36266,0.34506,0.75977,0.31373,0.088235
7.104,0.35679,0.34506,0.75977,0.31961,0.068627
7.112,0.35093,0.34409,0.75977,0.31961,0.068627
7.12,0.348,0.34311,0.75391,0.32353,0.078431
7.128,0.34506,0.34213,0.75977,0.32941,0.078431
7.136,0.34506,0.3392,0.75391,0.32941,0.088235
7.144,0.34506,0.33724,0.75977,0.33529,0.098039
7.152,0.34897,0.33627,0.75977,0.33529,0.098039
7.16,0.35386,0.33529,0.74414,0.3549,0.1098
7.168,0.36266,0.33529,0.83984,0.35882,0.19412
7.176,0.37146,0.33724,1.1289,0.18824,0.44902
7.184,0.38221,0.34213,1.3438,0.017647,0.5098
7.192,0.39394,0.34897,1.1387,-0.0019608,0.084314
7.2,0.40665,0.35875,0.80469,0.13333,0.013725
7.208,0.41935,0.37146,0.75391,0.23333,0.1098
7.216,0.43011,0.38514,0.75,0.3098,0.12941
7.224,0.44184,0.40078,0.73438,0.33922,0.11373
7.232,0.45064,0.41642,0.73047,0.3549,0.10392
7.24,0.46041,0.43402,0.72461,0.35882,0.094118
7.248,0.4653,0.44868,0.72461,0.35882,0.084314
7.256,0.47116,0.46334,0.72461,0.36471,0.084314
7.264,0.4741,0.47898,0.7207,0.36471,0.084314
7.272,0.47605,0.4956,0.73047,0.35882,0.078431
7.28,0.47703,0.51026,0.72461,0.36471,0.078431
7.288,0.47898,0.52493,0.72461,0.35882,0.078431
7.296,0.47898,0.53763,0.72461,0.35882,0.07451
7.304,0.47898,0.54839,0.72461,0.35882,0.078431
7.312,0.47898,0.55914,0.72461,0.35882,0.07451
7.32,0.47898,0.56794,0.73047,0.35882,0.078431
7.328,0.47898,0.57576,0.72461,0.3549,0.078431
7.336,0.47898,0.58065,0.73438,0.34902,0.084314
7.344,0.47898,0.5826,0.73438,0.3549,0.088235
7.352,0.47801,0.58162,0.74414,0.34902,0.088235
7.36,0.47801,0.57967,0.75,0.34902,0.10392
7.368,0.47801,0.57771,0.75391,0.3451,0.10392
7.376,0.47801,0.57576,0.75977,0.3451,0.1098
7.384,0.47703,0.5738,0.76562,0.33922,0.1098
7.392,0.47703,0.56989,0.76953,0.33922,0.11961
7.4,0.47703,0.56696,0.7793,0.33529,0.12941
7.408,0.47605,0.56305,0.78516,0.33529,0.13333
7.416,0.47507,0.55914,0.78906,0.33529,0.14314
7.424,0.47312,0.5523,0.79492,0.32941,0.14902
7.432,0.47214,0.5435,0.80469,0.32353,0.14902
7.44,0.46921,0.5347,0.80469,0.32353,0.1549
7.448,0.46628,0.5259,0.81055,0.31961,0.1549
7.456,0.46139,0.51711,0.81055,0.31961,0.14902
7.464,0.45748,0.50831,0.81055,0.31961,0.14314
7.472,0.45161,0.50049,0.81055,0.31961,0.14314
7.48,0.44673,0.49169,0.81055,0.31961,0.14314
7.488,0.43988,0.48387,0.81055,0.31961,0.14902
7.496,0.43304,0.47703,0.80469,0.31373,0.13333
7.504,0.42717,0.47214,0.79883,0.31373,0.12941
7.512,0.42131,0.46725,0.79883,0.31961,0.11961
7.52,0.41642,0.46139,0.78906,0.31961,0.11961
7.528,0.41153,0.45455,0.7793,0.32941,0.10392
7.536,0.40665,0.4477,0.77539,0.32941,0.098039
7.544,0.40176,0.43988,0.76562,0.32941,0.10392
7.552,0.39785,0.43304,0.76953,0.32941,0.098039
7.56,0.39394,0.42717,0.75977,0.32941,0.10392
7.568,0.39101,0.42229,0.75977,0.32941,0.10392
7.576,0.38905,0.41838,0.76562,0.33529,0.098039
7.584,0.38807,0.41447,0.75977,0.32941,0.094118
7.592,0.38807,0.41056,0.75977,0.33529,0.098039
7.6,0.38807,0.40567,0.76562,0.33529,0.10392
7.608,0.38905,0.40078,0.75977,0.33529,0.10392
7.616,0.39003,0.39589,0.76562,0.33529,0.10392
7.624,0.39101,0.39003,0.76562,0.33529,0.1098
7.632,0.39296,0.38416,0.75977,0.33529,0.11373
7.64,0.39394,0.37928,0.76953,0.33529,0.1098
7.648,0.39589,0.37439,0.76953,0.33529,0.11961
7.656,0.39687,0.37048,0.76953,0.32941,0.11373
7.664,0.39785,0.36657,0.76562,0.32941,0.1098
7.672,0.3998,0.36168,0.76562,0.32941,0.10392
7.68,0.3998,0.35777,0.76953,0.32941,0.098039
7.688,0.40078,0.35582,0.76953,0.32941,0.098039
7.696,0.3998,0.35386,0.76953,0.32941,0.098039
7.704,0.39883,0.35386,0.76953,0.32941,0.10392
7.712,0.39687,0.35288,0.77539,0.32941,0.098039
7.72,0.39589,0.35288,0.76953,0.33529,0.098039
7.728,0.39394,0.35386,0.76953,0.33529,0.094118
7.736,0.39198,0.35484,0.76562,0.32941,0.084314
7.744,0.39101,0.35679,0.76953,0.32941,0.07451
7.752,0.39003,0.35875,0.76562,0.32941,0.068627
7.76,0.38807,0.3607,0.76562,0.32353,0.078431
7.768,0.3871,0.36364,0.76562,0.32941,0.078431
7.776,0.38612,0.36559,0.76953,0.33529,0.078431
7.784,0.38514,0.36755,0.76562,0.33922,0.078431
7.792,0.38319,0.3695,0.75977,0.33922,0.078431
7.8,0.38123,0.3695,0.75977,0.33922,0.078431
7.808,0.3783,0.36852,0.76562,0.33922,0.07451
7.816,0.37537,0.36657,0.76953,0.33922,0.07451
7.824,0.37243,0.36559,0.76953,0.33529,0.084314
7.832,0.3695,0.36461,0.76562,0.33922,0.07451
7.84,0.36657,0.36266,0.76953,0.33529,0.078431
7.848,0.36364,0.36168,0.7793,0.32353,0.088235
7.856,0.3607,0.35973,0.78516,0.31961,0.084314
7.864,0.35679,0.35777,0.78906,0.32353,0.1098
7.872,0.35288,0.35582,0.78516,0.31961,0.12353
7.88,0.34897,0.35386,0.78516,0.31373,0.13333
7.888,0.34506,0.35093,0.78906,0.31373,0.13922
7.896,0.34115,0.34702,0.78516,0.31373,0.14314
7.904,0.33627,0.34311,0.79883,0.31373,0.13922
7.912,0.33138,0.3392,0.79883,0.31373,0.12941
7.92,0.32356,0.33431,0.79883,0.3098,0.12353
7.928,0.31672,0.3304,0.81055,0.31373,0.10392
7.936,0.30694,0.32747,0.81055,0.3098,0.098039
7.944,0.29717,0.32551,0.82422,0.3098,0.078431
7.952,0.28348,0.32454,0.83008,0.31373,0.07451
7.96,0.27077,0.32551,0.82422,0.31373,0.088235
7.968,0.25513,0.32551,0.79883,0.32941,0.07451
7.976,0.24047,0.32551,0.78906,0.32941,0.078431
7.984,0.2219,0.32551,0.78906,0.32353,0.088235
7.992,0.20332,0.32356,0.78516,0.33529,0.10392
8,0.18182,0.3216,0.78516,0.33529,0.098039
8.008,0.16129,0.31867,0.7793,0.33529,0.094118
8.016,0.13881,0.31574,0.78516,0.32941,0.094118
8.024,0.11535,0.31183,0.7793,0.32353,0.098039
8.032,0.091887,0.3089,0.7793,0.32941,0.088235
8.04,0.068426,0.30694,0.77539,0.33922,0.088235
8.048,0.047898,0.30596,0.74414,0.3549,0.078431
8.056,0.026393,0.30596,0.70508,0.38039,0.07451
8.064,0.012708,0.30499,0.85547,0.32353,0.17451
8.072,0,0.30303,1.2285,0.15882,0.4451
8.08,0,0.30108,1.4531,0.017647,0.52549
8.088,0,0.29717,1.0938,0.0039216,0.043137
8.096,0,0.29326,0.72461,0.16471,-0.11765
8.104,0,0.28837,0.75,0.26863,-0.027451
8.112,0,0.28543,0.76562,0.32353,0.043137
8.12,0,0.28348,0.75391,0.33922,0.062745
8.128,0,0.2825,0.74414,0.34902,0.068627
8.136,0,0.28152,0.74414,0.35882,0.068627
8.144,0,0.28055,0.74414,0.36471,0.07451
8.152,0,0.28055,0.74414,0.36471,0.068627
8.16,0,0.28152,0.75,0.36471,0.078431
8.168,0,0.28152,0.74414,0.37059,0.07451
8.176,0,0.28152,0.75,0.35882,0.078431
8.184,0,0.28152,0.74414,0.36471,0.068627
8.192,0,0.28152,0.74414,0.35882,0.07451
8.2,0,0.27957,0.75,0.35882,0.068627
8.208,0,0.27859,0.75391,0.3549,0.078431
8.216,0,0.27859,0.75391,0.3549,0.078431
8.224,0,0.27957,0.75977,0.3451,0.088235
8.232,0,0.29423,0.76562,0.33922,0.094118
8.24,0,0.31378,0.76562,0.34902,0.094118
8.248,0,0.32356,0.77539,0.3451,0.098039
8.256,0,0.32942,0.7793,0.3451,0.1098
8.264,0,0.33236,0.7793,0.33922,0.11373
8.272,0,0.33431,0.78516,0.33922,0.11373
8.28,0,0.33529,0.78516,0.33922,0.11373
8.288,0,0.33529,0.78516,0.33529,0.11961
8.296,0,0.33431,0.78906,0.33922,0.12941
8.304,0,0.33333,0.79492,0.33922,0.12941
8.312,0,0.33138,0.80469,0.33922,0.12941
8.32,0,0.32942,0.79883,0.33922,0.12941
8.328,0,0.32649,0.79492,0.33922,0.13333
8.336,0,0.32454,0.80469,0.33529,0.13333
8.344,0,0.32258,0.80469,0.32353,0.12941
8.352,0,0.32258,0.80469,0.32941,0.12941
8.36,0,0.32454,0.79883,0.32353,0.12941
8.368,0,0.32649,0.80469,0.32941,0.12941
8.376,0,0.32942,0.80469,0.31961,0.11961
8.384,0,0.33138,0.79883,0.32353,0.098039
8.392,0,0.33236,0.79492,0.31961,0.10392
8.4,0,0.33236,0.78906,0.31961,0.1098
8.408,0,0.33333,0.79492,0.31373,0.11373
8.416,0,0.33333,0.79883,0.31373,0.1098
8.424,0,0.33333,0.80469,0.3098,0.11373
8.432,0,0.33333,0.81055,0.31373,0.10392
8.44,0,0.33333,0.81055,0.3098,0.10392
8.448,0,0.33333,0.80469,0.31373,0.1098
8.456,0,0.33431,0.81055,0.31373,0.12353
8.464,0,0.33333,0.80469,0.31373,0.12941
8.472,0,0.33333,0.79492,0.31961,0.11373
8.48,0,0.33333,0.79492,0.31373,0.1098
8.488,0,0.33333,0.79883,0.31373,0.12941
8.496,0,0.33236,0.78516,0.32353,0.12941
8.504,0,0.3304,0.78516,0.31961,0.12353
8.512,0,0.3304,0.78516,0.32353,0.12941
8.52,0,0.3304,0.7793,0.31961,0.13922
8.528,0,0.33138,0.7793,0.31961,0.12941
8.536,0,0.33236,0.7793,0.32353,0.12941
8.544,0,0.33529,0.77539,0.33922,0.14314
8.552,0,0.3392,0.76953,0.32941,0.14902
8.56,0,0.34604,0.77539,0.31961,0.15882
8.568,0,0.35582,0.78516,0.32353,0.13333
8.576,0,0.3695,0.7793,0.3098,0.14314
8.584,0,0.38514,0.77539,0.31373,0.14902
8.592,0,0.40469,0.7793,0.33922,0.14314
8.6,0,0.42522,0.76953,0.33922,0.14314
8.608,0,0.4477,0.78516,0.33922,0.15882
8.616,0,0.46921,0.76953,0.32941,0.16471
8.624,0,0.49071,0.78516,0.32353,0.17451
8.632,0,0.51124,0.7793,0.3451,0.14314
8.64,0,0.53177,0.78516,0.34902,0.1549
8.648,0,0.54839,0.77539,0.31373,0.16863
8.656,0,0.56305,0.7793,0.31373,0.16863
8.664,0,0.57771,0.76562,0.33529,0.16471
8.672,0,0.59238,0.7793,0.33922,0.18824
8.68,0,0.60606,0.78516,0.33922,0.17451
8.688,0,0.61877,0.79492,0.33922,0.16863
8.696,0,0.62952,0.78906,0.33529,0.1549
8.704,0,0.63734,0.79492,0.32941,0.14314
8.712,0,0.64418,0.78516,0.3098,0.14314
8.72,0,0.65005,0.80469,0.30392,0.12941
8.728,0,0.65591,0.83008,0.31373,0.13333
8.736,0,0.65982,0.83008,0.33529,0.12941
8.744,0,0.66178,0.80469,0.31961,0.14902
8.752,0,0.65982,0.7793,0.30392,0.13922
8.76,0,0.65689,0.76953,0.3098,0.12941
8.768,0,0.65396,0.76953,0.31373,0.12941
8.776,0,0.65103,0.77539,0.3451,0.12941
8.784,0,0.64809,0.76953,0.3549,0.12941
8.792,0,0.64418,0.75977,0.34902,0.11373
8.8,0,0.6393,0.75391,0.35882,0.10392
8.808,0,0.63343,0.75977,0.3451,0.1098
8.816,0,0.62659,0.76562,0.32941,0.094118
8.824,0,0.61877,0.76953,0.32353,0.098039
8.832,0,0.60997,0.75391,0.35882,0.1098
8.84,0,0.59922,0.69531,0.3902,0.11961
8.848,0,0.58944,0.67969,0.40392,0.1098
8.856,0,0.57967,1.0996,0.26471,0.33922
8.864,0,0.56989,1.4648,0.04902,0.48039
8.872,0,0.55914,1.498,-0.0019608,0.15882
8.88,0,0.54936,0.7793,0.062745,-0.086275
8.888,0,0.53959,0.7207,0.21373,0.0039216
8.896,0,0.52981,0.75391,0.31961,0.078431
8.904,0,0.52102,0.74414,0.34902,0.098039
8.912,0,0.51222,0.73438,0.3549,0.084314
8.92,0,0.50342,0.73047,0.33922,0.078431
8.928,0,0.4956,0.73438,0.34902,0.098039
8.936,0,0.49071,0.73047,0.37059,0.10392
8.944,0,0.48485,0.72461,0.38431,0.088235
8.952,0,0.47996,0.73438,0.38039,0.084314
8.96,0,0.47703,0.74414,0.36471,0.094118
8.968,0,0.47507,0.74023,0.35882,0.094118
8.976,0,0.47214,0.74023,0.36471,0.098039
8.984,0,0.46921,0.75,0.34902,0.084314
8.992,0,0.46725,0.75,0.36471,0.10392
9,0,0.46334,0.75391,0.37451,0.088235
9.008,0,0.46041,0.75391,0.35882,0.084314
9.016,0,0.45748,0.75391,0.36471,0.084314
9.024,0,0.45455,0.75977,0.35882,0.10392
9.032,0,0.45161,0.75391,0.35882,0.1098
9.04,0,0.44868,0.75977,0.3549,0.11961
9.048,0,0.44673,0.77539,0.32941,0.12941
9.056,0,0.44575,0.76953,0.3451,0.11373
9.064,0,0.44379,0.78516,0.35882,0.11961
9.072,0,0.44086,0.78906,0.3549,0.12941
9.08,0,0.43695,0.79883,0.34902,0.12941
9.088,0,0.43304,0.80469,0.3549,0.12941
9.096,0,0.42717,0.79883,0.33922,0.11961
9.104,0,0.42229,0.79492,0.33922,0.12941
9.112,0,0.4174,0.81055,0.32353,0.12941
9.12,0,0.41447,0.81055,0.33529,0.13922
9.128,0,0.41349,0.78906,0.33922,0.14902
9.136,0,0.41251,0.80469,0.33922,0.13333
9.144,0,0.41251,0.80469,0.33922,0.12941
9.152,0,0.41251,0.79883,0.33922,0.12941
9.16,0,0.41251,0.78906,0.33529,0.1098
9.168,0,0.41251,0.79492,0.32353,0.10392
9.176,0,0.41251,0.78516,0.33922,0.10392
9.184,0,0.41251,0.78906,0.32941,0.1098
9.192,0,0.41251,0.79492,0.33529,0.098039
9.2,0,0.41251,0.78516,0.31961,0.098039
9.208,0,0.41251,0.78906,0.31373,0.094118
9.216,0,0.41251,0.79883,0.3098,0.098039
9.224,0,0.41251,0.78906,0.30392,0.10392
9.232,0,0.41251,0.78516,0.32941,0.094118
9.24,0,0.41251,0.79883,0.31373,0.084314
9.248,0,0.41251,0.78906,0.30392,0.094118
9.256,0,0.41251,0.78906,0.31961,0.098039
9.264,0,0.41251,0.78516,0.32353,0.10392
9.272,0,0.41251,0.76953,0.29412,0.078431
9.28,0,0.41251,0.75391,0.3098,0.084314
9.288,0,0.41251,0.76953,0.33529,0.088235
9.296,0,0.41251,0.7793,0.32941,0.098039
9.304,0,0.41251,0.76562,0.3451,0.1098
9.312,0,0.41251,0.76953,0.32941,0.11961
9.32,0,0.41251,0.75977,0.3098,0.10392
9.328,0,0.41447,0.76562,0.31373,0.094118
9.336,0,0.41935,0.76953,0.33922,0.10392
9.344,0,0.42424,0.76562,0.32353,0.12353
9.352,0,0.43109,0.76953,0.29412,0.1098
9.36,0,0.43988,0.75,0.33529,0.10392
9.368,0,0.45064,0.75977,0.3451,0.12353
9.376,0,0.46432,0.75977,0.33922,0.11961
9.384,0,0.47996,0.76953,0.32353,0.12353
9.392,0,0.49853,0.76562,0.33529,0.10392
9.4,0,0.51711,0.76562,0.33922,0.094118
9.408,0,0.53763,0.76953,0.31961,0.10392
9.416,0,0.55621,0.77539,0.3,0.12353
9.424,0,0.57478,0.7793,0.31961,0.14902
9.432,0,0.59238,0.76953,0.33922,0.14902
9.44,0,0.60899,0.78516,0.32353,0.15882
9.448,0,0.62072,0.76953,0.30392,0.1549
9.456,0,0.63148,0.77539,0.32941,0.13333
9.464,0,0.64321,0.7793,0.31961,0.1098
9.472,0,0.65396,0.78516,0.29412,0.1098
9.48,0,0.66373,0.79883,0.2902,0.11961
9.488,0,0.67155,0.81445,0.3098,0.12941
9.496,0,0.6784,0.82422,0.29412,0.12941
9.504,0,0.68426,0.81445,0.3098,0.12353
9.512,0,0.68915,0.78906,0.31373,0.1098
9.52,0,0.69306,0.77539,0.3,0.098039
9.528,0,0.69501,0.75977,0.30392,0.084314
9.536,0,0.69599,0.75391,0.32353,0.078431
9.544,0,0.69599,0.75977,0.34902,0.078431
9.552,0,0.69404,0.75391,0.3451,0.088235
9.56,0,0.69013,0.75977,0.33529,0.094118
9.568,0,0.68622,0.75977,0.33922,0.098039
9.576,0,0.68133,0.75391,0.32941,0.098039
9.584,0,0.67546,0.75391,0.32353,0.10392
9.592,0,0.66862,0.75391,0.32941,0.10392
9.6,0,0.6608,0.74023,0.32353,0.088235
9.608,0,0.65298,0.66992,0.34902,0.068627
9.616,0,0.64516,0.76562,0.37451,0.052941
9.624,0,0.63734,1.1543,0.2451,0.3098
9.632,0,0.62952,1.4883,0.04902,0.4098
9.64,0,0.6217,1.2949,-0.015686,0.058824
9.648,0,0.61486,0.76562,0.068627,-0.10588
9.656,0,0.60802,0.72461,0.20392,-0.0058823
9.664,0,0.60117,0.74414,0.2902,0.04902
9.672,0,0.59335,0.73047,0.32353,0.058824
9.68,0,0.58651,0.7207,0.33922,0.084314
9.688,0,0.57967,0.71484,0.3451,0.094118
9.696,0,0.5738,0.70898,0.33922,0.084314
9.704,0,0.56989,0.7207,0.33922,0.062745
9.712,0,0.56598,0.70508,0.31373,0.052941
9.72,0,0.56109,0.71484,0.34902,0.052941
9.728,0,0.55621,0.71484,0.37059,0.04902
9.736,0,0.55132,0.71484,0.37059,0.043137
9.744,0,0.54741,0.7207,0.35882,0.052941
9.752,0,0.5435,0.71484,0.3549,0.07451
9.76,0,0.53861,0.70898,0.35882,0.084314
9.768,0,0.53372,0.72461,0.34902,0.088235
9.776,0.02737,0.52981,0.7207,0.34902,0.084314
9.784,0.055718,0.52493,0.73438,0.3451,0.094118
9.792,0.089932,0.52199,0.73047,0.34902,0.10392
9.8,0.12414,0.51906,0.73438,0.33529,0.07451
9.808,0.16422,0.51613,0.73047,0.32353,0.088235
9.816,0.20332,0.5132,0.74023,0.3549,0.098039
9.824,0.24731,0.50929,0.74414,0.3549,0.078431
9.832,0.2913,0.50538,0.74023,0.3451,0.07451
9.84,0.33822,0.50049,0.75391,0.33922,0.098039
9.848,0.38612,0.49658,0.75977,0.33922,0.094118
9.856,0.43695,0.49462,0.75391,0.33922,0.094118
9.864,0.48876,0.49169,0.75977,0.32941,0.11961
9.872,0.5435,0.48974,0.75977,0.32941,0.11373
9.88,0.59824,0.48778,0.77539,0.32353,0.1098
9.888,0.65494,0.48583,0.77539,0.32353,0.098039
9.896,0.71261,0.48485,0.7793,0.3098,0.094118
9.904,0.76637,0.48387,0.78516,0.31373,0.10392
9.912,0.82014,0.48192,0.7793,0.31373,0.1098
9.92,0.86901,0.48192,0.78516,0.31373,0.10392
9.928,0.91887,0.48192,0.77539,0.31961,0.12353
9.936,0.95699,0.48289,0.78516,0.31373,0.062745
9.944,0.99609,0.48387,0.76562,0.31373,0.04902
9.952,0.99804,0.48583,0.76953,0.29412,0.078431
9.96,1,0.48778,0.7793,0.2902,0.07451
9.968,1,0.48974,0.76953,0.31961,0.062745
9.976,1,0.48974,0.76562,0.32353,0.07451
9.984,1,0.49071,0.76953,0.3098,0.068627
9.992,1,0.49071,0.75977,0.33922,0.058824
10,1,0.49071,0.76562,0.33922,0.052941
10.008,1,0.49071,0.77539,0.33529,0.07451
10.016,1,0.49071,0.75977,0.31961,0.058824
10.024,1,0.49071,0.76953,0.31373,0.052941
10.032,1,0.48974,0.75977,0.31961,0.052941
10.04,1,0.48974,0.75,0.31961,0.04902
10.048,1,0.48876,0.74414,0.32941,0.043137
10.056,1,0.48778,0.75391,0.33922,0.058824
10.064,1,0.4868,0.74414,0.31961,0.068627
10.072,1,0.48387,0.75391,0.3098,0.033333
10.08,1,0.47996,0.75391,0.32353,0.062745
10.088,1,0.47507,0.74023,0.31373,0.058824
10.096,1,0.47116,0.73438,0.33529,0.052941
10.104,1,0.46725,0.75391,0.33922,0.098039
10.112,1,0.46432,0.73438,0.32941,0.078431
10.12,1,0.46237,0.74414,0.32353,0.07451
10.128,1,0.46237,0.75,0.33529,0.078431
10.136,1,0.46432,0.75,0.32941,0.068627
10.144,1,0.46921,0.75977,0.31373,0.078431
10.152,1,0.47507,0.75,0.33922,0.088235
10.16,1,0.48289,0.75977,0.32941,0.10392
10.168,1,0.49169,0.75,0.33529,0.13333
10.176,1,0.50244,0.76562,0.31961,0.14902
10.184,1,0.51417,0.75977,0.31373,0.1098
10.192,1,0.52786,0.76953,0.32941,0.10392
10.2,1,0.54252,0.75977,0.33922,0.10392
10.208,1,0.55523,0.76953,0.3549,0.1098
10.216,1,0.56598,0.7793,0.33922,0.11373
10.224,1,0.57478,0.7793,0.3098,0.098039
10.232,1,0.58358,0.79883,0.3,0.094118
10.24,1,0.5914,0.80469,0.30392,0.1098
10.248,1,0.59726,0.78906,0.3098,0.084314
10.256,1,0.60313,0.76562,0.30392,0.078431
10.264,1,0.60899,0.75,0.33529,0.078431
10.272,1,0.61486,0.74414,0.35882,0.04902
10.28,1,0.61584,0.74414,0.3549,0.039216
10.288,1,0.6129,0.74414,0.34902,0.043137
10.296,1,0.6129,0.74414,0.33922,0.052941
10.304,1,0.6129,0.74414,0.3451,0.062745
10.312,1,0.61095,0.75,0.33922,0.078431
10.32,1,0.61095,0.74023,0.33922,0.062745
10.328,1,0.61095,0.75391,0.33922,0.043137
10.336,1,0.60899,0.74414,0.33529,0.033333
10.344,1,0.60704,0.73438,0.3451,0.058824
10.352,1,0.60508,0.68945,0.37059,0.039216
10.36,1,0.60215,0.75391,0.38431,0.029412
10.368,1,0.59824,1.0703,0.23333,0.30392
10.376,1,0.59238,1.3438,0.029412,0.51569
10.384,1,0.58651,1.1152,-0.015686,0.18824
10.392,1,0.57869,0.625,0.13333,-0.096078
10.4,1,0.57087,0.61523,0.25882,-0.047059
10.408,1,0.56207,0.74414,0.32941,0.04902
10.416,1,0.55523,0.75391,0.33529,0.043137
10.424,1,0.54839,0.73438,0.3451,0.07451
10.432,1,0.54252,0.75,0.35882,0.062745
10.44,1,0.53763,0.75977,0.34902,0.04902
10.448,1,0.53275,0.75,0.3549,0.062745
10.456,1,0.52884,0.74414,0.34902,0.078431
10.464,1,0.52493,0.75391,0.34902,0.058824
10.472,1,0.52004,0.75977,0.3549,0.058824
10.48,1,0.51515,0.75977,0.35882,0.062745
10.488,1,0.50831,0.75391,0.3549,0.052941
10.496,1,0.50049,0.75977,0.34902,0.058824
10.504,1,0.49267,0.76953,0.33922,0.078431
10.512,1,0.48485,0.76562,0.34902,0.084314
10.52,1,0.47801,0.77539,0.32941,0.068627
10.528,1,0.47116,0.75977,0.31373,0.084314
10.536,1,0.46432,0.76953,0.33922,0.088235
10.544,1,0.45846,0.7793,0.34902,0.062745
10.552,1,0.45259,0.78516,0.33922,0.052941
10.56,1,0.4477,0.7793,0.35882,0.11373
10.568,1,0.44184,0.78516,0.34902,0.10392
10.576,1,0.43695,0.78516,0.34902,0.078431
10.584,1,0.43304,0.78906,0.33922,0.10392
10.592,1,0.43011,0.79883,0.32941,0.11373
10.6,1,0.42717,0.81055,0.32941,0.098039
10.608,1,0.42424,0.81445,0.33529,0.1098
10.616,1,0.42033,0.82422,0.32353,0.13333
10.624,1,0.4174,0.82031,0.30392,0.13333
10.632,1,0.41447,0.81445,0.31961,0.12353
10.64,1,0.41153,0.82422,0.32353,0.11961
10.648,1,0.40958,0.82422,0.31961,0.13922
10.656,1,0.4086,0.82031,0.31961,0.12941
10.664,1,0.40665,0.81055,0.31961,0.11961
10.672,1,0.40567,0.81445,0.31961,0.12353
10.68,1,0.40567,0.81055,0.3098,0.098039
10.688,1,0.40469,0.79883,0.29412,0.062745
10.696,1,0.40469,0.80469,0.2902,0.052941
10.704,1,0.40469,0.78516,0.30392,0.062745
10.712,1,0.40469,0.78906,0.33529,0.078431
10.72,1,0.40469,0.79883,0.33922,0.084314
10.728,1,0.40469,0.79492,0.33529,0.088235
10.736,1,0.40469,0.79492,0.32353,0.10392
10.744,1,0.40567,0.79883,0.31961,0.094118
10.752,1,0.40665,0.78906,0.32941,0.098039
10.76,1,0.40665,0.79492,0.33529,0.098039
10.768,1,0.40665,0.78516,0.32941,0.094118
10.776,1,0.40665,0.76953,0.3098,0.094118
10.784,1,0.40665,0.76562,0.31373,0.084314
10.792,1,0.40665,0.76562,0.31961,0.088235
10.8,1,0.40762,0.76953,0.29412,0.078431
10.808,1,0.4086,0.75977,0.3098,0.078431
10.816,1,0.4086,0.76562,0.32353,0.088235
10.824,1,0.40958,0.76953,0.33529,0.094118
10.832,1,0.40958,0.77539,0.33529,0.084314
10.84,1,0.40958,0.7793,0.33529,0.078431
10.848,1,0.40958,0.76953,0.33922,0.084314
10.856,1,0.41056,0.7793,0.31961,0.094118
10.864,1,0.41153,0.78516,0.32353,0.098039
10.872,1,0.41447,0.78516,0.32941,0.10392
10.88,1,0.42033,0.78516,0.31373,0.10392
10.888,1,0.43011,0.7793,0.30392,0.1098
10.896,1,0.44184,0.78516,0.31373,0.1098
10.904,1,0.4565,0.78516,0.31961,0.12941
10.912,1,0.47116,0.78516,0.32353,0.14314
10.92,1,0.48583,0.78906,0.3,0.14902
10.928,1,0.49951,0.78906,0.31373,0.14902
10.936,1,0.51417,0.78906,0.3098,0.14902
10.944,1,0.52688,0.79492,0.31373,0.14902
10.952,1,0.53861,0.79492,0.31961,0.13333
10.96,1,0.5523,0.80469,0.2902,0.12353
10.968,1,0.565,0.81055,0.2902,0.1098
10.976,1,0.57674,0.81445,0.30392,0.11961
10.984,1,0.58944,0.83008,0.31373,0.12353
10.992,0.99413,0.59922,0.82031,0.31373,0.12941
11,0.98729,0.60704,0.79883,0.31373,0.11961
11.008,0.97165,0.61193,0.78516,0.31373,0.10392
11.016,0.95699,0.61584,0.78516,0.3098,0.098039
11.024,0.9433,0.61779,0.7793,0.31373,0.088235
11.032,0.92962,0.61975,0.78516,0.29412,0.078431
11.04,0.91691,0.6217,0.7793,0.32941,0.078431
11.048,0.9042,0.62268,0.79492,0.33922,0.084314
11.056,0.89247,0.62463,0.78516,0.32941,0.088235
11.064,0.88074,0.62561,0.78516,0.31373,0.078431
11.072,0.86999,0.62659,0.7793,0.3,0.084314
11.08,0.85924,0.62561,0.78516,0.3098,0.084314
11.088,0.84946,0.62268,0.7793,0.31373,0.078431
11.096,0.83969,0.61779,0.73438,0.34902,0.058824
11.104,0.83089,0.61193,0.73047,0.36471,0.084314
11.112,0.82209,0.60411,1.0391,0.26863,0.30392
11.12,0.81329,0.59726,1.334,0.078431,0.52941
11.128,0.8045,0.58944,1.375,0.017647,0.27451
11.136,0.7957,0.58162,0.74414,0.1098,-0.092157
11.144,0.7869,0.57478,0.67969,0.23333,-0.10196
11.152,0.77908,0.56696,0.75977,0.3,0.023529
11.16,0.77126,0.56012,0.75977,0.32941,0.052941
11.168,0.76344,0.55327,0.75977,0.33922,0.062745
11.176,0.75562,0.54545,0.75977,0.33922,0.062745
11.184,0.7478,0.53666,0.76562,0.35882,0.068627
11.192,0.74096,0.52981,0.75977,0.32353,0.068627
11.2,0.73216,0.52199,0.75977,0.33922,0.062745
11.208,0.72434,0.51417,0.76562,0.35882,0.078431
11.216,0.71554,0.50831,0.76562,0.3549,0.07451
11.224,0.70674,0.50244,0.76562,0.3451,0.078431
11.232,0.69599,0.49658,0.77539,0.3549,0.078431
11.24,0.68622,0.49169,0.76953,0.33529,0.084314
11.248,0.67449,0.48778,0.76562,0.31373,0.078431
11.256,0.66178,0.48485,0.77539,0.34902,0.078431
11.264,0.64907,0.48094,0.76953,0.36471,0.078431
11.272,0.63636,0.47703,0.76953,0.3549,0.078431
11.28,0.62366,0.47312,0.77539,0.34902,0.084314
11.288,0.61193,0.47019,0.77539,0.31961,0.094118
11.296,0.6002,0.46725,0.77539,0.3098,0.088235
11.304,0.58944,0.46432,0.78516,0.33922,0.098039
11.312,0.57771,0.46139,0.78516,0.3451,0.10392
11.32,0.56598,0.45748,0.79492,0.33922,0.1098
11.328,0.55425,0.45455,0.78906,0.33529,0.11373
11.336,0.54252,0.45064,0.80469,0.31961,0.12353
11.344,0.52981,0.4477,0.81055,0.29412,0.12941
11.352,0.51808,0.44477,0.81055,0.30392,0.13922
11.36,0.50538,0.44282,0.81445,0.3098,0.14314
11.368,0.49365,0.44086,0.82422,0.33529,0.14314
11.376,0.48192,0.43793,0.83008,0.32941,0.14314
11.384,0.47019,0.43597,0.82031,0.31373,0.14902
11.392,0.45846,0.43402,0.82422,0.31961,0.14314
11.4,0.44673,0.43109,0.82031,0.31961,0.13922
11.408,0.43597,0.42913,0.82031,0.32353,0.12941
11.416,0.42522,0.4262,0.81445,0.32353,0.12941
11.424,0.41447,0.42229,0.81055,0.31373,0.12353
11.432,0.40371,0.41838,0.81055,0.2902,0.11373
11.44,0.39492,0.41544,0.80469,0.3098,0.1098
11.448,0.38612,0.41251,0.80469,0.32353,0.11373
11.456,0.3783,0.40958,0.80469,0.31961,0.11373
11.464,0.37146,0.4086,0.79883,0.31373,0.1098
11.472,0.36559,0.40762,0.80469,0.31373,0.11373
11.48,0.3607,0.40762,0.80469,0.31373,0.1098
11.488,0.35679,0.4086,0.79883,0.31373,0.11373
11.496,0.35386,0.41056,0.79492,0.31373,0.10392
11.504,0.35093,0.41056,0.78906,0.31373,0.10392
11.512,0.348,0.41153,0.78516,0.31373,0.10392
11.52,0.34604,0.41056,0.78516,0.31961,0.10392
11.528,0.34409,0.40762,0.78516,0.32353,0.10392
11.536,0.34213,0.40371,0.78516,0.31961,0.10392
11.544,0.34115,0.40078,0.7793,0.31961,0.10392
11.552,0.3392,0.3998,0.78516,0.31961,0.10392
11.56,0.33822,0.39883,0.78516,0.31961,0.10392
11.568,0.33724,0.39785,0.78516,0.31961,0.10392
11.576,0.33627,0.39785,0.7793,0.31373,0.1098
11.584,0.33529,0.39785,0.78516,0.31961,0.11373
11.592,0.33431,0.39785,0.78516,0.31961,0.11961
11.6,0.33529,0.39883,0.78516,0.31373,0.12353
11.608,0.33529,0.40176,0.78516,0.31373,0.12353
11.616,0.33627,0.40567,0.78516,0.32353,0.12941
11.624,0.33822,0.41056,0.78516,0.32353,0.12941
11.632,0.3392,0.41935,0.78906,0.31961,0.13333
11.64,0.34018,0.42913,0.78906,0.31373,0.14902
11.648,0.34018,0.44086,0.78906,0.31373,0.15882
11.656,0.34115,0.45552,0.78906,0.31961,0.16471
11.664,0.34115,0.47214,0.78906,0.31373,0.16863
11.672,0.34115,0.48778,0.79492,0.31373,0.16471
11.68,0.34018,0.50538,0.79883,0.31373,0.1549
11.688,0.34018,0.52199,0.79492,0.31373,0.14902
11.696,0.3392,0.53666,0.79883,0.31373,0.12941
11.704,0.33822,0.55034,0.81055,0.30392,0.12941
11.712,0.33627,0.56305,0.82031,0.3,0.12941
11.72,0.33529,0.5738,0.83008,0.29412,0.12941
11.728,0.33333,0.5826,0.83008,0.3,0.13333
11.736,0.33236,0.59042,0.81055,0.3098,0.12353
11.744,0.33138,0.59726,0.78906,0.31961,0.1098
11.752,0.3304,0.60215,0.78516,0.31961,0.10392
11.76,0.3304,0.60606,0.78516,0.32353,0.098039
11.768,0.32942,0.61095,0.7793,0.32941,0.094118
11.776,0.32845,0.61388,0.77539,0.32941,0.088235
11.784,0.32845,0.61681,0.77539,0.33529,0.094118
11.792,0.32845,0.61877,0.7793,0.32941,0.098039
11.8,0.32845,0.61877,0.77539,0.33529,0.094118
11.808,0.32845,0.61779,0.77539,0.33529,0.088235
11.816,0.32942,0.61681,0.77539,0.33529,0.088235
11.824,0.32942,0.61486,0.76562,0.33529,0.084314
11.832,0.3304,0.61095,0.73438,0.38039,0.07451
11.84,0.3304,0.60606,0.76562,0.3902,0.068627
11.848,0.3304,0.60117,1.0586,0.26471,0.32941
11.856,0.33138,0.59531,1.3633,0.068627,0.52941
11.864,0.33236,0.58847,1.3984,0.023529,0.20392
11.872,0.33333,0.58065,0.76953,0.13333,-0.11765
11.88,0.33431,0.57087,0.71484,0.23922,-0.05098
11.888,0.33627,0.56109,0.75977,0.30392,0.039216
11.896,0.33822,0.55132,0.75391,0.33922,0.068627
11.904,0.34018,0.54154,0.74414,0.3451,0.078431
11.912,0.34311,0.53275,0.74414,0.34902,0.078431
11.92,0.34604,0.5259,0.75391,0.34902,0.078431
11.928,0.34897,0.52004,0.75,0.3549,0.084314
11.936,0.35191,0.51417,0.75,0.3549,0.078431
11.944,0.35484,0.51026,0.74414,0.35882,0.084314
11.952,0.35777,0.50635,0.75391,0.35882,0.088235
11.96,0.3607,0.50147,0.75,0.35882,0.084314
11.968,0.36364,0.49756,0.75977,0.3549,0.078431
11.976,0.36657,0.49267,0.75977,0.34902,0.084314
11.984,0.36755,0.48778,0.76562,0.34902,0.078431
11.992,0.3695,0.48387,0.75977,0.3451,0.084314
12,0.3695,0.48094,0.75977,0.33922,0.094118
12.008,0.3695,0.47801,0.75977,0.33922,0.10392
12.016,0.3695,0.47605,0.75977,0.33922,0.10392
12.024,0.3695,0.47312,0.76562,0.33922,0.10392
12.032,0.36852,0.47116,0.77539,0.32941,0.1098
12.04,0.36755,0.46921,0.77539,0.32941,0.11961
12.048,0.36657,0.46725,0.78516,0.32941,0.11961
12.056,0.36559,0.4653,0.78516,0.32941,0.12353
12.064,0.36461,0.46334,0.78516,0.32353,0.12941
12.072,0.36364,0.46041,0.78516,0.32353,0.12353
12.08,0.3607,0.45552,0.79492,0.31961,0.12941
12.088,0.35875,0.44868,0.79492,0.31961,0.12941
12.096,0.35484,0.44282,0.80469,0.31961,0.13333
12.104,0.35191,0.43695,0.81055,0.31961,0.14902
12.112,0.34702,0.43304,0.81055,0.31961,0.14314
12.12,0.34311,0.43011,0.81055,0.31373,0.14902
12.128,0.3392,0.42717,0.81055,0.31373,0.12941
12.136,0.33529,0.42424,0.81055,0.31373,0.12941
12.144,0.33138,0.42326,0.80469,0.31373,0.12353
12.152,0.32845,0.42033,0.79883,0.31373,0.11373
12.16,0.32551,0.4174,0.79492,0.31373,0.10392
12.168,0.32258,0.41349,0.79492,0.31961,0.10392
12.176,0.32063,0.41153,0.78906,0.31373,0.10392
12.184,0.31867,0.41056,0.78516,0.31373,0.10392
12.192,0.31769,0.40958,0.78516,0.31373,0.10392
12.2,0.31574,0.4086,0.78516,0.31373,0.10392
12.208,0.31672,0.40762,0.78516,0.31373,0.10392
12.216,0.31769,0.40762,0.78516,0.31373,0.10392
12.224,0.32063,0.40762,0.78516,0.31373,0.10392
12.232,0.32356,0.40762,0.7793,0.31373,0.10392
12.24,0.32747,0.40762,0.77539,0.31373,0.10392
12.248,0.33138,0.4086,0.77539,0.31961,0.098039
12.256,0.33529,0.4086,0.76562,0.31961,0.098039
12.264,0.34018,0.40958,0.75977,0.32353,0.094118
12.272,0.34311,0.4086,0.76562,0.31961,0.094118
12.28,0.34702,0.40762,0.75977,0.32353,0.098039
12.288,0.34897,0.40567,0.75977,0.32941,0.10392
12.296,0.35191,0.40371,0.75977,0.32353,0.098039
12.304,0.35386,0.40078,0.75977,0.32941,0.098039
12.312,0.35582,0.39785,0.75977,0.32941,0.098039
12.32,0.35679,0.39687,0.75977,0.32941,0.10392
12.328,0.35875,0.38319,0.75977,0.32941,0.1098
12.336,0.35875,0.36461,0.75391,0.32941,0.11373
12.344,0.35973,0.35875,0.75391,0.33529,0.11373
12.352,0.3607,0.35973,0.75977,0.32941,0.11961
12.36,0.36168,0.36657,0.75977,0.32941,0.11961
12.368,0.36266,0.37928,0.75977,0.32941,0.11961
12.376,0.36461,0.39687,0.75977,0.32353,0.12941
12.384,0.36657,0.41642,0.76562,0.31961,0.14314
12.392,0.36852,0.43793,0.76953,0.32353,0.14902
12.4,0.3695,0.46041,0.76953,0.31961,0.14902
12.408,0.37048,0.48094,0.76562,0.31961,0.14902
12.416,0.37048,0.50147,0.76953,0.31961,0.14902
12.424,0.37048,0.52004,0.77539,0.31961,0.13333
12.432,0.37048,0.53666,0.77539,0.31373,0.12941
12.44,0.37146,0.54839,0.78516,0.31373,0.11373
12.448,0.37243,0.55816,0.78906,0.30392,0.1098
12.456,0.37243,0.56794,0.79883,0.30392,0.11373
12.464,0.37341,0.57869,0.80469,0.30392,0.11373
12.472,0.37341,0.5914,0.79492,0.30392,0.12353
12.48,0.37439,0.60411,0.77539,0.31961,0.10392
12.488,0.37439,0.61584,0.76562,0.31961,0.094118
12.496,0.37439,0.62561,0.75977,0.32353,0.084314
12.504,0.37439,0.63441,0.75977,0.32353,0.078431
12.512,0.37439,0.64125,0.75977,0.32941,0.078431
12.52,0.37439,0.64516,0.75977,0.32353,0.078431
12.528,0.37537,0.64516,0.76562,0.32941,0.078431
12.536,0.37634,0.64321,0.75977,0.32941,0.078431
12.544,0.3783,0.64125,0.76562,0.33529,0.078431
12.552,0.38025,0.63832,0.76562,0.32941,0.078431
12.56,0.38123,0.63539,0.76562,0.33529,0.078431
12.568,0.38221,0.63245,0.74023,0.3451,0.07451
12.576,0.38319,0.62854,0.69922,0.38039,0.052941
12.584,0.38416,0.62268,0.86523,0.33922,0.16863
12.592,0.38514,0.61486,1.2285,0.1549,0.4451
12.6,0.38612,0.60704,1.4141,0.013725,0.51569
12.608,0.3871,0.59824,1,0.0039216,-0.0019608
12.616,0.38807,0.58847,0.69922,0.17451,-0.12745
12.624,0.38905,0.57967,0.74023,0.26471,-0.015686
12.632,0.39101,0.56891,0.75977,0.31961,0.043137
12.64,0.39198,0.55914,0.75,0.33922,0.062745
12.648,0.39394,0.55034,0.74414,0.3451,0.062745
12.656,0.39492,0.53861,0.75,0.34902,0.068627
12.664,0.39687,0.52688,0.74414,0.34902,0.062745
12.672,0.39785,0.51613,0.75,0.34902,0.068627
12.68,0.3998,0.50635,0.74414,0.3549,0.062745
12.688,0.40078,0.49853,0.75391,0.34902,0.07451
12.696,0.40176,0.49071,0.75,0.3549,0.068627
12.704,0.40274,0.48387,0.75977,0.34902,0.07451
12.712,0.40274,0.47605,0.75391,0.3549,0.068627
12.72,0.40371,0.46823,0.75977,0.3549,0.068627
12.728,0.40371,0.46139,0.75391,0.3549,0.058824
12.736,0.40371,0.45748,0.75977,0.34902,0.068627
12.744,0.40371,0.45455,0.75977,0.34902,0.07451
12.752,0.40371,0.45161,0.76953,0.34902,0.078431
12.76,0.40371,0.44868,0.76562,0.34902,0.078431
12.768,0.40371,0.44477,0.7793,0.3451,0.084314
12.776,0.40371,0.44184,0.78516,0.34902,0.094118
12.784,0.40274,0.43793,0.78516,0.34902,0.094118
12.792,0.40176,0.43402,0.78906,0.33922,0.098039
12.8,0.40078,0.42815,0.79883,0.33922,0.10392
12.808,0.39883,0.42229,0.79492,0.33922,0.11373
12.816,0.39687,0.41544,0.80469,0.33922,0.11373
12.824,0.39394,0.40958,0.81055,0.33529,0.12353
12.832,0.39101,0.40469,0.82031,0.33922,0.13333
12.84,0.38807,0.40078,0.82422,0.33922,0.14902
12.848,0.38319,0.39785,0.83008,0.33529,0.14314
12.856,0.3783,0.39492,0.83008,0.32353,0.15882
12.864,0.37243,0.39198,0.83398,0.32353,0.16471
12.872,0.36657,0.38905,0.83008,0.32353,0.16863
12.88,0.36168,0.38612,0.83008,0.32353,0.1549
12.888,0.35777,0.38221,0.82422,0.32353,0.14314
12.896,0.35386,0.3783,0.83008,0.32353,0.13333
12.904,0.34995,0.37243,0.82031,0.31961,0.12941
12.912,0.34702,0.3695,0.81055,0.31961,0.12353
12.92,0.34409,0.36657,0.81445,0.31373,0.11961
12.928,0.34115,0.36461,0.81055,0.31373,0.1098
12.936,0.3392,0.36461,0.81055,0.31373,0.1098
12.944,0.33529,0.36364,0.81055,0.31961,0.094118
12.952,0.3304,0.36266,0.81055,0.32353,0.068627
12.96,0.32454,0.3607,0.79883,0.32941,0.07451
12.968,0.31965,0.35973,0.81055,0.32353,0.078431
12.976,0.31085,0.35973,0.81055,0.32353,0.094118
12.984,0.30205,0.35875,0.79883,0.32353,0.10392
12.992,0.29032,0.35777,0.79492,0.32941,0.12353
13,0.27859,0.35582,0.79492,0.33529,0.12353
13.008,0.26393,0.35484,0.78516,0.32941,0.12353
13.016,0.25024,0.35288,0.78516,0.33529,0.11961
13.024,0.2346,0.35093,0.78516,0.32941,0.12941
13.032,0.21896,0.34897,0.7793,0.33529,0.12353
13.04,0.2043,0.348,0.7793,0.32941,0.11373
13.048,0.18964,0.348,0.78516,0.32941,0.10392
13.056,0.17693,0.348,0.78516,0.32353,0.11373
13.064,0.16422,0.34702,0.78516,0.32353,0.11961
13.072,0.15347,0.348,0.7793,0.32941,0.12353
13.08,0.1437,0.34995,0.78516,0.32353,0.12941
13.088,0.13587,0.35582,0.78516,0.31961,0.13922
13.096,0.12805,0.36461,0.7793,0.31961,0.14902
13.104,0.12219,0.37732,0.78516,0.31961,0.14902
13.112,0.1173,0.39394,0.78516,0.31961,0.14902
13.12,0.11339,0.41349,0.78516,0.31373,0.16471
13.128,0.10948,0.43304,0.78906,0.31373,0.15882
13.136,0.10557,0.44966,0.78516,0.31373,0.16471
13.144,0.10166,0.4653,0.78516,0.31373,0.15882
13.152,0.096774,0.48289,0.79492,0.31373,0.1549
13.16,0.090909,0.50049,0.78906,0.31373,0.14902
13.168,0.083089,0.51906,0.79883,0.31373,0.14902
13.176,0.075269,0.53568,0.80469,0.3098,0.12941
13.184,0.065494,0.54936,0.81055,0.30392,0.11961
13.192,0.054741,0.56109,0.82422,0.3,0.12941
13.2,0.042033,0.57185,0.83008,0.3,0.12941
13.208,0.030303,0.58162,0.82422,0.3,0.14314
13.216,0.01564,0.5914,0.79883,0.31373,0.11373
13.224,0.001955,0.60117,0.7793,0.32353,0.10392
13.232,0.00097752,0.61095,0.7793,0.32941,0.098039
13.24,0,0.61877,0.78516,0.32353,0.094118
13.248,0,0.62561,0.76953,0.32941,0.098039
13.256,0,0.63343,0.76953,0.33529,0.094118
13.264,0,0.64125,0.77539,0.32941,0.094118
13.272,0,0.64614,0.77539,0.32941,0.078431
13.28,0,0.65005,0.77539,0.33529,0.078431
13.288,0,0.65005,0.7793,0.32941,0.098039
13.296,0,0.64809,0.76953,0.33529,0.098039
13.304,0,0.64321,0.74414,0.34902,0.084314
13.312,0,0.63636,0.69531,0.38039,0.062745
13.32,0,0.62854,0.84375,0.3451,0.15882
13.328,0,0.61975,1.25,0.15882,0.41961
13.336,0,0.61095,1.4785,0.0078431,0.5
13.344,0,0.60215,1.1152,-0.015686,0.013725
13.352,0,0.59238,0.73438,0.13922,-0.096078
13.36,0,0.58162,0.73047,0.24902,0.013725
13.368,0,0.56891,0.76953,0.3098,0.07451
13.376,0,0.55621,0.75391,0.33922,0.084314
13.384,0,0.5435,0.74414,0.3451,0.078431
13.392,0,0.53079,0.75,0.3549,0.094118
13.4,0,0.52004,0.75391,0.35882,0.098039
13.408,0,0.51026,0.75977,0.34902,0.11961
13.416,0,0.50244,0.75391,0.3549,0.1098
13.424,0,0.49462,0.75391,0.3549,0.1098
13.432,0,0.4868,0.75977,0.35882,0.1098
13.44,0,0.47996,0.75,0.3549,0.10392
13.448,0,0.47312,0.75977,0.3451,0.10392
13.456,0,0.4653,0.75977,0.33922,0.11373
13.464,0,0.45748,0.75391,0.3549,0.1098
13.472,0,0.45064,0.76562,0.3549,0.12353
13.48,0,0.44379,0.76953,0.35882,0.12353
13.488,0,0.43695,0.76953,0.35882,0.12941
13.496,0,0.43109,0.7793,0.3549,0.12353
13.504,0,0.42717,0.77539,0.34902,0.1098
13.512,0,0.42326,0.76953,0.3549,0.12353
13.52,0,0.42033,0.78516,0.33922,0.13922
13.528,0,0.4174,0.78516,0.33922,0.13922
13.536,0,0.41447,0.78516,0.33922,0.14902
13.544,0,0.41251,0.79883,0.3549,0.13922
13.552,0,0.41056,0.79492,0.34902,0.14902
13.56,0,0.40665,0.81055,0.3549,0.14902
13.568,0,0.40078,0.82031,0.3451,0.14902
13.576,0,0.39296,0.82031,0.34902,0.16863
13.584,0,0.38612,0.82422,0.33922,0.19412
13.592,0,0.3783,0.83008,0.33529,0.2
13.6,0,0.37243,0.83008,0.32353,0.17451
13.608,0,0.36755,0.82031,0.30392,0.17451
13.616,0,0.36364,0.81445,0.32941,0.1549
13.624,0,0.35973,0.82031,0.3451,0.1549
13.632,0,0.35582,0.81445,0.34902,0.16471
13.64,0,0.35386,0.81055,0.33922,0.14314
13.648,0,0.35191,0.81445,0.32941,0.13333
13.656,0,0.348,0.81055,0.32353,0.14902
13.664,0,0.34506,0.81055,0.32941,0.14314
13.672,0,0.34311,0.79883,0.32353,0.13922
13.68,0,0.34115,0.79883,0.32941,0.14902
13.688,0,0.33822,0.81055,0.31373,0.1549
13.696,0,0.33529,0.80469,0.31373,0.14314
13.704,0,0.33236,0.81055,0.3,0.13922
13.712,0,0.32845,0.79883,0.3098,0.12941
13.72,0,0.32356,0.80469,0.32941,0.12353
13.728,0,0.31867,0.79883,0.32353,0.13333
13.736,0,0.31672,0.78906,0.32941,0.14902
13.744,0,0.31574,0.79492,0.33529,0.14314
13.752,0,0.31574,0.78516,0.33922,0.13333
13.76,0,0.31476,0.7793,0.33922,0.12941
13.768,0,0.31281,0.78516,0.32353,0.14314
13.776,0,0.30987,0.78516,0.32941,0.14902
13.784,0,0.30792,0.78516,0.32941,0.14314
13.792,0,0.30694,0.7793,0.33529,0.12941
13.8,0,0.30792,0.77539,0.32941,0.14902
13.808,0,0.30987,0.78516,0.33529,0.13922
13.816,0,0.31574,0.76953,0.31373,0.1549
13.824,0,0.32649,0.7793,0.32353,0.16471
13.832,0,0.34115,0.78906,0.33529,0.1549
13.84,0,0.35679,0.78516,0.33922,0.16471
13.848,0,0.37243,0.78516,0.32941,0.14902
13.856,0,0.39198,0.79492,0.32353,0.17451
13.864,0,0.41251,0.78906,0.32941,0.17843
13.872,0,0.43402,0.78906,0.32353,0.16863
13.88,0,0.45552,0.78906,0.32353,0.18431
13.888,0,0.47801,0.78516,0.31961,0.17451
13.896,0,0.50049,0.79883,0.32353,0.17451
13.904,0,0.52199,0.80469,0.31373,0.16471
13.912,0,0.54154,0.79492,0.31961,0.16471
13.92,0,0.55914,0.81055,0.29412,0.1549
13.928,0,0.57478,0.82422,0.29412,0.14314
13.936,0,0.58651,0.83398,0.31373,0.14902
13.944,0,0.59531,0.82422,0.32941,0.1549
13.952,0,0.60508,0.81055,0.32353,0.15882
13.96,0,0.61388,0.78516,0.33529,0.12353
13.968,0,0.62268,0.7793,0.32941,0.10392
13.976,0,0.62952,0.77539,0.33922,0.10392
13.984,0,0.63636,0.7793,0.32941,0.094118
13.992,0,0.64027,0.7793,0.32941,0.094118
14,0,0.64418,0.76562,0.33922,0.094118
14.008,0,0.64712,0.75977,0.32941,0.098039
14.016,0,0.64809,0.76953,0.31961,0.088235
14.024,0,0.64614,0.7793,0.31373,0.098039
14.032,0,0.64418,0.77539,0.33922,0.10392
14.04,0,0.64125,0.78516,0.33529,0.10392
14.048,0,0.63832,0.70898,0.35882,0.10392
14.056,0,0.63441,0.68945,0.37451,0.084314
14.064,0,0.62757,1.0039,0.29412,0.2549
14.072,0,0.61877,1.4043,0.098039,0.46471
14.08,0,0.60997,1.498,-0.011765,0.23333
14.088,0,0.6002,0.89453,0.029412,-0.072549
14.096,0,0.58944,0.75,0.16863,-0.0058823
14.104,0,0.57967,0.77539,0.27451,0.084314
14.112,0,0.57087,0.75391,0.32353,0.094118
14.12,0,0.56403,0.74023,0.33922,0.098039
14.128,0,0.55718,0.73438,0.34902,0.098039
14.136,0,0.55132,0.74023,0.31373,0.088235
14.144,0,0.54545,0.73438,0.34902,0.084314
14.152,0,0.53959,0.74023,0.35882,0.098039
14.16,0,0.53372,0.74414,0.36471,0.10392
14.168,0,0.52884,0.75,0.36471,0.088235
14.176,0,0.52395,0.75,0.3549,0.094118
14.184,0,0.52102,0.75391,0.34902,0.10392
14.192,0,0.51711,0.75,0.34902,0.11373
14.2,0,0.51417,0.75391,0.3451,0.1098
14.208,0,0.51026,0.75,0.34902,0.10392
14.216,0,0.5044,0.75977,0.3451,0.10392
14.224,0,0.49951,0.76562,0.33922,0.10392
14.232,0,0.49365,0.76953,0.33922,0.1098
14.24,0,0.48778,0.77539,0.33922,0.10392
14.248,0,0.48289,0.7793,0.33922,0.10392
14.256,0,0.47801,0.77539,0.32941,0.1098
14.264,0,0.47312,0.7793,0.33529,0.10392
14.272,0,0.46921,0.78516,0.32941,0.11961
14.28,0,0.46628,0.78516,0.32941,0.12941
14.288,0,0.46334,0.78516,0.33529,0.11961
14.296,0,0.46139,0.79492,0.32941,0.12941
14.304,0,0.46041,0.79883,0.32941,0.13333
14.312,0,0.45943,0.81055,0.32353,0.12941
14.32,0,0.4565,0.81055,0.32941,0.13922
14.328,0,0.45455,0.80469,0.32353,0.13333
14.336,0,0.45357,0.81055,0.31961,0.14314
14.344,0,0.45357,0.80469,0.31961,0.14902
14.352,0,0.45357,0.79492,0.32353,0.13333
14.36,0,0.45259,0.79883,0.31961,0.12941
14.368,0,0.45064,0.79492,0.31961,0.12353
14.376,0,0.45552,0.78516,0.31373,0.1098
14.384,0,0.46334,0.7793,0.31961,0.094118
14.392,0,0.46628,0.77539,0.31373,0.084314
14.4,0,0.46628,0.78906,0.30392,0.088235
14.408,0,0.46628,0.78516,0.29412,0.094118
14.416,0,0.46628,0.78516,0.28431,0.10392
14.424,0,0.46725,0.81055,0.28431,0.098039
14.432,0.022483,0.46628,0.83008,0.2902,0.084314
14.44,0.044966,0.4653,0.81445,0.3,0.10392
14.448,0.083089,0.46432,0.78516,0.3,0.078431
14.456,0.12219,0.46237,0.76562,0.30392,0.098039
14.464,0.16813,0.46041,0.75977,0.3098,0.084314
14.472,0.21408,0.45748,0.74414,0.30392,0.058824
14.48,0.26784,0.45455,0.74023,0.30392,0.07451
14.488,0.3216,0.45161,0.74414,0.3098,0.094118
14.496,0.38319,0.44966,0.73438,0.3098,0.084314
14.504,0.44477,0.44868,0.74023,0.30392,0.07451
14.512,0.51417,0.4477,0.73438,0.3098,0.068627
14.52,0.58358,0.44868,0.73438,0.31373,0.078431
14.528,0.65591,0.45064,0.73047,0.31373,0.068627
14.536,0.72825,0.45259,0.72461,0.3098,0.084314
14.544,0.78788,0.4565,0.73047,0.31373,0.078431
14.552,0.84751,0.46432,0.73438,0.31373,0.088235
14.56,0.89443,0.47507,0.72461,0.32941,0.078431
14.568,0.94135,0.48778,0.7793,0.33922,0.12941
14.576,0.97067,0.50244,1.0938,0.2098,0.34902
14.584,1,0.51906,1.3984,0.013725,0.47059
14.592,1,0.53861,1.209,-0.031373,0.094118
14.6,1,0.55816,0.67969,0.068627,-0.13725
14.608,1,0.57869,0.64062,0.19412,-0.031373
14.616,1,0.59824,0.72461,0.27843,0.043137
14.624,1,0.61779,0.73047,0.32353,0.068627
14.632,1,0.63441,0.7207,0.32941,0.07451
14.64,1,0.65005,0.71484,0.33922,0.058824
14.648,1,0.66569,0.7207,0.33922,0.039216
14.656,1,0.68035,0.7207,0.33922,0.04902
14.664,1,0.69404,0.72461,0.34902,0.078431
14.672,1,0.70577,0.7207,0.3451,0.04902
14.68,1,0.71652,0.73047,0.3451,0.033333
14.688,1,0.72336,0.7207,0.33922,0.052941
14.696,1,0.72825,0.73047,0.3451,0.039216
14.704,1,0.73021,0.73438,0.33922,0.033333
14.712,1,0.72923,0.73047,0.3451,0.07451
14.72,1,0.7263,0.75,0.3451,0.062745
14.728,1,0.72239,0.73438,0.3451,0.052941
14.736,1,0.7175,0.73438,0.33922,0.07451
14.744,1,0.71065,0.74414,0.3451,0.062745
14.752,1,0.70186,0.74414,0.34902,0.058824
14.76,1,0.69208,0.75391,0.33922,0.068627
14.768,1,0.68133,0.75391,0.33922,0.062745
14.776,1,0.67058,0.76562,0.33922,0.084314
14.784,1,0.6608,0.76562,0.33529,0.094118
14.792,1,0.652,0.77539,0.33529,0.07451
14.8,1,0.64321,0.78516,0.33922,0.098039
14.808,1,0.63245,0.78516,0.32941,0.10392
14.816,1,0.61975,0.78516,0.32941,0.094118
14.824,1,0.60606,0.80469,0.31961,0.12353
14.832,1,0.59335,0.79883,0.32353,0.098039
14.84,1,0.58162,0.78906,0.31373,0.07451
14.848,1,0.56989,0.80469,0.31373,0.11373
14.856,1,0.55816,0.79883,0.31961,0.12353
14.864,1,0.54643,0.81055,0.31373,0.078431
14.872,1,0.53568,0.79883,0.3098,0.098039
14.88,1,0.52688,0.79492,0.30392,0.094118
14.888,1,0.51906,0.78516,0.3098,0.1098
14.896,1,0.5132,0.78516,0.31373,0.078431
14.904,1,0.50733,0.78906,0.30392,0.07451
14.912,1,0.50147,0.7793,0.3098,0.098039
14.92,1,0.49658,0.78516,0.31373,0.10392
14.928,1,0.49169,0.76562,0.3098,0.078431
14.936,1,0.48778,0.76953,0.31373,0.062745
14.944,1,0.48583,0.75,0.31961,0.068627
14.952,1,0.48289,0.75391,0.31373,0.078431
14.96,1,0.47996,0.75977,0.31373,0.058824
14.968,1,0.47703,0.75,0.31961,0.078431
14.976,1,0.47507,0.75391,0.32353,0.084314
14.984,1,0.4741,0.74023,0.31961,0.062745
14.992,1,0.47312,0.74023,0.32941,0.062745
15,1,0.47214,0.73438,0.32353,0.052941
15.008,1,0.47116,0.74414,0.32941,0.078431
15.016,1,0.47116,0.75977,0.32353,0.078431
15.024,1,0.47019,0.75,0.32353,0.07451
15.032,1,0.47116,0.75391,0.31961,0.094118
15.04,1,0.47214,0.75977,0.31961,0.1098
15.048,1,0.47214,0.75977,0.32353,0.084314
15.056,1,0.47312,0.75391,0.32353,0.078431
15.064,1,0.47214,0.75,0.32941,0.094118
15.072,1,0.47019,0.75977,0.31961,0.078431
15.08,1,0.46921,0.75977,0.32353,0.084314
15.088,1,0.46725,0.75977,0.31373,0.088235
15.096,1,0.46725,0.75391,0.31961,0.084314
15.104,1,0.46823,0.75,0.33529,0.088235
15.112,1,0.47019,0.76953,0.31961,0.11961
15.12,1,0.47312,0.76562,0.32353,0.084314
15.128,1,0.47996,0.76953,0.31961,0.062745
15.136,1,0.48583,0.75977,0.31961,0.068627
15.144,1,0.49267,0.76562,0.31373,0.07451
15.152,1,0.49853,0.75977,0.32353,0.088235
15.16,1,0.50538,0.7793,0.31373,0.10392
15.168,1,0.51124,0.78516,0.31373,0.084314
15.176,1,0.51711,0.76562,0.31373,0.078431
15.184,1,0.52297,0.75977,0.31961,0.068627
15.192,1,0.52688,0.75977,0.31373,0.078431
15.2,1,0.53079,0.76562,0.32353,0.084314
15.208,1,0.53275,0.75977,0.31373,0.078431
15.216,1,0.53372,0.76562,0.31373,0.098039
15.224,1,0.5347,0.76562,0.31961,0.084314
15.232,1,0.53372,0.77539,0.32353,0.10392
15.24,1,0.53177,0.77539,0.31961,0.068627
15.248,1,0.52786,0.76953,0.31961,0.088235
15.256,1,0.52102,0.7793,0.32353,0.10392
15.264,1,0.51222,0.77539,0.31373,0.11373
15.272,1,0.50244,0.78516,0.31373,0.11961
15.28,1,0.49267,0.77539,0.31373,0.11373
15.288,1,0.48387,0.77539,0.31961,0.13922
15.296,1,0.47605,0.78906,0.31373,0.13333
15.304,1,0.46921,0.79492,0.31961,0.12941
15.312,1,0.46237,0.78516,0.31961,0.098039
15.32,1,0.45748,0.79883,0.31373,0.088235
15.328,1,0.45357,0.80469,0.31373,0.098039
15.336,1,0.45064,0.81055,0.3098,0.10392
15.344,1,0.44868,0.81055,0.31373,0.10392
15.352,1,0.44575,0.79883,0.31373,0.1098
15.36,1,0.44379,0.7793,0.32941,0.098039
15.368,1,0.44086,0.78516,0.32941,0.094118
15.376,1,0.43891,0.77539,0.33922,0.088235
15.384,1,0.43695,0.76953,0.33529,0.084314
15.392,1,0.435,0.76562,0.33922,0.088235
15.4,1,0.43206,0.77539,0.33922,0.094118
15.408,1,0.43011,0.77539,0.33529,0.084314
15.416,1,0.42815,0.77539,0.33922,0.088235
15.424,1,0.42717,0.7793,0.32941,0.094118
15.432,1,0.42815,0.76562,0.33922,0.088235
15.44,1,0.43011,0.73047,0.36471,0.07451
15.448,1,0.43304,0.72461,0.38039,0.068627
15.456,1,0.435,1.0098,0.27843,0.32353
15.464,1,0.435,1.3047,0.07451,0.58431
15.472,1,0.43402,1.3535,0.0039216,0.38039
15.48,1,0.43109,0.73047,0.12353,0.0078431
15.488,1,0.42717,0.66016,0.22941,-0.037255
15.496,1,0.42229,0.75391,0.3,0.052941
15.504,1,0.4174,0.76562,0.32941,0.078431
15.512,1,0.41349,0.75977,0.33529,0.078431
15.52,1,0.41056,0.76562,0.33922,0.084314
15.528,1,0.40665,0.76562,0.33922,0.078431
15.536,1,0.40371,0.76953,0.33922,0.088235
15.544,1,0.40078,0.76562,0.34902,0.084314
15.552,1,0.39883,0.76562,0.34902,0.088235
15.56,1,0.39785,0.76953,0.34902,0.084314
15.568,1,0.39785,0.76953,0.34902,0.084314
15.576,1,0.39883,0.76953,0.3549,0.088235
15.584,1,0.39785,0.77539,0.3451,0.088235
15.592,1,0.39785,0.7793,0.3451,0.098039
15.6,1,0.39687,0.78516,0.33922,0.10392
15.608,1,0.39687,0.78516,0.33922,0.1098
15.616,1,0.39589,0.78516,0.33922,0.1098
15.624,1,0.39296,0.78516,0.33922,0.11373
15.632,0.99707,0.39101,0.78906,0.33922,0.11961
15.64,0.99413,0.39101,0.79492,0.33922,0.12353
15.648,0.97556,0.39101,0.79883,0.33529,0.11961
15.656,0.95699,0.39101,0.79492,0.33529,0.11961
15.664,0.93548,0.39101,0.80469,0.32941,0.12941
15.672,0.91496,0.39101,0.80469,0.32941,0.12941
15.68,0.8915,0.39101,0.81445,0.32353,0.13922
15.688,0.86901,0.39101,0.81445,0.31961,0.13922
15.696,0.83969,0.39101,0.82031,0.32353,0.14902
15.704,0.81134,0.39101,0.81445,0.32353,0.13922
15.712,0.77908,0.39101,0.82031,0.32941,0.13922
15.72,0.74585,0.39296,0.82031,0.31961,0.14902
15.728,0.71065,0.39589,0.82422,0.31373,0.14902
15.736,0.67644,0.39785,0.82031,0.31961,0.14314
15.744,0.64027,0.39883,0.82031,0.31961,0.13922
15.752,0.60411,0.3998,0.82031,0.31373,0.13333
15.76,0.56891,0.3998,0.82031,0.31373,0.12353
15.768,0.53372,0.39883,0.82031,0.3098,0.11961
15.776,0.49951,0.39785,0.81445,0.30392,0.11373
15.784,0.46628,0.39785,0.81445,0.3,0.1098
15.792,0.43597,0.39785,0.81055,0.3,0.1098
15.8,0.40567,0.39687,0.81445,0.29412,0.11373
15.808,0.3783,0.39687,0.81055,0.2902,0.11373
15.816,0.35191,0.39687,0.81445,0.29412,0.11961
15.824,0.32942,0.39687,0.81445,0.29412,0.11373
15.832,0.30792,0.39785,0.81445,0.3,0.1098
15.84,0.28935,0.39883,0.81055,0.30392,0.11961
15.848,0.27175,0.3998,0.81055,0.30392,0.11373
15.856,0.25709,0.39883,0.80469,0.30392,0.11961
15.864,0.2434,0.39785,0.79883,0.3098,0.1098
15.872,0.23167,0.39785,0.78906,0.3098,0.11373
15.88,0.22092,0.39687,0.78906,0.31373,0.1098
15.888,0.21212,0.39687,0.78516,0.3098,0.11961
15.896,0.2043,0.39687,0.78516,0.31373,0.11373
15.904,0.19746,0.39687,0.78516,0.31373,0.11373
15.912,0.19062,0.39687,0.78516,0.31373,0.12353
15.92,0.18475,0.39687,0.78516,0.31373,0.12941
15.928,0.17986,0.39785,0.78516,0.31373,0.12941
15.936,0.17595,0.3998,0.79492,0.31373,0.13333
15.944,0.17107,0.40371,0.78906,0.31373,0.13333
15.952,0.16813,0.41056,0.79883,0.31373,0.13922
15.96,0.16422,0.42131,0.79492,0.31961,0.13922
15.968,0.16129,0.435,0.79492,0.31373,0.13922
15.976,0.15934,0.45259,0.79883,0.32353,0.13922
15.984,0.1564,0.46921,0.79883,0.31961,0.13922
15.992,0.15347,0.4868,0.79492,0.32941,0.14902
16,0.15054,0.5044,0.78516,0.32941,0.14902
16.008,0.14761,0.52297,0.78516,0.32941,0.14902
16.016,0.1437,0.54154,0.78516,0.32941,0.14902
16.024,0.14076,0.56012,0.78906,0.32941,0.1549
16.032,0.13685,0.57576,0.79492,0.32353,0.17451
16.04,0.13294,0.58847,0.79883,0.32353,0.17451
16.048,0.12903,0.60215,0.78906,0.32941,0.16471
16.056,0.12414,0.61779,0.78906,0.32941,0.16863
16.064,0.11926,0.63148,0.79883,0.32941,0.16471
16.072,0.11339,0.64516,0.79492,0.33529,0.14902
16.08,0.10655,0.65787,0.79883,0.32941,0.12941
16.088,0.10068,0.66862,0.81055,0.32353,0.12941
16.096,0.092864,0.67644,0.82031,0.31373,0.12941
16.104,0.085044,0.68133,0.83008,0.31373,0.13333
16.112,0.077224,0.68426,0.82422,0.31373,0.14902
16.12,0.069404,0.68426,0.80469,0.32353,0.13333
16.128,0.061584,0.68133,0.78516,0.33922,0.11961
16.136,0.053763,0.67742,0.77539,0.3451,0.10392
16.144,0.047898,0.67253,0.77539,0.3451,0.094118
16.152,0.041056,0.66667,0.76953,0.33922,0.088235
16.16,0.036168,0.66178,0.77539,0.33922,0.094118
16.168,0.031281,0.65494,0.7793,0.33922,0.088235
16.176,0.028348,0.64809,0.7793,0.33922,0.094118
16.184,0.025415,0.64027,0.7793,0.33922,0.098039
16.192,0.024438,0.63148,0.7793,0.33922,0.098039
16.2,0.022483,0.62366,0.78516,0.33922,0.10392
16.208,0.022483,0.61486,0.75391,0.33922,0.098039
16.216,0.021505,0.60704,0.70898,0.37451,0.078431
16.224,0.021505,0.59824,0.83984,0.38039,0.17843
16.232,0.021505,0.59042,1.209,0.17843,0.43922
16.24,0.021505,0.58358,1.4395,0.017647,0.52941
16.248,0.021505,0.57478,1.0938,0.0039216,0.062745
16.256,0.021505,0.56598,0.7207,0.1549,-0.11176
16.264,0.022483,0.55621,0.74023,0.2549,-0.011765
16.272,0.022483,0.54741,0.76562,0.31373,0.058824
16.28,0.02346,0.53861,0.75977,0.33922,0.084314
16.288,0.024438,0.53079,0.75391,0.3451,0.084314
16.296,0.025415,0.52297,0.75977,0.3451,0.078431
16.304,0.026393,0.51613,0.75391,0.3549,0.078431
16.312,0.028348,0.51026,0.75391,0.35882,0.078431
16.32,0.029326,0.5044,0.75,0.35882,0.084314
16.328,0.031281,0.49951,0.75391,0.35882,0.094118
16.336,0.032258,0.49462,0.75391,0.35882,0.078431
16.344,0.033236,0.48974,0.75391,0.36471,0.078431
16.352,0.034213,0.4868,0.75977,0.35882,0.094118
16.36,0.035191,0.48289,0.75977,0.35882,0.094118
16.368,0.035191,0.47703,0.75391,0.35882,0.088235
16.376,0.035191,0.47116,0.75391,0.3549,0.084314
16.384,0.035191,0.46725,0.75977,0.35882,0.088235
16.392,0.034213,0.46432,0.75977,0.3549,0.10392
16.4,0.034213,0.46041,0.76953,0.34902,0.10392
16.408,0.034213,0.45846,0.76953,0.34902,0.10392
16.416,0.035191,0.4565,0.7793,0.3451,0.1098
16.424,0.035191,0.44379,0.78516,0.3451,0.11373
16.432,0.035191,0.42717,0.78516,0.3451,0.10392
16.44,0.035191,0.41838,0.79492,0.33922,0.1098
16.448,0.034213,0.41251,0.79883,0.33922,0.11961
16.456,0.033236,0.4086,0.80469,0.33922,0.12941
16.464,0.030303,0.40469,0.79883,0.33922,0.13922
16.472,0.026393,0.40078,0.79883,0.33922,0.14314
16.48,0.021505,0.39589,0.80469,0.33922,0.14314
16.488,0.01564,0.39101,0.81445,0.33529,0.14902
16.496,0.0087977,0.38612,0.81445,0.32941,0.14902
16.504,0.001955,0.38123,0.81445,0.32941,0.14902
16.512,0.00097752,0.37732,0.81055,0.32941,0.13922
16.52,0,0.37341,0.79883,0.33529,0.12941
16.528,0,0.37146,0.81055,0.32941,0.1098
16.536,0,0.3695,0.81055,0.31961,0.094118
16.544,0,0.36755,0.80469,0.3098,0.084314
16.552,0,0.36657,0.82031,0.29412,0.1098
16.56,0,0.36657,0.84961,0.29412,0.12353
16.568,0,0.36657,0.83398,0.31373,0.12941
16.576,0,0.36657,0.81055,0.31961,0.11961
16.584,0,0.36657,0.79492,0.31373,0.11961
16.592,0,0.36657,0.78906,0.31373,0.11961
16.6,0,0.36657,0.78516,0.31961,0.10392
16.608,0,0.36657,0.78516,0.31373,0.10392
16.616,0,0.36657,0.78516,0.31961,0.1098
16.624,0,0.36657,0.77539,0.32353,0.1098
16.632,0,0.36657,0.77539,0.32941,0.1098
16.64,0,0.36657,0.76562,0.32941,0.10392
16.648,0,0.36559,0.76953,0.32941,0.10392
16.656,0,0.36364,0.75977,0.32353,0.1098
16.664,0,0.3607,0.76562,0.33529,0.1098
16.672,0,0.35777,0.76953,0.33529,0.11373
16.68,0,0.35582,0.76953,0.33529,0.12353
16.688,0,0.35582,0.76953,0.33529,0.12941
16.696,0,0.35582,0.76953,0.33529,0.12941
16.704,0,0.35777,0.75977,0.33922,0.12941
16.712,0,0.3607,0.75,0.3549,0.16471
16.72,0,0.36559,1.0645,0.26471,0.34902
16.728,0,0.37048,1.4297,0.07451,0.51961
16.736,0,0.37537,1.5,-0.0058823,0.2098
16.744,0,0.38319,0.94922,0.052941,-0.060784
16.752,0,0.39296,0.7793,0.16863,0.023529
16.76,0,0.40469,0.76953,0.26863,0.098039
16.768,0,0.4174,0.75,0.32941,0.11961
16.776,0,0.43206,0.74023,0.33922,0.12941
16.784,0,0.4477,0.74414,0.34902,0.11373
16.792,0,0.46334,0.73047,0.35882,0.10392
16.8,0,0.47898,0.73438,0.35882,0.10392
16.808,0,0.49365,0.72461,0.35882,0.1098
16.816,0,0.50635,0.73047,0.35882,0.1098
16.824,0,0.51613,0.73047,0.35882,0.10392
16.832,0,0.52395,0.73438,0.3549,0.098039
16.84,0,0.52981,0.73047,0.35882,0.088235
16.848,0,0.53568,0.73438,0.3549,0.10392
16.856,0,0.54252,0.74023,0.3549,0.098039
16.864,0,0.54936,0.74023,0.34902,0.094118
16.872,0,0.55523,0.74414,0.34902,0.10392
16.88,0,0.55914,0.75,0.34902,0.10392
16.888,0,0.56207,0.75,0.34902,0.1098
16.896,0,0.565,0.75391,0.3549,0.10392
16.904,0,0.56598,0.75977,0.3451,0.1098
16.912,0,0.56598,0.75977,0.3451,0.11373
16.92,0,0.56598,0.76562,0.3451,0.11961
16.928,0,0.565,0.76953,0.33922,0.11961
16.936,0,0.56305,0.78516,0.33922,0.13333
16.944,0,0.56012,0.78516,0.33922,0.13333
16.952,0,0.55621,0.79492,0.33922,0.14314
16.96,0,0.55034,0.80469,0.33922,0.14902
16.968,0,0.54448,0.81055,0.33529,0.16863
16.976,0,0.53666,0.81445,0.32941,0.15882
16.984,0,0.52688,0.82031,0.32941,0.14902
16.992,0,0.51906,0.81445,0.32941,0.1549
17,0,0.51026,0.82422,0.32353,0.16471
17.008,0,0.50244,0.82422,0.32353,0.1549
17.016,0,0.49658,0.83008,0.31961,0.1549
17.024,0,0.48974,0.81445,0.31961,0.15882
17.032,0,0.48387,0.81055,0.32353,0.14902
17.04,0,0.47801,0.81055,0.31961,0.14314
17.048,0,0.47312,0.81055,0.31961,0.14314
17.056,0,0.46725,0.81055,0.31961,0.13922
17.064,0,0.46139,0.80469,0.31961,0.13333
17.072,0,0.45455,0.79492,0.31373,0.14314
17.08,0,0.44966,0.78516,0.31961,0.12353
17.088,0,0.44477,0.7793,0.32353,0.11373
17.096,0,0.44086,0.76953,0.32353,0.1098
17.104,0,0.43695,0.76562,0.31961,0.1098
17.112,0,0.43402,0.75977,0.32941,0.11373
17.12,0,0.43109,0.75977,0.32941,0.11373
17.128,0,0.42815,0.75391,0.33529,0.10392
17.136,0,0.4262,0.75977,0.32941,0.10392
17.144,0,0.42326,0.75977,0.33922,0.11961
17.152,0,0.42033,0.76562,0.32941,0.11961
17.16,0,0.41642,0.75977,0.33529,0.11961
17.168,0,0.41447,0.76953,0.32353,0.12353
17.176,0,0.41153,0.76562,0.32353,0.12353
17.184,0,0.4086,0.76562,0.32353,0.12941
17.192,0,0.40665,0.76562,0.32941,0.12353
17.2,0,0.40469,0.77539,0.32353,0.11373
17.208,0,0.40176,0.77539,0.32941,0.11961
17.216,0,0.3998,0.76953,0.33922,0.11961
17.224,0,0.39785,0.77539,0.31961,0.12353
17.232,0,0.39589,0.76953,0.31961,0.11373
17.24,0,0.39394,0.76953,0.31961,0.10392
17.248,0,0.39394,0.76562,0.32941,0.098039
17.256,0,0.39394,0.75977,0.32941,0.098039
17.264,0,0.39687,0.75977,0.32353,0.10392
17.272,0,0.40176,0.76562,0.31961,0.10392
17.28,0,0.40762,0.76953,0.31961,0.098039
17.288,0,0.41447,0.75977,0.32353,0.094118
17.296,0,0.42033,0.76562,0.31961,0.098039
17.304,0,0.42717,0.76562,0.31961,0.094118
17.312,0,0.43402,0.75977,0.32353,0.088235
17.32,0,0.43793,0.75977,0.32353,0.098039
17.328,0,0.43988,0.75977,0.31961,0.10392
17.336,0,0.44086,0.75977,0.32941,0.094118
17.344,0,0.44184,0.76562,0.32353,0.088235
17.352,0,0.44184,0.76953,0.32353,0.094118
17.36,0,0.44184,0.76562,0.32353,0.098039
17.368,0,0.44184,0.7793,0.31961,0.10392
17.376,0,0.44086,0.76953,0.32353,0.098039
17.384,0,0.43891,0.76953,0.32353,0.10392
17.392,0,0.43695,0.76562,0.32941,0.10392
17.4,0,0.43402,0.77539,0.32353,0.10392
17.408,0,0.42913,0.77539,0.31961,0.12353
17.416,0,0.42424,0.7793,0.32353,0.13922
17.424,0,0.41935,0.77539,0.31961,0.14902
17.432,0,0.41642,0.7793,0.31961,0.14902
17.44,0,0.41349,0.78516,0.31961,0.1549
17.448,0,0.4086,0.78516,0.32353,0.12353
17.456,0,0.40371,0.78516,0.31373,0.12353
17.464,0,0.39883,0.79492,0.31373,0.12353
17.472,0,0.39394,0.81055,0.3098,0.11961
17.48,0,0.39003,0.81445,0.3098,0.11373
17.488,0,0.3871,0.82031,0.31373,0.12941
17.496,0,0.38416,0.79883,0.31373,0.11961
17.504,0,0.38221,0.77539,0.31373,0.10392
17.512,0,0.38025,0.75977,0.32353,0.088235
17.52,0,0.37928,0.75977,0.32941,0.078431
17.528,0,0.3783,0.75977,0.33529,0.078431
17.536,0,0.37732,0.75977,0.32941,0.078431
17.544,0,0.37634,0.75977,0.33529,0.078431
17.552,0,0.37439,0.75977,0.32941,0.088235
17.56,0,0.37146,0.75977,0.33922,0.084314
17.568,0,0.36852,0.75977,0.33922,0.094118
17.576,0,0.36657,0.75,0.33922,0.10392
17.584,0,0.36461,0.69922,0.37059,0.094118
17.592,0,0.36266,0.67969,0.38431,0.11373
17.6,0,0.36266,1.0645,0.27451,0.30392
17.608,0,0.36168,1.459,0.058824,0.48039
17.616,0,0.36168,1.5,-0.027451,0.2
17.624,0,0.36266,0.83008,0.04902,-0.11176
17.632,0,0.36364,0.73047,0.17843,-0.05098
17.64,0,0.36461,0.75977,0.26863,0.033333
17.648,0,0.36559,0.75,0.31961,0.068627
17.656,0,0.36559,0.73438,0.33922,0.062745
17.664,0,0.36657,0.73047,0.33922,0.078431
17.672,0,0.36657,0.73438,0.34902,0.078431
17.68,0,0.36657,0.73438,0.35882,0.078431
17.688,0,0.36657,0.73438,0.3549,0.088235
17.696,0,0.36657,0.73438,0.35882,0.07451
17.704,0,0.36657,0.74023,0.34902,0.078431
17.712,0,0.36657,0.73438,0.3549,0.078431
17.72,0,0.36657,0.74023,0.35882,0.078431
17.728,0,0.36657,0.73438,0.3549,0.078431
17.736,0,0.36657,0.74414,0.3549,0.078431
17.744,0,0.36559,0.74414,0.3549,0.088235
17.752,0,0.36461,0.75,0.34902,0.094118
17.76,0,0.36461,0.74023,0.3549,0.088235
17.768,0,0.36364,0.75,0.3451,0.088235
17.776,0,0.36364,0.75391,0.33922,0.094118
17.784,0,0.36364,0.75977,0.34902,0.098039
17.792,0,0.36364,0.75977,0.3451,0.10392
17.8,0,0.36364,0.76953,0.33922,0.1098
17.808,0,0.36364,0.76562,0.33922,0.11961
17.816,0,0.36364,0.7793,0.33529,0.11961
17.824,0,0.36364,0.7793,0.33529,0.12941
17.832,0,0.36461,0.78516,0.33922,0.12941
17.84,0,0.36559,0.78516,0.33922,0.12941
17.848,0,0.36559,0.78516,0.33529,0.13333
17.856,0,0.36657,0.78516,0.33922,0.13922
17.864,0,0.36657,0.79492,0.33529,0.13922
17.872,0,0.36657,0.78906,0.32941,0.14314
17.88,0,0.36657,0.79492,0.32941,0.13333
17.888,0,0.36657,0.79883,0.32941,0.12941
17.896,0,0.36657,0.78906,0.32353,0.11961
17.904,0,0.36657,0.78906,0.32941,0.11373
17.912,0,0.36657,0.78516,0.32353,0.11373
17.92,0,0.36657,0.78906,0.31961,0.10392
17.928,0,0.36657,0.78516,0.31961,0.098039
17.936,0,0.36657,0.78516,0.31961,0.1098
17.944,0,0.36657,0.79492,0.32353,0.1098
17.952,0,0.36657,0.78906,0.31961,0.10392
17.96,0,0.36657,0.79492,0.31373,0.1098
17.968,0,0.36657,0.80469,0.31373,0.10392
17.976,0,0.36657,0.81055,0.31373,0.11961
17.984,0,0.36657,0.81055,0.31373,0.1098
17.992,0,0.36657,0.80469,0.31373,0.1098
18,0,0.36657,0.79883,0.3098,0.11961
18.008,0,0.36657,0.79883,0.31373,0.098039
18.016,0,0.36657,0.78516,0.31373,0.094118
18.024,0,0.36657,0.78516,0.3098,0.11373
18.032,0,0.36657,0.78516,0.31373,0.12353
18.04,0,0.36657,0.7793,0.31373,0.12941
18.048,0,0.36657,0.77539,0.31961,0.13333
18.056,0,0.36657,0.77539,0.31373,0.13922
18.064,0,0.36657,0.7793,0.31373,0.12941
18.072,0,0.36852,0.7793,0.31373,0.12941
18.08,0,0.37146,0.77539,0.31373,0.12353
18.088,0,0.37732,0.76953,0.31961,0.12941
18.096,0,0.38514,0.76562,0.31961,0.12941
18.104,0,0.39589,0.76953,0.31961,0.13922
18.112,0,0.40958,0.76953,0.31961,0.12941
18.12,0,0.4262,0.7793,0.32353,0.13922
18.128,0,0.44086,0.77539,0.32941,0.14314
18.136,0,0.45552,0.76953,0.31961,0.13922
18.144,0,0.47312,0.77539,0.31961,0.14902
18.152,0,0.49071,0.77539,0.32353,0.13922
18.16,0,0.50733,0.77539,0.32941,0.14902
18.168,0,0.52297,0.77539,0.31961,0.14902
18.176,0,0.53568,0.76953,0.31961,0.14902
18.184,0,0.54839,0.76953,0.31961,0.1549
18.192,0,0.56012,0.7793,0.31961,0.16471
18.2,0,0.57185,0.78516,0.32353,0.16863
18.208,0,0.58162,0.78516,0.32941,0.14902
18.216,0,0.5914,0.78516,0.31961,0.13333
18.224,0,0.59922,0.79492,0.31373,0.13333
18.232,0,0.60508,0.81445,0.31961,0.13922
18.24,0.00097752,0.60997,0.82031,0.31373,0.13333
18.248,0.001955,0.6129,0.81055,0.31373,0.14314
18.256,0.0029325,0.61388,0.78906,0.31373,0.12941
18.264,0.0039101,0.61486,0.77539,0.32353,0.11961
18.272,0.0039101,0.61486,0.76562,0.32941,0.10392
18.28,0.0048876,0.61486,0.75977,0.33529,0.094118
18.288,0.0048876,0.61388,0.75391,0.33922,0.078431
18.296,0.0058651,0.61095,0.75977,0.33529,0.07451
18.304,0.0058651,0.60704,0.75391,0.32941,0.084314
18.312,0.0068426,0.60313,0.75977,0.32353,0.078431
18.32,0.0068426,0.59824,0.75977,0.32353,0.084314
18.328,0.0068426,0.59238,0.75977,0.32941,0.084314
18.336,0.0048876,0.58553,0.75977,0.33529,0.094118
18.344,0.0039101,0.57967,0.72461,0.3451,0.098039
18.352,0.0029325,0.57283,0.66992,0.37451,0.088235
18.36,0.00097752,0.56598,0.83984,0.34902,0.17451
18.368,0,0.55914,1.2852,0.16471,0.4098
18.376,0,0.55132,1.5,-0.0019608,0.46471
18.384,0,0.5435,1.1289,-0.031373,-0.0058823
18.392,0,0.53568,0.73047,0.10392,-0.10196
18.4,0,0.52884,0.74414,0.22941,0.017647
18.408,0,0.52199,0.75391,0.30392,0.068627
18.416,0,0.51515,0.73438,0.33922,0.084314
18.424,0,0.51026,0.72461,0.3451,0.088235
18.432,0.001955,0.50538,0.7207,0.34902,0.078431
18.44,0.0048876,0.50049,0.72461,0.3549,0.07451
18.448,0.013685,0.4956,0.73047,0.34902,0.068627
18.456,0.021505,0.49071,0.7207,0.35882,0.078431
18.464,0.032258,0.48583,0.73047,0.3549,0.078431
18.472,0.043988,0.48485,0.72461,0.3549,0.078431
18.48,0.056696,0.48583,0.73047,0.35882,0.078431
18.488,0.070381,0.48387,0.73438,0.34902,0.078431
18.496,0.086022,0.48192,0.73438,0.33922,0.078431
18.504,0.10166,0.47898,0.73438,0.3451,0.078431
18.512,0.11926,0.47605,0.73438,0.3451,0.088235
18.52,0.13685,0.47214,0.73438,0.3451,0.084314
18.528,0.15738,0.46823,0.74023,0.33529,0.078431
18.536,0.17889,0.4653,0.75,0.33922,0.078431
18.544,0.20723,0.46237,0.74414,0.3451,0.094118
18.552,0.23558,0.45748,0.75,0.33922,0.088235
18.56,0.27273,0.45357,0.74414,0.33529,0.088235
18.568,0.3089,0.45064,0.75,0.33922,0.10392
18.576,0.35386,0.44673,0.75977,0.33529,0.1098
18.584,0.3998,0.44379,0.76562,0.32941,0.10392
18.592,0.45259,0.44086,0.76953,0.32353,0.11373
18.6,0.50538,0.43793,0.7793,0.31961,0.1098
18.608,0.565,0.435,0.78516,0.32353,0.11961
18.616,0.62463,0.43402,0.78516,0.31961,0.11961
18.624,0.68817,0.435,0.78906,0.31373,0.12353
18.632,0.75171,0.43597,0.78906,0.3098,0.12353
18.64,0.80547,0.43891,0.79492,0.31373,0.12941
18.648,0.86022,0.44184,0.79492,0.3098,0.12353
18.656,0.90518,0.44477,0.79883,0.30392,0.11373
18.664,0.95015,0.44673,0.78516,0.30392,0.10392
18.672,0.97556,0.4477,0.78516,0.3,0.094118
18.68,1,0.44673,0.78516,0.3,0.078431
18.688,1,0.44477,0.7793,0.30392,0.078431
18.696,1,0.44282,0.77539,0.3,0.078431
18.704,1,0.43988,0.76562,0.30392,0.068627
18.712,1,0.43793,0.75977,0.30392,0.07451
18.72,1,0.43597,0.76953,0.3,0.078431
18.728,1,0.43597,0.76562,0.29412,0.052941
18.736,1,0.43695,0.75977,0.3,0.062745
18.744,1,0.43891,0.76562,0.29412,0.058824
18.752,1,0.43988,0.75977,0.30392,0.062745
18.76,1,0.44086,0.75977,0.29412,0.062745
18.768,1,0.44184,0.75977,0.30392,0.062745
18.776,1,0.44379,0.75391,0.3098,0.062745
18.784,1,0.44575,0.75,0.31373,0.058824
18.792,1,0.4477,0.75391,0.3098,0.058824
18.8,1,0.4477,0.74414,0.31373,0.058824
18.808,1,0.44868,0.75,0.31373,0.052941
18.816,1,0.4477,0.74023,0.31373,0.062745
18.824,1,0.4477,0.74414,0.3098,0.062745
18.832,1,0.44868,0.74414,0.31373,0.07451
18.84,1,0.44868,0.74414,0.3098,0.058824
18.848,1,0.44868,0.74414,0.31961,0.07451
18.856,1,0.44966,0.73438,0.32353,0.078431
18.864,1,0.45357,0.75,0.31373,0.062745
18.872,1,0.45846,0.74023,0.31961,0.084314
18.88,1,0.46628,0.74414,0.31961,0.07451
18.888,1,0.47605,0.75,0.31373,0.062745
18.896,1,0.48778,0.75977,0.31373,0.088235
18.904,1,0.50049,0.75977,0.31373,0.11373
18.912,1,0.5132,0.75977,0.31961,0.11961
18.92,1,0.52493,0.75391,0.31373,0.10392
18.928,1,0.53568,0.75977,0.31373,0.1098
18.936,1,0.54448,0.76953,0.3098,0.088235
18.944,1,0.55425,0.76562,0.31373,0.078431
18.952,1,0.56305,0.7793,0.29412,0.068627
18.96,1,0.57087,0.78516,0.30392,0.062745
18.968,1,0.57869,0.80469,0.3,0.078431
18.976,1,0.58651,0.79883,0.3,0.068627
18.984,1,0.5914,0.80469,0.3098,0.078431
18.992,1,0.59531,0.76953,0.31373,0.052941
19,1,0.59824,0.75391,0.31961,0.043137
19.008,1,0.60117,0.74414,0.31373,0.039216
19.016,1,0.60411,0.74023,0.32353,0.04902
19.024,1,0.60411,0.73438,0.32353,0.04902
19.032,1,0.60411,0.73438,0.32941,0.043137
19.04,1,0.60313,0.73438,0.31961,0.023529
19.048,1,0.60313,0.74023,0.32353,0.043137
19.056,1,0.60313,0.75,0.32941,0.043137
19.064,1,0.60313,0.75,0.32353,0.029412
19.072,1,0.60313,0.74023,0.32941,0.033333
19.08,1,0.60117,0.74414,0.33529,0.04902
19.088,1,0.59824,0.67578,0.37059,0.029412
19.096,1,0.59433,0.74023,0.38039,0.017647
19.104,1,0.58847,1.0898,0.22941,0.2902
19.112,1,0.58162,1.4082,0.013725,0.46078
19.12,1,0.5738,1.4141,-0.041176,0.16471
19.128,1,0.56794,0.65039,0.11373,-0.12157
19.136,1,0.56109,0.62891,0.22941,-0.060784
19.144,1,0.55425,0.73438,0.3098,0.0078431
19.152,1,0.54839,0.74414,0.33922,0.039216
19.16,1,0.54154,0.73438,0.33922,0.039216
19.168,1,0.53372,0.74023,0.3451,0.033333
19.176,1,0.52493,0.73047,0.34902,0.039216
19.184,1,0.51515,0.73438,0.3549,0.04902
19.192,1,0.50733,0.74023,0.34902,0.058824
19.2,1,0.50049,0.74414,0.3549,0.033333
19.208,1,0.49462,0.73438,0.3549,0.033333
19.216,1,0.49071,0.74023,0.35882,0.033333
19.224,1,0.48778,0.74414,0.3549,0.052941
19.232,1,0.4868,0.75391,0.34902,0.058824
19.24,1,0.48583,0.75,0.34902,0.052941
19.248,1,0.48289,0.74023,0.3549,0.04902
19.256,1,0.48094,0.74414,0.34902,0.043137
19.264,1,0.47703,0.75977,0.33922,0.07451
19.272,1,0.47312,0.76562,0.3451,0.058824
19.28,1,0.46823,0.75977,0.3451,0.052941
19.288,1,0.46237,0.76562,0.33922,0.07451
19.296,1,0.45455,0.75977,0.3451,0.062745
19.304,1,0.4477,0.77539,0.33922,0.084314
19.312,1,0.43988,0.78516,0.33529,0.078431
19.32,1,0.43304,0.7793,0.33529,0.084314
19.328,1,0.42913,0.79883,0.33922,0.088235
19.336,1,0.42522,0.79492,0.32941,0.084314
19.344,1,0.42131,0.80469,0.32941,0.11373
19.352,1,0.41838,0.81055,0.31961,0.12941
19.36,1,0.41544,0.81055,0.32353,0.1098
19.368,1,0.41349,0.81445,0.31961,0.10392
19.376,1,0.40958,0.81445,0.31961,0.10392
19.384,1,0.40665,0.82031,0.31373,0.12941
19.392,1,0.40274,0.81055,0.31373,0.1098
19.4,1,0.39883,0.79492,0.31961,0.078431
19.408,1,0.39492,0.78906,0.32353,0.068627
19.416,1,0.39101,0.81055,0.31373,0.07451
19.424,1,0.3871,0.79883,0.31373,0.078431
19.432,1,0.38514,0.78516,0.31373,0.088235
19.44,1,0.38319,0.79492,0.3098,0.084314
19.448,1,0.38123,0.78906,0.31373,0.078431
19.456,1,0.38123,0.78516,0.3098,0.078431
19.464,1,0.38123,0.79883,0.31373,0.088235
19.472,1,0.37928,0.78906,0.3098,0.098039
19.48,1,0.37732,0.79492,0.30392,0.084314
19.488,1,0.37537,0.78516,0.31373,0.094118
19.496,1,0.37341,0.78516,0.3098,0.078431
19.504,1,0.37243,0.76953,0.31373,0.078431
19.512,1,0.37243,0.77539,0.31373,0.084314
19.52,1,0.37146,0.76953,0.31373,0.084314
19.528,1,0.37243,0.76562,0.3098,0.078431
19.536,1,0.37341,0.76562,0.31373,0.078431
19.544,1,0.37341,0.76953,0.3098,0.084314
19.552,1,0.37243,0.76562,0.31373,0.084314
19.56,1,0.37146,0.76953,0.31373,0.098039
19.568,1,0.3695,0.7793,0.31373,0.10392
19.576,1,0.36657,0.76953,0.31961,0.084314
19.584,1,0.36364,0.7793,0.32353,0.068627
19.592,1,0.36461,0.77539,0.32941,0.084314
19.6,1,0.36755,0.7793,0.31961,0.088235
19.608,1,0.37341,0.77539,0.32353,0.078431
19.616,1,0.38221,0.77539,0.32353,0.078431
19.624,1,0.39296,0.7793,0.31961,0.094118
19.632,1,0.40567,0.7793,0.31961,0.11961
19.64,1,0.42131,0.78516,0.31373,0.13333
19.648,1,0.43988,0.78516,0.31373,0.14902
19.656,1,0.45846,0.7793,0.31373,0.14314
19.664,1,0.47703,0.7793,0.31961,0.14314
19.672,1,0.49365,0.78516,0.31373,0.14314
19.68,1,0.51026,0.78516,0.31961,0.14314
19.688,1,0.52493,0.78906,0.31961,0.13922
19.696,1,0.53861,0.79883,0.31373,0.12941
19.704,1,0.55132,0.81055,0.30392,0.11961
19.712,1,0.56109,0.82031,0.3098,0.12941
19.72,1,0.57087,0.81445,0.3098,0.13922
19.728,1,0.57771,0.81055,0.30392,0.14314
19.736,1,0.58358,0.78516,0.31373,0.10392
19.744,1,0.58944,0.7793,0.31961,0.094118
19.752,1,0.59335,0.77539,0.31961,0.094118
19.76,1,0.59531,0.77539,0.32941,0.094118
19.768,1,0.59629,0.77539,0.32941,0.098039
19.776,1,0.59531,0.77539,0.33529,0.10392
19.784,1,0.59335,0.77539,0.33922,0.098039
19.792,1,0.59238,0.76953,0.33922,0.094118
19.8,1,0.5914,0.76953,0.33922,0.098039
19.808,1,0.59042,0.77539,0.33922,0.10392
19.816,1,0.58847,0.76953,0.33922,0.10392
19.824,1,0.58651,0.74023,0.3549,0.088235
19.832,1,0.58358,0.7207,0.38431,0.07451
19.84,1,0.57869,0.91992,0.32353,0.23922
19.848,1,0.57185,1.2637,0.12353,0.53529
19.856,1,0.56207,1.3691,-0.0019608,0.58431
19.864,1,0.55034,0.84961,0.084314,0.04902
19.872,1,0.54057,0.66016,0.20392,-0.05098
19.88,1,0.53079,0.73047,0.29412,0.033333
19.888,1,0.52395,0.75977,0.33529,0.078431
19.896,1,0.51711,0.75977,0.3451,0.094118
19.904,1,0.51124,0.75391,0.3549,0.098039
19.912,1,0.50635,0.75391,0.35882,0.088235
19.92,0.98729,0.50147,0.75977,0.35882,0.098039
19.928,0.97361,0.49658,0.75977,0.35882,0.094118
19.936,0.95406,0.49365,0.75977,0.35882,0.098039
19.944,0.93451,0.49071,0.75977,0.35882,0.098039
19.952,0.91398,0.4868,0.76562,0.35882,0.10392
19.96,0.89443,0.48289,0.76562,0.3549,0.098039
19.968,0.87292,0.47898,0.76953,0.35882,0.10392
19.976,0.85142,0.47605,0.76562,0.3549,0.098039
19.984,0.83089,0.47312,0.76953,0.34902,0.10392
19.992,0.80938,0.47019,0.77539,0.34902,0.10392
20,0.78886,0.46823,0.77539,0.3451,0.10392
20.008,0.76833,0.46725,0.77539,0.34902,0.10392
20.016,0.7478,0.46628,0.7793,0.3451,0.10392
20.024,0.72825,0.46628,0.7793,0.34902,0.11373
20.032,0.70968,0.46432,0.78516,0.33922,0.1098
20.04,0.69013,0.46139,0.78516,0.33922,0.11961
20.048,0.67155,0.45748,0.79492,0.33922,0.12353
20.056,0.65298,0.45357,0.79883,0.33529,0.12941
20.064,0.63441,0.45064,0.80469,0.33529,0.12941
20.072,0.61681,0.4477,0.81055,0.32353,0.13333
20.08,0.59824,0.44673,0.81445,0.32941,0.13922
20.088,0.57967,0.44673,0.82031,0.32941,0.14902
20.096,0.56207,0.44673,0.82031,0.32941,0.14902
20.104,0.5435,0.44673,0.82031,0.32353,0.1549
20.112,0.5259,0.4477,0.82422,0.32353,0.14902
20.12,0.50831,0.44673,0.83008,0.31961,0.14902
20.128,0.49169,0.44575,0.82422,0.31961,0.14314
20.136,0.47507,0.44379,0.82422,0.31961,0.13922
20.144,0.46041,0.44086,0.82031,0.31961,0.12941
20.152,0.44575,0.43793,0.81055,0.31961,0.12941
20.16,0.43304,0.435,0.80469,0.31961,0.11373
20.168,0.42033,0.43402,0.80469,0.31373,0.1098
20.176,0.40958,0.435,0.79883,0.31373,0.10392
20.184,0.3998,0.43597,0.79883,0.31373,0.10392
20.192,0.39198,0.43793,0.79492,0.31373,0.10392
20.2,0.38416,0.43891,0.79883,0.31373,0.10392
20.208,0.3783,0.43891,0.79492,0.31373,0.10392
20.216,0.37243,0.43695,0.79492,0.31373,0.098039
20.224,0.36755,0.435,0.78906,0.31961,0.10392
20.232,0.36266,0.43304,0.78516,0.31961,0.10392
20.24,0.35875,0.43011,0.7793,0.32353,0.10392
20.248,0.35484,0.4262,0.7793,0.32941,0.10392
20.256,0.35093,0.42326,0.76953,0.32941,0.10392
20.264,0.34702,0.42033,0.76562,0.33529,0.098039
20.272,0.34213,0.41838,0.76562,0.33529,0.10392
20.28,0.33822,0.41544,0.76953,0.33529,0.10392
20.288,0.33431,0.41251,0.76562,0.33529,0.10392
20.296,0.3304,0.41056,0.76953,0.33529,0.10392
20.304,0.32649,0.40762,0.76953,0.33529,0.11373
20.312,0.32258,0.40567,0.76562,0.33922,0.1098
20.32,0.31867,0.40567,0.76562,0.33922,0.1098
20.328,0.31476,0.40665,0.75977,0.33922,0.1098
20.336,0.31183,0.40958,0.77539,0.33922,0.11961
20.344,0.30987,0.41447,0.77539,0.33922,0.12353
20.352,0.30694,0.42229,0.77539,0.33529,0.12353
20.36,0.30499,0.43304,0.77539,0.33529,0.12353
20.368,0.30303,0.44575,0.77539,0.33529,0.12941
20.376,0.30108,0.45943,0.77539,0.32941,0.13333
20.384,0.29814,0.4741,0.77539,0.32941,0.14902
20.392,0.29619,0.48876,0.77539,0.32941,0.1549
20.4,0.29423,0.50342,0.76953,0.33529,0.14902
20.408,0.29228,0.51808,0.77539,0.32941,0.1549
20.416,0.2913,0.53177,0.7793,0.32941,0.1549
20.424,0.28935,0.5435,0.77539,0.33529,0.13922
20.432,0.28739,0.55425,0.78516,0.32941,0.13333
20.44,0.28641,0.56598,0.78906,0.32353,0.10392
20.448,0.28446,0.57771,0.79492,0.31961,0.10392
20.456,0.2825,0.58847,0.80469,0.31373,0.11373
20.464,0.27957,0.59726,0.81055,0.31373,0.12353
20.472,0.27761,0.60313,0.78906,0.31961,0.12941
20.48,0.2737,0.60704,0.76953,0.33529,0.098039
20.488,0.27077,0.60899,0.75977,0.33922,0.098039
20.496,0.26882,0.60997,0.75977,0.33922,0.094118
20.504,0.26588,0.60997,0.75391,0.33529,0.088235
20.512,0.26393,0.60997,0.75977,0.33529,0.088235
20.52,0.26295,0.61193,0.75977,0.33922,0.088235
20.528,0.261,0.61486,0.75977,0.33529,0.094118
20.536,0.26002,0.61584,0.75977,0.33529,0.094118
20.544,0.25806,0.61681,0.75977,0.32941,0.098039
20.552,0.25709,0.61681,0.75977,0.33529,0.10392
20.56,0.25611,0.61486,0.75977,0.32941,0.10392
20.568,0.25415,0.61193,0.71484,0.35882,0.098039
20.576,0.2522,0.60606,0.68945,0.38039,0.088235
20.584,0.25122,0.6002,0.98047,0.30392,0.27843
20.592,0.24927,0.59238,1.3691,0.088235,0.5098
20.6,0.24731,0.5826,1.4746,-0.015686,0.3098
20.608,0.24536,0.57283,0.85938,0.062745,-0.076471
20.616,0.2434,0.56305,0.69922,0.19412,-0.11176
20.624,0.24145,0.55327,0.74414,0.27843,0.023529
20.632,0.23949,0.54448,0.75,0.33529,0.068627
20.64,0.23754,0.5347,0.73438,0.3451,0.078431
20.648,0.23558,0.5259,0.73438,0.3549,0.078431
20.656,0.23363,0.51808,0.73438,0.35882,0.078431
20.664,0.23167,0.51124,0.73438,0.35882,0.078431
20.672,0.22972,0.50538,0.73438,0.36471,0.078431
20.68,0.22776,0.50049,0.73438,0.37059,0.088235
20.688,0.22385,0.49462,0.74023,0.35882,0.094118
20.696,0.22092,0.48974,0.74023,0.36471,0.094118
20.704,0.21603,0.48485,0.74414,0.35882,0.098039
20.712,0.21114,0.47996,0.74414,0.35882,0.094118
20.72,0.20528,0.47507,0.75,0.3549,0.094118
20.728,0.20039,0.47116,0.75391,0.3549,0.094118
20.736,0.19355,0.46725,0.75391,0.3549,0.098039
20.744,0.18768,0.46334,0.75977,0.34902,0.098039
20.752,0.18084,0.46041,0.75977,0.34902,0.10392
20.76,0.17498,0.4565,0.75977,0.34902,0.10392
20.768,0.16813,0.45259,0.76562,0.3451,0.11373
20.776,0.16129,0.44966,0.76953,0.33922,0.11373
20.784,0.15249,0.44673,0.77539,0.3451,0.11961
20.792,0.14467,0.44379,0.78516,0.33922,0.11373
20.8,0.13587,0.44086,0.78516,0.33922,0.11961
20.808,0.12708,0.43891,0.78516,0.33922,0.12941
20.816,0.1173,0.43597,0.79492,0.33922,0.13333
20.824,0.1085,0.43402,0.80469,0.33922,0.14314
20.832,0.097752,0.43304,0.81055,0.33922,0.14902
20.84,0.087977,0.43109,0.81055,0.33529,0.1549
20.848,0.078201,0.42815,0.81445,0.32941,0.15882
20.856,0.067449,0.4262,0.82031,0.33529,0.16471
20.864,0.056696,0.42326,0.81445,0.32353,0.15882
20.872,0.044966,0.42131,0.81445,0.32941,0.14902
20.88,0.034213,0.41838,0.81055,0.32941,0.13922
20.888,0.02346,0.41642,0.81055,0.32941,0.13922
20.896,0.013685,0.41349,0.80469,0.32353,0.12941
20.904,0.0029325,0.41153,0.79883,0.32353,0.11961
20.912,0.00097752,0.40762,0.79492,0.31961,0.11373
20.92,0,0.40469,0.78906,0.32353,0.12941
20.928,0,0.40176,0.78906,0.32353,0.12353
20.936,0,0.39785,0.78516,0.32941,0.11961
20.944,0,0.39492,0.7793,0.32353,0.12353
20.952,0,0.39198,0.7793,0.31961,0.1098
20.96,0,0.38905,0.7793,0.31961,0.1098
20.968,0,0.3871,0.7793,0.32353,0.11373
20.976,0,0.38612,0.77539,0.32941,0.12353
20.984,0,0.38514,0.77539,0.33529,0.11961
20.992,0,0.38514,0.76953,0.32941,0.11961
21,0,0.38416,0.76953,0.32941,0.11961
21.008,0,0.38319,0.76562,0.32941,0.1098
21.016,0,0.38319,0.76953,0.32941,0.1098
21.024,0,0.38319,0.76562,0.32353,0.11373
21.032,0,0.38416,0.75977,0.32941,0.11961
21.04,0,0.38416,0.75977,0.32941,0.11961
21.048,0,0.38514,0.76562,0.31961,0.11961
21.056,0,0.38514,0.75977,0.32353,0.12941
21.064,0,0.38514,0.76562,0.32353,0.11961
21.072,0,0.3871,0.75977,0.32353,0.12941
21.08,0,0.39003,0.76953,0.32353,0.12941
21.088,0,0.39492,0.77539,0.32353,0.12941
21.096,0,0.40469,0.76953,0.32353,0.13333
21.104,0,0.41642,0.77539,0.32353,0.13922
21.112,0,0.43109,0.77539,0.31961,0.13922
21.12,0,0.44477,0.77539,0.31961,0.1549
21.128,0,0.45846,0.7793,0.31373,0.16471
21.136,0,0.4741,0.7793,0.31373,0.17451
21.144,0,0.48974,0.77539,0.31961,0.15882
21.152,0,0.50635,0.78516,0.31373,0.1549
21.16,0,0.52102,0.78516,0.31373,0.14902
21.168,0,0.5347,0.78516,0.31373,0.13922
21.176,0,0.54839,0.78516,0.31373,0.12941
21.184,0,0.56109,0.79883,0.30392,0.12941
21.192,0,0.5738,0.81445,0.3,0.12941
21.2,0,0.58553,0.82031,0.30392,0.12941
21.208,0,0.59531,0.81055,0.3098,0.13922
21.216,0,0.60508,0.78516,0.31373,0.11961
21.224,0,0.61095,0.76562,0.32941,0.10392
21.232,0,0.61486,0.75977,0.33529,0.098039
21.24,0,0.61779,0.75391,0.33529,0.094118
21.248,0,0.61877,0.75,0.33529,0.088235
21.256,0,0.61877,0.75977,0.32941,0.088235
21.264,0,0.61779,0.75977,0.32941,0.094118
21.272,0,0.61584,0.75391,0.33529,0.088235
21.28,0,0.6129,0.75391,0.33922,0.084314
21.288,0,0.61095,0.75977,0.33529,0.088235
21.296,0,0.60802,0.75977,0.33529,0.084314
21.304,0,0.60606,0.74023,0.33922,0.084314
21.312,0,0.60313,0.68555,0.38039,0.078431
21.32,0,0.6002,0.76562,0.38431,0.13922
21.328,0,0.59531,1.1543,0.22353,0.37059
21.336,0,0.58944,1.4883,0.023529,0.48431
21.344,0,0.5826,1.498,-0.015686,0.11961
21.352,0,0.57478,0.75,0.094118,-0.10588
21.36,0,0.565,0.70508,0.22353,-0.031373
21.368,0,0.55523,0.74414,0.3,0.043137
21.376,0,0.54643,0.74414,0.33922,0.07451
21.384,0,0.53763,0.73438,0.3451,0.084314
21.392,0,0.52884,0.73047,0.3549,0.078431
21.4,0,0.52102,0.73438,0.35882,0.088235
21.408,0,0.5132,0.73047,0.3549,0.084314
21.416,0,0.50635,0.73438,0.35882,0.088235
21.424,0,0.50147,0.73438,0.36471,0.084314
21.432,0,0.49658,0.74023,0.37059,0.088235
21.44,0,0.49365,0.74023,0.35882,0.094118
21.448,0,0.49169,0.73438,0.35882,0.094118
21.456,0,0.48974,0.74023,0.35882,0.098039
21.464,0,0.48583,0.74414,0.35882,0.094118
21.472,0,0.48192,0.74414,0.35882,0.094118
21.48,0,0.47703,0.75,0.3549,0.098039
21.488,0,0.47116,0.75977,0.34902,0.10392
21.496,0,0.46628,0.75977,0.34902,0.10392
21.504,0,0.46237,0.76562,0.3451,0.098039
21.512,0,0.45943,0.76562,0.34902,0.10392
21.52,0,0.45748,0.76953,0.3451,0.10392
21.528,0,0.45552,0.78516,0.33922,0.1098
21.536,0,0.45357,0.78516,0.33922,0.12941
21.544,0,0.45064,0.78516,0.3451,0.11961
21.552,0,0.4477,0.79883,0.33922,0.12941
21.56,0,0.44282,0.80469,0.33922,0.12941
21.568,0,0.43695,0.79883,0.33922,0.13333
21.576,0,0.43304,0.80469,0.33922,0.13922
21.584,0,0.42913,0.81055,0.33529,0.13922
21.592,0,0.4262,0.81055,0.32941,0.14314
21.6,0,0.42424,0.82422,0.32941,0.14902
21.608,0,0.42131,0.82031,0.32941,0.14902
21.616,0,0.41838,0.81055,0.33529,0.14314
21.624,0,0.41642,0.81055,0.32941,0.13922
21.632,0,0.41544,0.80469,0.32353,0.13333
21.64,0,0.41349,0.79883,0.32941,0.13333
21.648,0,0.41056,0.80469,0.31961,0.11961
21.656,0,0.40762,0.79492,0.32353,0.1098
21.664,0,0.40469,0.79492,0.31373,0.10392
21.672,0,0.40078,0.78906,0.31373,0.1098
21.68,0,0.39492,0.78906,0.31961,0.11373
21.688,0,0.39101,0.78516,0.31373,0.11961
21.696,0,0.38807,0.78906,0.31373,0.11373
21.704,0,0.38612,0.78906,0.31373,0.11961
21.712,0,0.38514,0.78516,0.31373,0.11373
21.72,0,0.38612,0.7793,0.31373,0.11373
21.728,0,0.38612,0.7793,0.31373,0.11961
21.736,0,0.38514,0.7793,0.31373,0.11373
21.744,0,0.38514,0.76953,0.31373,0.10392
21.752,0,0.38514,0.76562,0.31961,0.10392
21.76,0,0.38514,0.76953,0.31373,0.1098
21.768,0,0.38514,0.76953,0.31961,0.11961
21.776,0,0.38514,0.76562,0.31373,0.11961
21.784,0,0.38514,0.76562,0.31961,0.11373
21.792,0,0.38514,0.76562,0.32353,0.1098
21.8,0,0.38514,0.75977,0.32353,0.1098
21.808,0,0.3871,0.75977,0.32941,0.11961
21.816,0,0.39003,0.76562,0.32353,0.12941
21.824,0,0.39394,0.76953,0.32941,0.12353
21.832,0,0.40176,0.76953,0.31961,0.12941
21.84,0,0.41153,0.76562,0.31961,0.12353
21.848,0,0.42229,0.77539,0.31961,0.12941
21.856,0,0.43597,0.77539,0.31961,0.13922
21.864,0,0.45064,0.7793,0.31961,0.14902
21.872,0,0.4653,0.7793,0.31373,0.15882
21.88,0,0.48094,0.77539,0.32353,0.1549
21.888,0,0.49756,0.7793,0.31373,0.14902
21.896,0,0.51515,0.79492,0.31373,0.14902
21.904,0,0.53079,0.78516,0.31961,0.13922
21.912,0,0.54448,0.78906,0.31373,0.12941
21.92,0,0.55621,0.79492,0.31373,0.11961
21.928,0,0.56598,0.81055,0.3098,0.11373
21.936,0,0.57674,0.82422,0.30392,0.12353
21.944,0,0.58944,0.82422,0.30392,0.12941
21.952,0,0.6002,0.80469,0.3098,0.13922
21.96,0,0.60997,0.78516,0.31373,0.10392
21.968,0,0.61681,0.77539,0.32353,0.098039
21.976,0,0.62072,0.75977,0.32941,0.084314
21.984,0,0.62268,0.75977,0.32353,0.078431
21.992,0,0.62366,0.75391,0.32941,0.078431
22,0,0.62463,0.75977,0.32941,0.078431
22.008,0,0.62463,0.75391,0.32941,0.084314
22.016,0,0.62366,0.75977,0.32941,0.078431
22.024,0,0.62366,0.75977,0.33529,0.084314
22.032,0,0.62268,0.75977,0.32941,0.084314
22.04,0,0.62072,0.75977,0.33529,0.084314
22.048,0,0.61779,0.70898,0.3549,0.078431
22.056,0,0.6129,0.67969,0.38039,0.078431
22.064,0,0.60704,0.91992,0.32353,0.20392
22.072,0,0.6002,1.3594,0.12941,0.43922
22.08,0,0.59335,1.5,-0.011765,0.44902
22.088,0,0.58553,0.99414,-0.021569,-0.060784
22.096,0,0.57869,0.7207,0.14314,-0.10588
22.104,0,0.56989,0.74414,0.2549,0.013725
22.112,0,0.55914,0.74414,0.32353,0.052941
22.12,0,0.54936,0.73438,0.33922,0.068627
22.128,0,0.54252,0.72461,0.34902,0.078431
22.136,0,0.53568,0.72461,0.3549,0.07451
22.144,0,0.52884,0.73047,0.35882,0.068627
22.152,0,0.52297,0.73047,0.3549,0.078431
22.16,0,0.51808,0.72461,0.35882,0.07451
22.168,0,0.51222,0.73438,0.3549,0.084314
22.176,0,0.50733,0.73047,0.35882,0.07451
22.184,0,0.50244,0.73438,0.35882,0.084314
22.192,0,0.49756,0.74023,0.34902,0.088235
22.2,0,0.49267,0.74023,0.34902,0.078431
22.208,0,0.4868,0.74414,0.3451,0.088235
22.216,0,0.48289,0.75391,0.33922,0.098039
22.224,0,0.47801,0.75391,0.34902,0.10392
22.232,0,0.47312,0.75,0.3549,0.10392
22.24,0,0.46823,0.75,0.34902,0.098039
22.248,0,0.46432,0.75977,0.34902,0.098039
22.256,0,0.46139,0.76953,0.3451,0.10392
22.264,0,0.45943,0.76953,0.3451,0.11373
22.272,0,0.4565,0.77539,0.33922,0.1098
22.28,0,0.45357,0.78516,0.33922,0.11961
22.288,0,0.45161,0.78516,0.33922,0.12941
22.296,0,0.44868,0.78906,0.33922,0.12353
22.304,0,0.44575,0.79883,0.33922,0.13922
22.312,0,0.44184,0.80469,0.33922,0.14902
22.32,0,0.43793,0.81055,0.33922,0.14314
22.328,0,0.43597,0.81055,0.33922,0.13922
22.336,0,0.43402,0.81445,0.33529,0.14902
22.344,0,0.43109,0.82031,0.32941,0.14902
22.352,0,0.42913,0.81055,0.32941,0.13922
22.36,0,0.4262,0.81055,0.32941,0.12941
22.368,0,0.42326,0.80469,0.32353,0.12353
22.376,0,0.42131,0.80469,0.32353,0.10392
22.384,0,0.41935,0.79883,0.32941,0.1098
22.392,0,0.41838,0.79492,0.32353,0.10392
22.4,0,0.41838,0.78906,0.32353,0.10392
22.408,0,0.41838,0.79492,0.31373,0.1098
22.416,0,0.41838,0.79492,0.31373,0.10392
22.424,0,0.41838,0.78516,0.31961,0.098039
22.432,0,0.4174,0.78906,0.31373,0.10392
22.44,0,0.41544,0.78516,0.31961,0.10392
22.448,0,0.41349,0.78516,0.31373,0.10392
22.456,0,0.41056,0.7793,0.31961,0.10392
22.464,0,0.4086,0.78516,0.31961,0.10392
22.472,0,0.40567,0.7793,0.31373,0.098039
22.48,0,0.40371,0.77539,0.31961,0.094118
22.488,0,0.40078,0.7793,0.31373,0.10392
22.496,0,0.39883,0.76562,0.31961,0.098039
22.504,0,0.39589,0.76562,0.31373,0.10392
22.512,0,0.39394,0.76562,0.31373,0.10392
22.52,0,0.39198,0.75977,0.31961,0.10392
22.528,0,0.39003,0.75977,0.31961,0.10392
22.536,0,0.38905,0.76562,0.31373,0.11373
22.544,0,0.38905,0.75977,0.31373,0.11373
22.552,0,0.39003,0.76562,0.31961,0.11961
22.56,0,0.39198,0.76562,0.31961,0.11961
22.568,0,0.39394,0.76562,0.31373,0.12941
22.576,0,0.39883,0.76953,0.32353,0.12941
22.584,0,0.4086,0.76562,0.31373,0.12941
22.592,0,0.42229,0.76953,0.32353,0.13333
22.6,0,0.43793,0.77539,0.31961,0.13922
22.608,0,0.4565,0.76953,0.31961,0.14314
22.616,0,0.4741,0.77539,0.31373,0.14902
22.624,0,0.48974,0.77539,0.31373,0.14902
22.632,0,0.50733,0.78516,0.31373,0.1549
22.64,0,0.52493,0.78516,0.31373,0.14902
22.648,0,0.54057,0.7793,0.31373,0.13922
22.656,0,0.55523,0.78516,0.30392,0.12353
22.664,0,0.56891,0.80469,0.3,0.11961
22.672,0,0.58162,0.82031,0.29412,0.12353
22.68,0,0.59531,0.82422,0.29412,0.11961
22.688,0,0.60704,0.81055,0.3,0.12941
