Time [s], PLETH, RESP, II, V, AVR
0,1.8162,1,-0.040567,0.94971,0.71017
0.008,1.7771,1,-0.045455,0.92969,0.70528
0.016,1.7419,1,0.034702,0.9248,0.64516
0.024,1.7107,1,0.049853,0.89014,0.67498
0.032,1.6872,1,0.089932,0.86475,0.68035
0.04,1.6676,1,0.16471,0.84473,0.6002
0.048,1.6471,1,0.21994,0.81982,0.565
0.056,1.6276,1,0.19501,0.80469,0.61486
0.064,1.61,1,0.2346,0.78516,0.62023
0.072,1.5934,1,0.25464,0.78516,0.54497
0.08,1.5767,1,0.27468,0.77979,0.53519
0.088,1.5621,1,0.24487,0.77002,0.56989
0.096,1.5474,1,0.2346,0.76514,0.58016
0.104,1.5337,1,0.27468,0.77979,0.55523
0.112,1.521,0.99291,0.25464,0.77002,0.57527
0.12,1.5083,0.98583,0.28983,0.78516,0.54497
0.128,1.4985,0.97068,0.28006,0.7749,0.54497
0.136,1.4897,0.95553,0.28495,0.77002,0.54008
0.144,1.48,0.93697,0.26979,0.7749,0.565
0.152,1.4692,0.91864,0.29472,0.79004,0.54008
0.16,1.4565,0.89714,0.31965,0.81006,0.52004
0.168,1.4438,0.87589,0.32991,0.81982,0.52493
0.176,1.4311,0.85243,0.33969,0.83496,0.50489
0.184,1.4184,0.82898,0.37488,0.83984,0.5
0.192,1.4047,0.8043,0.41984,0.7998,0.47996
0.2,1.392,0.77962,0.43011,0.76514,0.47019
0.208,1.3783,0.75715,0.41984,0.75977,0.47507
0.216,1.3646,0.73491,0.43011,0.75488,0.46481
0.224,1.3519,0.71439,0.3348,0.75977,0.51515
0.232,1.3441,0.69387,0.26002,0.74512,0.565
0.24,1.3392,0.67359,0.22972,0.76514,0.58016
0.248,1.3372,0.65331,0.21994,0.75977,0.59531
0.256,1.3548,0.63352,0.20479,0.75488,0.58993
0.264,1.3812,0.61373,0.18475,0.74512,0.62023
0.272,1.4125,0.59687,0.20968,0.75488,0.59531
0.28,1.4721,0.58001,0.18964,0.74512,0.60508
0.288,1.5582,0.5656,0.24976,0.81006,0.55523
0.296,1.6667,0.55143,0.38514,0.83496,0.48485
0.304,1.7928,0.53872,0.82502,0.83008,0.27468
0.312,1.9296,0.52602,1.4658,0.83984,-0.13539
0.32,2.0704,0.51478,1.501,0.49023,-0.3607
0.328,2.1906,0.50354,1.3504,0.23486,-0.11046
0.336,2.2972,0.4945,0.89052,0.29004,0.22972
0.344,2.4086,0.48571,0.5,0.58984,0.49022
0.352,2.5152,0.47862,0.1349,0.75,0.65005
0.36,2.6119,0.47178,0.059629,0.78516,0.68524
0.368,2.696,0.46567,0.039589,0.7998,0.67009
0.376,2.7674,0.45981,-0.025415,0.79492,0.74536
0.384,2.826,0.45443,-0.00048876,0.80469,0.71017
0.392,2.8974,0.44906,0.039589,0.81494,0.67009
0.4,2.9697,0.4432,0.029814,0.80469,0.6652
0.408,3.0117,0.43758,0.024438,0.83008,0.70039
0.416,3.0323,0.43122,0.044477,0.82471,0.6652
0.424,3.0352,0.42487,0.024438,0.81494,0.68035
0.432,3.0235,0.41828,0.014663,0.81982,0.70039
0.44,2.999,0.41168,0.039589,0.82471,0.67498
0.448,2.9629,0.40435,0.034702,0.82471,0.68035
0.456,2.915,0.39726,0.029814,0.83008,0.68524
0.464,2.8563,0.38774,0.064516,0.83984,0.65494
0.472,2.7879,0.37845,0.044477,0.83008,0.65005
0.48,2.7116,0.36697,0.029814,0.83496,0.67498
0.488,2.6285,0.35573,0.044477,0.84473,0.6652
0.496,2.5415,0.34229,0.049853,0.85498,0.66031
0.504,2.4545,0.3291,0.014663,0.8501,0.68035
0.512,2.3685,0.31444,0.059629,0.89502,0.6349
0.52,2.2854,0.30002,0.01955,0.8999,0.67009
0.528,2.2151,0.28537,-0.020528,0.89014,0.69013
0.536,2.1525,0.27095,-0.030303,0.91504,0.70528
0.544,2.0899,0.25629,-0.040567,0.91992,0.70039
0.552,2.0313,0.24188,-0.035191,0.92969,0.69013
0.56,1.9775,0.22526,-0.05523,0.90967,0.71994
0.568,1.9277,0.20865,-0.065494,0.90479,0.72532
0.576,1.8827,0.19081,-0.05523,0.89014,0.72532
0.584,1.8407,0.17298,0.01955,0.87988,0.68524
0.592,1.8025,0.15636,0.084555,0.85498,0.64516
0.6,1.7674,0.13975,0.1349,0.82471,0.62512
0.608,1.7341,0.12387,0.14956,0.78516,0.63001
0.616,1.7038,0.10823,0.20479,0.77979,0.58993
0.624,1.6755,0.090887,0.1999,0.75488,0.58504
0.632,1.654,0.07354,0.21457,0.75,0.60997
0.64,1.6354,0.054728,0.22972,0.73975,0.58504
0.648,1.6149,0.036159,0.21994,0.73975,0.6002
0.656,1.5943,0.017835,0.26491,0.73975,0.56012
0.664,1.5748,-0.00024432,0.26979,0.74512,0.55523
0.672,1.5562,-0.00048864,0.26002,0.73975,0.565
0.68,1.5376,-0.00048864,0.23998,0.73975,0.58993
0.688,1.5191,-0.00048864,0.26491,0.73975,0.56989
0.696,1.5015,-0.00048864,0.25464,0.74512,0.58504
0.704,1.4839,-0.00048864,0.28006,0.75,0.55523
0.712,1.4653,-0.00048864,0.26979,0.74512,0.565
0.72,1.4477,-0.00048864,0.29472,0.7749,0.54497
0.728,1.434,-0.00048864,0.26491,0.78516,0.58504
0.736,1.4233,-0.00048864,0.30987,0.80469,0.53519
0.744,1.4106,-0.00048864,0.32991,0.83008,0.54497
0.752,1.3969,-0.00048864,0.38514,0.80469,0.5
0.76,1.3822,-0.00048864,0.3998,0.75977,0.49022
0.768,1.3675,-0.00048864,0.41496,0.73486,0.47507
0.776,1.3529,-0.00048864,0.41007,0.73975,0.46481
0.784,1.3382,-0.00048864,0.3348,0.7251,0.52981
0.792,1.3236,-0.00048864,0.26002,0.72998,0.56989
0.8,1.3109,-0.00048864,0.19501,0.71484,0.60997
0.808,1.304,-0.00048864,0.17498,0.71484,0.62023
0.816,1.3069,-0.00048864,0.20968,0.7251,0.58016
0.824,1.3245,-0.00048864,0.18964,0.71484,0.57527
0.832,1.3548,-0.00048864,0.14467,0.70508,0.6349
0.84,1.4008,-0.00048864,0.17498,0.71973,0.60508
0.848,1.4731,-0.00048864,0.19501,0.73486,0.58993
0.856,1.5689,-0.00048864,0.24487,0.81006,0.56012
0.864,1.6843,-0.00048864,0.58993,0.77979,0.38514
0.872,1.8152,-0.00048864,1.1505,0.79004,0.049853
0.88,1.9541,-0.00048864,1.501,0.625,-0.31574
0.888,2.0948,-0.00048864,1.501,0.3252,-0.36559
0.896,2.2317,-0.00048864,0.98534,0.23486,0.14956
0.904,2.3597,-0.00048864,0.76002,0.43018,0.31476
0.912,2.477,-0.00048864,0.21994,0.68994,0.6002
0.92,2.5806,-0.00048864,0.024438,0.75,0.70528
0.928,2.6588,-0.00048864,0.0043988,0.76514,0.71017
0.936,2.7185,-0.00048864,0.024438,0.79004,0.67498
0.944,2.7761,-0.00048864,0.014663,0.79492,0.68035
0.952,2.826,-0.00048864,0.01955,0.80469,0.67498
0.96,2.8651,-0.00048864,-0.0053763,0.7998,0.70039
0.968,2.8935,-0.00048864,0.024438,0.81006,0.68035
0.976,2.9101,-0.00048864,-0.015152,0.79004,0.71505
0.984,2.914,-0.00048864,0.029814,0.81006,0.6652
0.992,2.9042,-0.00048864,0.044477,0.81494,0.65005
1,2.8807,-0.00048864,0.01955,0.80469,0.67498
1.008,2.8456,-0.00048864,0.039589,0.81494,0.66031
1.016,2.7986,-0.00048864,0.059629,0.83008,0.6652
1.024,2.74,-0.00048864,0.049853,0.80469,0.64027
1.032,2.6784,-0.00048864,0.024438,0.81006,0.67498
1.04,2.6139,-0.00048864,0.039589,0.81494,0.66031
1.048,2.5386,-0.00048864,0.044477,0.81982,0.65494
1.056,2.4565,-0.00048864,0.049853,0.81494,0.65005
1.064,2.3705,-0.00048864,0.024438,0.83496,0.67009
1.072,2.2845,-0.00048864,0.014663,0.83984,0.68035
1.08,2.2014,-0.00048864,-0.00048876,0.84473,0.69013
1.088,2.1222,-0.00048864,-0.020528,0.84473,0.68035
1.096,2.0479,-0.00048864,-0.035191,0.86475,0.70528
1.104,1.9795,-0.00048864,-0.050342,0.875,0.71505
1.112,1.9179,-0.00048864,-0.045455,0.87988,0.71994
1.12,1.8612,-0.00048864,-0.05523,0.87988,0.70528
1.128,1.8162,-0.00048864,-0.065494,0.86475,0.72532
1.136,1.7781,-0.00048864,-0.040567,0.85498,0.71017
1.144,1.74,-0.00048864,-0.045455,0.83008,0.72532
1.152,1.7028,-0.00048864,0.044477,0.81006,0.67009
1.16,1.6686,-0.00048864,0.10948,0.77979,0.64027
1.168,1.6373,-0.00048864,0.15982,0.73486,0.60508
1.176,1.608,-0.00048864,0.15494,0.7002,0.63001
1.184,1.5806,0.019057,0.1999,0.6748,0.60508
1.192,1.5543,0.038602,0.18475,0.6499,0.62023
1.2,1.5298,0.055216,0.26002,0.65479,0.55523
1.208,1.5073,0.072074,0.2346,0.62988,0.58504
1.216,1.4858,0.079893,0.22972,0.62012,0.58016
1.224,1.4653,0.087711,0.24976,0.63477,0.58504
1.232,1.4497,0.088199,0.24487,0.62988,0.565
1.24,1.436,0.088688,0.26979,0.62988,0.55523
1.248,1.4203,0.082336,0.29472,0.64014,0.53519
1.256,1.4047,0.075983,0.3001,0.64502,0.54985
1.264,1.3891,0.057904,0.26491,0.63477,0.56012
1.272,1.3734,0.040068,0.26979,0.64502,0.56012
1.28,1.3558,0.01979,0.26002,0.66016,0.57527
1.288,1.3402,-0.00048864,0.28983,0.68506,0.54008
1.296,1.3294,-0.00048864,0.3001,0.69482,0.54497
1.304,1.3177,-0.00048864,0.35484,0.73975,0.49511
1.312,1.305,-0.00048864,0.39003,0.75977,0.49022
1.32,1.2933,-0.00048864,0.43011,0.71973,0.46481
1.328,1.2854,-0.00048864,0.435,0.68994,0.47019
1.336,1.2786,-0.00048864,0.43988,0.6748,0.44477
1.344,1.2678,-0.00048864,0.37977,0.66504,0.49511
1.352,1.2542,-0.00048864,0.29472,0.6748,0.54497
1.36,1.2405,-0.00048864,0.25464,0.69482,0.56012
1.368,1.2297,-0.00048864,0.23998,0.7002,0.56012
1.376,1.2326,-0.00048864,0.1999,0.68994,0.60508
1.384,1.2444,-0.00048864,0.1999,0.68994,0.60508
1.392,1.2639,-0.00048864,0.18964,0.69482,0.58504
1.4,1.3079,-0.00048864,0.21457,0.70508,0.56012
1.408,1.3754,-0.00048864,0.22483,0.7002,0.56989
1.416,1.4663,-0.00048864,0.20479,0.75488,0.58504
1.424,1.5621,-0.00048864,0.39492,0.78516,0.48485
1.432,1.6637,-0.00048864,0.86022,0.7749,0.21994
1.44,1.7859,-0.00048864,1.4658,0.77979,-0.13539
1.448,1.9169,-0.00048864,1.501,0.45508,-0.3607
1.456,2.0499,-0.00048864,1.3006,0.24023,-0.075269
1.464,2.1779,-0.00048864,0.90029,0.22998,0.22483
1.472,2.2962,-0.00048864,0.43011,0.56494,0.51515
1.48,2.4027,-0.00048864,0.089932,0.71484,0.6652
1.488,2.4966,-0.00048864,0.01955,0.75488,0.69013
1.496,2.5767,-0.00048864,-0.010264,0.76514,0.70528
1.504,2.6432,-0.00048864,-0.00048876,0.79004,0.68524
1.512,2.696,-0.00048864,0.01955,0.81006,0.67009
1.52,2.7351,-0.00048864,0.034702,0.81494,0.66031
1.528,2.7586,-0.00048864,-0.020528,0.80469,0.72532
1.536,2.7693,-0.00048864,-0.0053763,0.81006,0.70528
1.544,2.7732,-0.00048864,0.029814,0.83496,0.67498
1.552,2.7664,-0.00048864,0.049853,0.81982,0.65005
1.56,2.7478,-0.00048864,0.024438,0.81006,0.67009
1.568,2.7185,-0.00048864,0.014663,0.7998,0.68035
1.576,2.6764,-0.00048864,0.029814,0.79492,0.67009
1.584,2.6237,-0.00048864,0.0097752,0.78516,0.69013
1.592,2.5611,-0.00048864,0.054741,0.7998,0.65005
1.6,2.4907,-0.00048864,0.039589,0.78516,0.65005
1.608,2.4135,-0.00048864,0.024438,0.77979,0.6652
1.616,2.3324,-0.00048864,0.034702,0.79004,0.66031
1.624,2.259,-0.00048864,-0.0053763,0.78516,0.69501
1.632,2.1896,-0.00048864,-0.00048876,0.81006,0.67498
1.64,2.1153,-0.00048864,0.0043988,0.81982,0.67498
1.648,2.0411,-0.00048864,-0.0053763,0.8501,0.67498
1.656,1.9687,-0.00048864,-0.045455,0.86475,0.71505
1.664,1.9003,0.019546,-0.070381,0.85498,0.72532
1.672,1.8387,0.039824,-0.075269,0.87988,0.71017
1.68,1.784,0.072319,-0.065494,0.88477,0.70039
1.688,1.7351,0.10506,-0.080645,0.87988,0.71017
1.696,1.6921,0.13755,-0.080645,0.88477,0.71994
1.704,1.6549,0.17029,-0.040567,0.87988,0.69501
1.712,1.6217,0.19863,0.0097752,0.86475,0.66031
1.72,1.5924,0.22697,0.044477,0.83984,0.65494
1.728,1.5699,0.2514,0.094819,0.83496,0.6349
1.736,1.5503,0.27584,0.1696,0.82471,0.58504
1.744,1.5288,0.29685,0.15494,0.81494,0.59531
1.752,1.5073,0.31786,0.22972,0.81494,0.52981
1.76,1.4868,0.33545,0.25464,0.83008,0.52004
1.768,1.4663,0.35329,0.21994,0.81982,0.57527
1.776,1.4448,0.36501,0.21457,0.83496,0.58016
1.784,1.4252,0.37674,0.24976,0.83984,0.54008
1.792,1.4057,0.38334,0.24976,0.83008,0.54497
1.8,1.3871,0.38993,0.27468,0.83008,0.52493
1.808,1.3695,0.3936,0.24976,0.82471,0.54985
1.816,1.3529,0.39751,0.25464,0.83984,0.54008
1.824,1.3402,0.39922,0.26491,0.8501,0.53519
1.832,1.3294,0.40093,0.25464,0.83496,0.54497
1.84,1.3148,0.40191,0.28495,0.8501,0.51515
1.848,1.3001,0.40313,0.29472,0.85986,0.50489
1.856,1.2864,0.4041,0.28006,0.85986,0.52981
1.864,1.2717,0.40508,0.30987,0.87988,0.50978
1.872,1.2581,0.40777,0.33969,0.90479,0.5
1.88,1.2434,0.4107,0.38514,0.87988,0.47019
1.888,1.2287,0.41632,0.45503,0.84473,0.41496
1.896,1.2151,0.42194,0.45503,0.81494,0.41984
1.904,1.2014,0.4366,0.41007,0.79492,0.45992
1.912,1.1867,0.4515,0.34995,0.79004,0.5
1.92,1.173,0.47496,0.28006,0.7998,0.54008
1.928,1.1642,0.49866,0.21457,0.77979,0.58504
1.936,1.1613,0.53384,0.22972,0.78516,0.56989
1.944,1.1642,0.56902,0.1999,0.77002,0.56012
1.952,1.1789,0.61251,0.21994,0.78516,0.58504
1.96,1.2121,0.65624,0.15494,0.76514,0.60997
1.968,1.2698,0.69949,0.17498,0.75977,0.62023
1.976,1.3509,0.74298,0.1999,0.79004,0.58016
1.984,1.4555,0.785,0.2346,0.8501,0.565
1.992,1.5797,0.82727,0.58504,0.86475,0.37977
2,1.7175,0.86807,1.0606,0.83984,0.07478
2.008,1.8622,0.90911,1.501,0.70996,-0.25562
2.016,2.0078,0.94796,1.501,0.4248,-0.32063
2.024,2.131,0.98681,1.0103,0.33496,0.12952
2.032,2.2366,0.9934,0.76002,0.52002,0.32991
2.04,2.346,1,0.24487,0.77979,0.57527
2.048,2.4497,1,0.054741,0.84473,0.6652
2.056,2.5425,1,-0.015152,0.87012,0.70039
2.064,2.6227,1,-0.00048876,0.90479,0.68035
2.072,2.6891,1,0.0097752,0.93506,0.6652
2.08,2.7429,1,-0.010264,0.94971,0.69501
2.088,2.784,1,-0.015152,0.9751,0.68035
2.096,2.8143,1,0.014663,1,0.6652
2.104,2.8328,1,-0.0053763,1.0146,0.68524
2.112,2.8407,1,0.029814,1.0347,0.65005
2.12,2.8348,1,0.034702,1.0449,0.64516
2.128,2.8182,1,0.014663,1.0601,0.67498
2.136,2.7918,1,0.034702,1.0801,0.65494
2.144,2.7546,1,0.014663,1.0747,0.67498
2.152,2.7058,1,0.029814,1.0698,0.66031
2.16,2.6461,1,0.059629,1.0898,0.61486
2.168,2.5767,1,0.039589,1.1099,0.64516
2.176,2.5005,1,0.054741,1.1348,0.6349
2.184,2.4194,1,0.029814,1.125,0.65005
2.192,2.3372,1,0.01955,1.145,0.65494
2.2,2.2551,1,0.024438,1.1548,0.65005
2.208,2.175,1,0.0043988,1.1597,0.65494
2.216,2.0987,1,0.0097752,1.1748,0.64027
2.224,2.0352,1,-0.030303,1.1851,0.67009
2.232,1.9804,1,-0.070381,1.1699,0.71017
2.24,1.9247,1,-0.05523,1.1851,0.69501
2.248,1.871,1,-0.040567,1.165,0.67498
2.256,1.8211,1,-0.060606,1.1597,0.71017
2.264,1.7752,1,0.014663,1.1548,0.63001
2.272,1.7322,1,-0.00048876,1.1196,0.6652
2.28,1.6921,1,0.039589,1.0898,0.68035
2.288,1.6549,1,0.094819,1.0698,0.6349
2.296,1.6207,1,0.16471,1.0449,0.59531
2.304,1.5836,1,0.24487,1.02,0.52493
2.312,1.5523,1,0.26979,1,0.51515
2.32,1.5308,1,0.25464,0.96973,0.54497
2.328,1.5122,1,0.26491,0.94482,0.55523
2.336,1.4956,1,0.26979,0.9248,0.54497
2.344,1.4761,1,0.25464,0.90479,0.56012
2.352,1.4565,1,0.26979,0.8999,0.54985
2.36,1.437,1,0.24487,0.87988,0.58504
2.368,1.4184,1,0.26491,0.87988,0.56012
2.376,1.4008,1,0.28983,0.87012,0.54008
2.384,1.3842,1,0.29472,0.85498,0.52981
2.392,1.3685,1,0.30499,0.84473,0.52004
2.4,1.3509,1,0.26491,0.8501,0.56012
2.408,1.3353,1,0.23998,0.81494,0.58504
2.416,1.3245,1,0.26491,0.83496,0.565
2.424,1.3157,1,0.3001,0.84473,0.52981
2.432,1.3089,1,0.33969,0.8501,0.49511
2.44,1.263,1,0.39003,0.875,0.47507
2.448,1.1994,1,0.40469,0.81982,0.46481
2.456,1.1642,1,0.41496,0.77002,0.45992
2.464,1.1417,1,0.435,0.75488,0.43988
2.472,1.1261,1,0.38514,0.72998,0.48485
2.48,1.1134,1,0.31476,0.7251,0.52981
2.488,1.1036,1,0.22972,0.71973,0.57527
2.496,1.0987,1,0.21457,0.73975,0.58016
2.504,1.0978,1,0.1999,0.75488,0.56989
2.512,1.1046,1,0.18475,0.7749,0.58504
2.52,1.1281,1,0.20968,0.81006,0.55523
2.528,1.1877,1,0.21994,0.81494,0.54985
2.536,1.2522,1,0.18964,0.83008,0.56989
2.544,1.3148,0.98754,0.20968,0.89014,0.56012
2.552,1.4106,0.97532,0.27468,0.93994,0.53519
2.56,1.5308,0.92866,0.68524,0.94482,0.3001
2.568,1.6667,0.88199,1.2053,0.96973,-0.0053763
2.576,1.8104,0.82873,1.501,0.81494,-0.3607
2.584,1.955,0.77547,1.501,0.55518,-0.39589
2.592,2.0948,0.71854,0.93011,0.54004,0.1999
2.6,2.2268,0.66162,0.63001,0.90967,0.37977
2.608,2.347,0.61031,0.17498,1.145,0.57527
2.616,2.4536,0.55925,0.069892,1.2446,0.63001
2.624,2.5503,0.5138,0.024438,1.3149,0.65494
2.632,2.6207,0.4686,0.054741,1.395,0.61486
2.64,2.6686,0.42951,-0.0053763,1.4297,0.67009
2.648,2.7195,0.39042,0.014663,1.4697,0.65494
2.656,2.7625,0.35744,0.014663,1.5,0.65494
2.664,2.7869,0.3247,0.039589,1.5,0.6349
2.672,2.7986,0.30344,-0.0053763,1.5,0.68035
2.68,2.7986,0.28219,0.014663,1.5,0.65494
2.688,2.7752,0.27266,0.034702,1.5,0.64027
2.696,2.7439,0.26313,0.064516,1.5,0.6002
2.704,2.7136,0.27242,0.069892,1.5,0.60508
2.712,2.6442,0.28194,0.034702,1.5,0.65494
2.72,2.5572,0.30809,0.029814,1.4897,0.64027
2.728,2.5005,0.33423,0.059629,1.4897,0.60997
2.736,2.4497,0.37625,0.079668,1.4746,0.60508
2.744,2.3548,0.41852,0.044477,1.48,0.63001
2.752,2.2395,0.47203,0.059629,1.46,0.60508
2.76,2.1613,0.52578,-0.0053763,1.4399,0.67009
2.768,2.1017,0.58099,-0.010264,1.4248,0.6652
2.776,2.0137,0.63621,-0.035191,1.4097,0.68035
2.784,1.9179,0.69069,-0.05523,1.4146,0.69013
2.792,1.8407,0.74542,-0.050342,1.4048,0.68035
2.8,1.7752,0.79624,-0.040567,1.3999,0.6652
2.808,1.7204,0.84706,-0.065494,1.4146,0.68524
2.816,1.6784,0.89323,-0.085533,1.3696,0.70039
2.824,1.653,0.93941,-0.11046,1.3447,0.72532
2.832,1.6237,0.9697,-0.050342,1.3296,0.67498
2.84,1.5865,1,0.0043988,1.3247,0.6349
2.848,1.5611,1,0.034702,1.29,0.65005
2.856,1.5376,1,0.094819,1.2646,0.61486
2.864,1.5122,1,0.12463,1.2397,0.6002
2.872,1.4936,1,0.17498,1.2046,0.57527
2.88,1.48,1,0.22483,1.1851,0.53519
2.888,1.4702,1,0.24976,1.1597,0.52004
2.896,1.4643,1,0.20968,1.1348,0.56989
2.904,1.4614,1,0.18475,1.1001,0.58993
2.912,1.4604,1,0.17986,1.0801,0.59531
2.92,1.4624,1,0.22972,1.0601,0.55523
2.928,1.4663,1,0.24976,1.0449,0.53519
2.936,1.4702,1,0.26491,1.0249,0.54008
2.944,1.4751,1,0.26979,0.98975,0.52004
2.952,1.48,1,0.24976,0.9751,0.54985
2.96,1.4848,1,0.28006,0.96973,0.52493
2.968,1.4888,1,0.28495,0.94971,0.52004
2.976,1.4936,1,0.24487,0.9248,0.55523
2.984,1.5005,1,0.26491,0.92969,0.56012
2.992,1.5073,0.99096,0.28495,0.93506,0.53519
3,1.5142,0.98192,0.32991,0.95996,0.5
3.008,1.523,0.96262,0.38514,0.9751,0.47996
3.016,1.5327,0.94332,0.44477,0.91504,0.42473
3.024,1.5406,0.92622,0.41496,0.86475,0.47507
3.032,1.5474,0.90936,0.37977,0.83496,0.50978
3.04,1.5533,0.8947,0.39003,0.83984,0.48485
3.048,1.5562,0.88028,0.32991,0.81006,0.50978
3.056,1.5582,0.86953,0.24976,0.81006,0.565
3.064,1.563,0.85903,0.2346,0.81006,0.57527
3.072,1.5738,0.85145,0.24976,0.81006,0.54497
3.08,1.5973,0.84412,0.18964,0.77979,0.60508
3.088,1.6383,0.83826,0.22483,0.79004,0.565
3.096,1.6989,0.83264,0.19501,0.77979,0.58993
3.104,1.7801,0.82751,0.17498,0.76514,0.62023
3.112,1.8641,0.82238,0.22483,0.82471,0.58016
3.12,1.9531,0.81505,0.37977,0.85986,0.49511
3.128,2.0645,0.80796,0.83529,0.83984,0.23998
3.136,2.1877,0.79868,1.4409,0.85498,-0.12561
3.144,2.3128,0.7894,1.501,0.54492,-0.39052
3.152,2.434,0.7784,1.4154,0.26025,-0.14565
3.16,2.5445,0.76765,0.8651,0.31494,0.26002
3.168,2.6422,0.7547,0.53519,0.6001,0.45503
3.176,2.7253,0.74175,0.14467,0.75977,0.62512
3.184,2.7937,0.72123,0.089932,0.79004,0.6349
3.192,2.8465,0.70095,0.034702,0.81006,0.67498
3.2,2.8866,0.67383,0.054741,0.81982,0.64516
3.208,2.915,0.64696,-0.015152,0.7998,0.71017
3.216,2.9277,0.61398,-0.010264,0.7998,0.70039
3.224,2.9277,0.58124,0.014663,0.81006,0.68035
3.232,2.9208,0.54483,0.039589,0.7998,0.65494
3.24,2.9042,0.50843,0.034702,0.7998,0.66031
3.248,2.8768,0.47447,0.024438,0.79492,0.67498
3.256,2.8387,0.44051,0.039589,0.79492,0.65494
3.264,2.7898,0.40924,0.034702,0.79004,0.6652
3.272,2.7292,0.37796,0.029814,0.78516,0.66031
3.28,2.6598,0.34816,0.044477,0.76514,0.67498
3.288,2.5806,0.31859,0.01955,0.77002,0.67498
3.296,2.4946,0.29074,0.054741,0.78516,0.64027
3.304,2.4047,0.26313,0.069892,0.79004,0.62512
3.312,2.3216,0.24188,0.07478,0.7998,0.64516
3.32,2.2434,0.22062,0.029814,0.7749,0.6652
3.328,2.1584,0.20523,-0.00048876,0.77979,0.68524
3.336,2.0733,0.19008,0.01955,0.79004,0.6652
3.344,1.9912,0.18129,-0.00048876,0.79004,0.67498
3.352,1.914,0.17273,0.0097752,0.80469,0.66031
3.36,1.8426,0.1698,-0.035191,0.79492,0.68524
3.368,1.7761,0.16711,-0.045455,0.79492,0.70039
3.376,1.7155,0.17078,-0.05523,0.78516,0.69013
3.384,1.6598,0.17469,-0.065494,0.7998,0.71505
3.392,1.607,0.18348,-0.070381,0.78516,0.71017
3.4,1.5582,0.19228,0.0097752,0.77979,0.64027
3.408,1.5132,0.2023,0.01955,0.74512,0.6652
3.416,1.478,0.21256,0.014663,0.69482,0.69013
3.424,1.4487,0.22331,0.11975,0.6748,0.62512
3.432,1.4174,0.2343,0.18964,0.63477,0.58504
3.44,1.3871,0.24701,0.20968,0.58008,0.58016
3.448,1.3578,0.25971,0.23998,0.53516,0.565
3.456,1.3294,0.27364,0.22972,0.47998,0.56989
3.464,1.3021,0.28756,0.25464,0.4502,0.55523
3.472,1.2747,0.30027,0.27468,0.4248,0.54497
3.48,1.2483,0.31297,0.24487,0.39014,0.58504
3.488,1.2229,0.32421,0.25464,0.375,0.58993
3.496,1.1984,0.33545,0.28983,0.37988,0.54008
3.504,1.175,0.344,0.27468,0.35498,0.53519
3.512,1.1564,0.3528,0.31965,0.375,0.55523
3.52,1.1417,0.35891,0.28006,0.34521,0.56989
3.528,1.1251,0.36526,0.25464,0.3501,0.6002
3.536,1.1095,0.36721,0.32991,0.375,0.50978
3.544,1.0958,0.36917,0.35484,0.38525,0.49022
3.552,1.0831,0.3677,0.3001,0.3999,0.56989
3.56,1.0714,0.36648,0.28495,0.41504,0.58016
3.568,1.0606,0.36306,0.35973,0.43994,0.50978
3.576,1.0508,0.35964,0.3998,0.45996,0.48485
3.584,1.0411,0.35377,0.46481,0.43506,0.49511
3.592,1.0303,0.34816,0.47996,0.39502,0.43988
3.6,1.0176,0.33667,0.45992,0.37988,0.45992
3.608,1.0049,0.32543,0.46481,0.39502,0.45015
3.616,0.99707,0.30955,0.30499,0.39014,0.58016
3.624,0.99413,0.29367,0.28495,0.4248,0.58504
3.632,0.99511,0.27584,0.3348,0.44482,0.50489
3.64,1.0059,0.25825,0.24976,0.44482,0.57527
3.648,1.0342,0.23797,0.21457,0.43506,0.6002
3.656,1.085,0.21793,0.1999,0.45996,0.61486
3.664,1.1603,0.18886,0.21457,0.47021,0.60508
3.672,1.259,0.15979,0.21994,0.47998,0.58993
3.68,1.3793,0.12216,0.24487,0.54004,0.56989
3.688,1.5132,0.084779,0.48485,0.58984,0.43988
3.696,1.654,0.042023,0.91007,0.56982,0.21994
3.704,1.7957,-0.00048864,1.501,0.5752,-0.12023
3.712,1.915,-0.00048864,1.501,0.2251,-0.39052
3.72,2.0186,-0.00048864,1.3456,-0.0097656,-0.1002
3.728,2.1241,-0.00048864,0.90518,0.1001,0.2346
3.736,2.2248,-0.00048864,0.47507,0.3999,0.47996
3.744,2.3148,-0.00048864,0.10459,0.5498,0.68524
3.752,2.393,-0.00048864,0.044477,0.59521,0.70528
3.76,2.4575,-0.00048864,0.044477,0.61475,0.68035
3.768,2.5083,-0.00048864,0.01955,0.625,0.70039
3.776,2.5474,-0.00048864,0.079668,0.6499,0.64027
3.784,2.5748,-0.00048864,-0.00048876,0.64502,0.73021
3.792,2.5904,-0.00048864,0.029814,0.66016,0.68035
3.8,2.5943,-0.00048864,0.044477,0.66992,0.6652
3.808,2.5865,-0.00048864,0.024438,0.6748,0.68524
3.816,2.5689,-0.00048864,-0.015152,0.66016,0.73021
3.824,2.5415,-0.00048864,0.029814,0.68506,0.68524
3.832,2.5024,-0.00048864,0.049853,0.7002,0.67009
3.84,2.4526,-0.00048864,0.059629,0.7002,0.65494
3.848,2.392,-0.00048864,0.069892,0.71484,0.64516
3.856,2.3226,-0.00048864,0.084555,0.71973,0.62512
3.864,2.2444,-0.00048864,0.044477,0.71484,0.67498
3.872,2.1613,-0.00048864,0.01955,0.70996,0.69013
3.88,2.0753,-0.00048864,0.0097752,0.71484,0.70528
3.888,1.9902,-0.00048864,0.039589,0.74512,0.6652
3.896,1.9081,-0.00048864,0.0097752,0.73486,0.65494
3.904,1.8299,-0.00048864,0.0043988,0.75488,0.68524
3.912,1.7654,-0.00048864,0.014663,0.76514,0.67498
3.92,1.7116,-0.00048864,-0.010264,0.77979,0.68524
3.928,1.6569,-0.00048864,-0.050342,0.79004,0.71505
3.936,1.6051,-0.00048864,-0.035191,0.80469,0.70039
3.944,1.5562,-0.00048864,-0.025415,0.81006,0.68035
3.952,1.5122,-0.00048864,-0.050342,0.79492,0.71017
3.96,1.4721,-0.00048864,-0.080645,0.78516,0.74536
3.968,1.436,-0.00048864,-0.035191,0.77002,0.71505
3.976,1.4047,-0.00048864,0.024438,0.75977,0.67498
3.984,1.3773,-0.00048864,0.089932,0.73486,0.63001
3.992,1.3548,-0.00048864,0.10459,0.70508,0.65494
4,1.3363,-0.00048864,0.1999,0.68994,0.57527
4.008,1.3206,-0.00048864,0.22483,0.6748,0.55523
4.016,1.3099,-0.00048864,0.21994,0.66016,0.58504
4.024,1.3021,-0.00048864,0.24487,0.6499,0.56989
4.032,1.2913,-0.00048864,0.20479,0.63477,0.59531
4.04,1.2805,-0.00048864,0.23998,0.64502,0.57527
4.048,1.2688,-0.00048864,0.26002,0.6499,0.54985
4.056,1.2571,-0.00048864,0.29472,0.64014,0.52004
4.064,1.2454,-0.00048864,0.24976,0.64502,0.565
4.072,1.2336,-0.00048864,0.28495,0.65479,0.54497
4.08,1.2229,-0.00048864,0.22483,0.64014,0.6002
4.088,1.2131,-0.00048864,0.22483,0.6499,0.60997
4.096,1.2053,-0.00048864,0.26491,0.64014,0.565
4.104,1.1994,-0.00048864,0.3001,0.66992,0.52981
4.112,1.1975,-0.00048864,0.28983,0.6748,0.54985
4.12,1.1984,-0.00048864,0.31965,0.69482,0.55523
4.128,1.1965,-0.00048864,0.33969,0.71484,0.5
4.136,1.1935,-0.00048864,0.3001,0.73975,0.54008
4.144,1.1896,-0.00048864,0.41496,0.71973,0.47996
4.152,1.1838,-0.00048864,0.43011,0.6748,0.49022
4.16,1.1769,-0.00048864,0.435,0.6499,0.46481
4.168,1.1672,-0.00048864,0.435,0.64502,0.44477
4.176,1.1564,-0.00048864,0.37977,0.6499,0.48485
4.184,1.1466,-0.00048864,0.3001,0.66992,0.53519
4.192,1.1408,-0.00048864,0.23998,0.65479,0.57527
4.2,1.1437,-0.00048864,0.22483,0.66992,0.58504
4.208,1.1603,-0.00048864,0.23998,0.6748,0.56989
4.216,1.1896,-0.00048864,0.18964,0.6499,0.60997
4.224,1.2366,-0.00048864,0.21457,0.66992,0.58016
4.232,1.3109,-0.00048864,0.20479,0.6499,0.58504
4.24,1.4106,-0.00048864,0.20479,0.6748,0.6002
4.248,1.5318,-0.00048864,0.1999,0.74512,0.60997
4.256,1.6686,-0.00048864,0.61486,0.75,0.38514
4.264,1.8133,-0.00048864,1.1505,0.74512,0.049853
4.272,1.958,-0.00048864,1.501,0.59521,-0.33578
4.28,2.0968,-0.00048864,1.501,0.28027,-0.42571
4.288,2.2258,-0.00048864,1.0406,0.18994,0.12952
4.296,2.3441,-0.00048864,0.74536,0.37988,0.35484
4.304,2.4487,-0.00048864,0.21994,0.65479,0.60997
4.312,2.5269,-0.00048864,0.084555,0.72998,0.66031
4.32,2.5865,-0.00048864,0.029814,0.75977,0.69013
4.328,2.6422,-0.00048864,0.029814,0.78516,0.69501
4.336,2.6891,-0.00048864,0.024438,0.78516,0.67498
4.344,2.7263,-0.00048864,0.034702,0.7998,0.6652
4.352,2.7517,-0.00048864,0.044477,0.81006,0.65494
4.36,2.7664,-0.00048864,0.01955,0.81494,0.68035
4.368,2.7703,-0.00048864,0.039589,0.83496,0.67009
4.376,2.7644,-0.00048864,0.0097752,0.83984,0.71505
4.384,2.7478,-0.00048864,0.049853,0.83496,0.67498
4.392,2.7195,-0.00048864,0.059629,0.85498,0.65494
4.4,2.6784,-0.00048864,0.014663,0.85986,0.67498
4.408,2.6266,-0.00048864,0.084555,0.83496,0.61486
4.416,2.5728,-0.00048864,0.054741,0.83496,0.6652
4.424,2.5132,-0.00048864,0.059629,0.8501,0.65005
4.432,2.4418,-0.00048864,0.044477,0.84473,0.6652
4.44,2.3617,-0.00048864,0.079668,0.86475,0.6349
4.448,2.2776,-0.00048864,0.039589,0.83984,0.67498
4.456,2.1906,-0.00048864,0.0097752,0.85986,0.70039
4.464,2.1056,-0.00048864,0.029814,0.87012,0.67009
4.472,2.0225,-0.00048864,0.059629,0.87988,0.64027
4.48,1.9531,-0.00048864,-0.00048876,0.88477,0.69501
4.488,1.8944,-0.00048864,-0.035191,0.875,0.72532
4.496,1.8377,-0.00048864,-0.045455,0.87988,0.71017
4.504,1.7849,-0.00048864,-0.05523,0.85498,0.71505
4.512,1.7419,-0.00048864,-0.045455,0.875,0.70528
4.52,1.7067,-0.00048864,-0.05523,0.8501,0.71505
4.528,1.6706,-0.00048864,0.029814,0.84473,0.66031
4.536,1.6364,-0.00048864,0.069892,0.81006,0.62512
4.544,1.6041,-0.00048864,0.044477,0.75977,0.68035
4.552,1.5748,-0.00048864,0.089932,0.72998,0.67009
4.56,1.5474,-0.00048864,0.1696,0.70508,0.61486
4.568,1.522,-0.00048864,0.19501,0.68994,0.60997
4.576,1.4976,-0.00048864,0.20479,0.68994,0.62512
4.584,1.4731,-0.00048864,0.22483,0.7002,0.58504
4.592,1.4506,-0.00048864,0.26979,0.70996,0.55523
4.6,1.4272,-0.00048864,0.27468,0.71484,0.565
4.608,1.4037,-0.00048864,0.23998,0.7251,0.6002
4.616,1.3861,-0.00048864,0.26491,0.73975,0.565
4.624,1.3715,-0.00048864,0.28495,0.75977,0.54985
4.632,1.3548,-0.00048864,0.27468,0.76514,0.565
4.64,1.3372,-0.00048864,0.29472,0.79004,0.53519
4.648,1.3216,-0.00048864,0.26979,0.78516,0.56989
4.656,1.3079,-0.00048864,0.28006,0.77979,0.56012
4.664,1.2962,-0.00048864,0.25464,0.78516,0.57527
4.672,1.2854,-0.00048864,0.28006,0.7749,0.56989
4.68,1.2737,-0.00048864,0.31965,0.77979,0.52981
4.688,1.262,-0.00048864,0.3348,0.80469,0.52493
4.696,1.2493,-0.00048864,0.32991,0.80469,0.50978
4.704,1.2346,-0.00048864,0.3998,0.83496,0.48485
4.712,1.2229,-0.00048864,0.41496,0.7998,0.47507
4.72,1.2111,-0.00048864,0.42473,0.76514,0.49022
4.728,1.1926,-0.00048864,0.41496,0.75488,0.47019
4.736,1.1711,-0.00048864,0.41984,0.7749,0.46481
4.744,1.1496,-0.00048864,0.33969,0.79492,0.51515
4.752,1.13,-0.00048864,0.30987,0.81494,0.50978
4.76,1.1173,-0.00048864,0.23998,0.82471,0.58504
4.768,1.1153,-0.00048864,0.24976,0.81982,0.565
4.776,1.13,-0.00048864,0.22483,0.80469,0.59531
4.784,1.1672,-0.00048864,0.20479,0.81006,0.6002
4.792,1.2278,-0.00048864,0.19501,0.7998,0.60508
4.8,1.3109,-0.00048864,0.22972,0.82471,0.565
4.808,1.4164,-0.00048864,0.18475,0.91992,0.60997
4.816,1.522,-0.00048864,0.3998,0.96973,0.47996
4.824,1.6285,-0.00048864,0.82014,0.95508,0.25464
4.832,1.7537,-0.00048864,1.4355,0.98486,-0.1305
4.84,1.8856,-0.00048864,1.501,0.70508,-0.38074
4.848,2.0156,-0.00048864,1.3358,0.47021,-0.1002
4.856,2.1388,-0.00048864,0.96041,0.5498,0.18964
4.864,2.2522,-0.00048864,0.50978,0.83496,0.45503
4.872,2.3529,-0.00048864,0.11975,0.94482,0.65005
4.88,2.4399,-0.00048864,0.049853,0.97998,0.67498
4.888,2.5122,-0.00048864,0.0043988,0.98975,0.70039
4.896,2.5689,-0.00048864,0.024438,0.9751,0.68035
4.904,2.6119,-0.00048864,-0.025415,0.96973,0.73998
4.912,2.6373,-0.00048864,0.014663,0.97998,0.69013
4.92,2.65,-0.00048864,0.01955,0.96973,0.68524
4.928,2.6579,-0.00048864,0.0043988,0.95996,0.70039
4.936,2.6579,-0.00048864,0.034702,0.9751,0.67498
4.944,2.6491,-0.00048864,0.0043988,0.96484,0.70039
4.952,2.6285,-0.00048864,0.014663,0.95508,0.67498
4.96,2.5953,-0.00048864,-0.010264,0.95996,0.71017
4.968,2.5503,-0.00048864,0.034702,0.93994,0.67498
4.976,2.4927,-0.00048864,0.034702,0.9248,0.68035
4.984,2.4252,-0.00048864,0.044477,0.90479,0.66031
4.992,2.3509,-0.00048864,-0.010264,0.88477,0.71505
5,2.2708,-0.00048864,0.034702,0.87988,0.67009
5.008,2.1965,-0.00048864,0.049853,0.85986,0.6652
5.016,2.1271,-0.00048864,0.01955,0.81982,0.67009
5.024,2.0508,-0.00048864,0.0097752,0.81494,0.69013
5.032,1.9736,-0.00048864,0.014663,0.81006,0.67498
5.04,1.8993,-0.00048864,-0.040567,0.80469,0.71017
5.048,1.8299,-0.00048864,-0.020528,0.79004,0.69013
5.056,1.7664,-0.00048864,-0.060606,0.7749,0.73509
5.064,1.7067,-0.00048864,-0.060606,0.7749,0.73021
5.072,1.652,-0.00048864,-0.05523,0.77979,0.71994
5.08,1.6012,-0.00048864,-0.075269,0.77002,0.73998
5.088,1.5543,-0.00048864,-0.045455,0.75977,0.71017
5.096,1.5112,-0.00048864,-0.05523,0.75,0.71994
5.104,1.4731,-0.00048864,0.014663,0.73486,0.69013
5.112,1.4438,-0.00048864,0.054741,0.70508,0.67498
5.12,1.4194,-0.00048864,0.099707,0.68506,0.64516
5.128,1.392,-0.00048864,0.1349,0.6499,0.64027
5.136,1.3646,-0.00048864,0.1999,0.64014,0.59531
5.144,1.3392,-0.00048864,0.1999,0.62012,0.6002
5.152,1.3157,-0.00048864,0.26002,0.625,0.54985
5.16,1.2933,-0.00048864,0.26002,0.61475,0.54985
5.168,1.2708,-0.00048864,0.23998,0.59521,0.58016
5.176,1.2493,-0.00048864,0.24976,0.58008,0.58504
5.184,1.2287,-0.00048864,0.24976,0.56494,0.57527
5.192,1.2092,-0.00048864,0.2346,0.56006,0.59531
5.2,1.1896,-0.00048864,0.22972,0.56982,0.56989
5.208,1.175,-0.00048864,0.25464,0.58008,0.55523
5.216,1.1613,-0.00048864,0.29472,0.56494,0.53519
5.224,1.1437,-0.00048864,0.24976,0.56982,0.58016
5.232,1.1241,-0.00048864,0.30499,0.56006,0.52004
5.24,1.1046,-0.00048864,0.24976,0.56982,0.57527
5.248,1.085,-0.00048864,0.26979,0.5752,0.565
5.256,1.0665,-0.00048864,0.32502,0.58984,0.50489
5.264,1.0479,-0.00048864,0.37488,0.60986,0.45992
5.272,1.0303,-0.00048864,0.36999,0.58008,0.5
5.28,1.0137,-0.00048864,0.40469,0.54004,0.48485
5.288,0.99609,-0.00048864,0.3998,0.50488,0.49022
5.296,0.97752,-0.00048864,0.3998,0.50977,0.47019
5.304,0.95797,-0.00048864,0.35973,0.51514,0.50978
5.312,0.94428,-0.00048864,0.3001,0.50488,0.52004
5.32,0.93451,-0.00048864,0.26002,0.5249,0.55523
5.328,0.92766,-0.00048864,0.20968,0.51514,0.58504
5.336,0.93157,-0.00048864,0.21994,0.5249,0.56989
5.344,0.95308,-0.00048864,0.1696,0.52002,0.62023
5.352,0.99609,-0.00048864,0.19501,0.52979,0.59531
5.36,1.0655,-0.00048864,0.1999,0.5249,0.58993
5.368,1.1603,-0.00048864,0.18964,0.56006,0.6002
5.376,1.2776,-0.00048864,0.25464,0.6499,0.55523
5.384,1.4135,-0.00048864,0.57527,0.62988,0.3998
5.392,1.5601,-0.00048864,1.0704,0.63477,0.10948
5.4,1.7107,-0.00048864,1.501,0.5,-0.2654
5.408,1.8397,-0.00048864,1.501,0.20508,-0.32551
5.416,1.955,-0.00048864,1.0455,0.11523,0.11486
5.424,2.0753,-0.00048864,0.7654,0.29004,0.33969
5.432,2.1906,-0.00048864,0.29472,0.5752,0.54497
5.44,2.2962,-0.00048864,0.07478,0.63477,0.65494
5.448,2.391,-0.00048864,0.0043988,0.66504,0.71017
5.456,2.4721,-0.00048864,-0.040567,0.6748,0.75024
5.464,2.5406,-0.00048864,-0.015152,0.68994,0.71017
5.472,2.5953,-0.00048864,-0.045455,0.7002,0.74536
5.48,2.6383,-0.00048864,-0.020528,0.70508,0.71505
5.488,2.6696,-0.00048864,-0.010264,0.70508,0.71017
5.496,2.6882,-0.00048864,0.039589,0.72998,0.65005
5.504,2.695,-0.00048864,0.0097752,0.71973,0.69013
5.512,2.6882,-0.00048864,-0.00048876,0.71484,0.69501
5.52,2.6696,-0.00048864,-0.030303,0.71484,0.73021
5.528,2.6403,-0.00048864,-0.00048876,0.73486,0.70039
5.536,2.5982,-0.00048864,0.01955,0.7251,0.67498
5.544,2.5445,-0.00048864,0.0097752,0.71973,0.69501
5.552,2.48,-0.00048864,0.014663,0.73486,0.68524
5.56,2.4066,-0.00048864,0.0043988,0.72998,0.69013
5.568,2.3255,-0.00048864,0.029814,0.75488,0.65494
5.576,2.2405,-0.00048864,0.07478,0.76514,0.60508
5.584,2.1554,-0.00048864,-0.00048876,0.73975,0.67498
5.592,2.0723,-0.00048864,-0.045455,0.74512,0.72532
5.6,1.9932,-0.00048864,-0.05523,0.73975,0.70528
5.608,1.9267,-0.00048864,-0.035191,0.76514,0.70039
5.616,1.869,-0.00048864,-0.070381,0.77979,0.71994
5.624,1.8113,-0.00048864,-0.075269,0.78516,0.70039
5.632,1.7556,-0.00048864,-0.075269,0.79004,0.70528
5.64,1.7038,-0.00048864,-0.080645,0.79492,0.70039
5.648,1.6569,-0.00048864,-0.075269,0.77979,0.70039
5.656,1.6139,-0.00048864,-0.09042,0.75977,0.71994
5.664,1.5738,-0.00048864,-0.025415,0.77002,0.67009
5.672,1.5376,-0.00048864,0.01955,0.71484,0.65494
5.68,1.5034,-0.00048864,0.064516,0.68994,0.65005
5.688,1.4731,-0.00048864,0.11975,0.66016,0.61486
5.696,1.4438,-0.00048864,0.16471,0.62012,0.59531
5.704,1.4154,-0.00048864,0.19501,0.59521,0.58016
5.712,1.393,-0.00048864,0.20479,0.56494,0.58504
5.72,1.3754,-0.00048864,0.23998,0.54492,0.54497
5.728,1.3529,-0.00048864,0.24487,0.5249,0.54008
5.736,1.3294,-0.00048864,0.22972,0.51514,0.56012
5.744,1.3069,-0.00048864,0.23998,0.50488,0.55523
5.752,1.2845,-0.00048864,0.21994,0.5,0.56989
5.76,1.263,-0.00048864,0.24487,0.50488,0.56012
5.768,1.2405,-0.00048864,0.22972,0.51514,0.565
5.776,1.218,-0.00048864,0.25464,0.5,0.54497
5.784,1.1965,-0.00048864,0.24976,0.50488,0.56012
5.792,1.176,-0.00048864,0.27468,0.52002,0.52981
5.8,1.1574,-0.00048864,0.24976,0.51514,0.56012
5.808,1.1437,-0.00048864,0.28006,0.54492,0.52493
5.816,1.1349,-0.00048864,0.26979,0.5498,0.54985
5.824,1.1241,-0.00048864,0.29472,0.56494,0.52493
5.832,1.1134,-0.00048864,0.3348,0.58984,0.50489
5.84,1.1017,-0.00048864,0.3998,0.56494,0.46481
5.848,1.0899,-0.00048864,0.43011,0.5249,0.44477
5.856,1.0772,-0.00048864,0.41007,0.50488,0.46481
5.864,1.0635,-0.00048864,0.37977,0.50977,0.48485
5.872,1.0508,0.00073296,0.28495,0.47998,0.55523
5.88,1.0411,0.0019546,0.22972,0.49023,0.58504
5.888,1.0371,0.043,0.1999,0.48486,0.6002
5.896,1.0459,0.08429,0.20479,0.49512,0.57527
5.904,1.0723,0.1268,0.17986,0.5,0.59531
5.912,1.1114,0.16931,0.1696,0.48486,0.60508
5.92,1.1681,0.21256,0.17498,0.50488,0.60508
5.928,1.2532,0.25605,0.1696,0.50488,0.61486
5.936,1.3636,0.29612,0.17498,0.5498,0.60997
5.944,1.4946,0.33643,0.30499,0.60986,0.53519
5.952,1.6403,0.37259,0.74536,0.59521,0.28495
5.96,1.7937,0.40899,1.3504,0.6001,-0.065494
5.968,1.9482,0.43831,1.501,0.375,-0.34555
5.976,2.0997,0.46763,1.4457,0.12012,-0.15054
5.984,2.2424,0.49059,0.88514,0.084961,0.22972
5.992,2.3734,0.51356,0.565,0.37988,0.42473
6,2.4907,0.52944,0.13978,0.56006,0.62023
6.008,2.5787,0.54557,0.0043988,0.59521,0.71017
6.016,2.6471,0.55558,-0.010264,0.62012,0.70528
6.024,2.7136,0.5656,-0.035191,0.62988,0.71505
6.032,2.7703,0.56926,-0.020528,0.65479,0.72532
6.04,2.8152,0.57293,-0.0053763,0.66016,0.69501
6.048,2.8485,0.57049,-0.020528,0.6499,0.71017
6.056,2.869,0.56829,-0.010264,0.66992,0.70039
6.064,2.8749,0.55607,0.0043988,0.6748,0.69501
6.072,2.8671,0.5441,0.0097752,0.68018,0.70039
6.08,2.8446,0.52333,-0.00048876,0.68994,0.69013
6.088,2.8074,0.50281,0.0097752,0.68506,0.70039
6.096,2.7556,0.47422,-0.015152,0.69482,0.70528
6.104,2.6921,0.44588,0.034702,0.71484,0.67498
6.112,2.6256,0.41241,0.01955,0.71973,0.69013
6.12,2.5552,0.37894,0.024438,0.71484,0.67498
6.128,2.4721,0.34767,0.044477,0.73975,0.65494
6.136,2.3822,0.31639,0.049853,0.75,0.64516
6.144,2.2903,0.28781,0.014663,0.76514,0.67498
6.152,2.1984,0.25947,0.014663,0.7749,0.67009
6.16,2.1085,0.23284,-0.010264,0.78516,0.69501
6.168,2.0225,0.20621,-0.0053763,0.7998,0.68524
6.176,1.9423,0.18153,-0.020528,0.81494,0.69501
6.184,1.868,0.1571,-0.035191,0.82471,0.69501
6.192,1.8006,0.13804,-0.085533,0.81494,0.73509
6.2,1.741,0.11898,-0.1002,0.81494,0.73998
6.208,1.6921,0.10506,-0.1002,0.82471,0.73021
6.216,1.651,0.091131,-0.060606,0.81494,0.70039
6.224,1.609,0.082336,-0.05523,0.81006,0.71505
6.232,1.5679,0.07354,-0.025415,0.7749,0.70039
6.24,1.5288,0.068654,0.024438,0.75488,0.68035
6.248,1.4927,0.063767,0.11486,0.73975,0.61486
6.256,1.4594,0.061324,0.16471,0.7251,0.6002
6.264,1.4272,0.059125,0.19501,0.70996,0.58504
6.272,1.3959,0.058637,0.20479,0.68994,0.58504
6.28,1.3656,0.058148,0.1999,0.66992,0.58016
6.288,1.3372,0.057904,0.21457,0.66992,0.59531
6.296,1.3099,0.057904,0.26002,0.66992,0.54008
6.304,1.2835,0.057659,0.22483,0.66992,0.58993
6.312,1.263,0.057415,0.20968,0.6748,0.6002
6.32,1.2463,0.055461,0.26491,0.68018,0.54497
6.328,1.2278,0.053506,0.2346,0.66992,0.58504
6.336,1.2072,0.050086,0.26491,0.68994,0.55523
6.344,1.1877,0.046665,0.24976,0.66992,0.56989
6.352,1.1681,0.043245,0.26979,0.68018,0.54985
6.36,1.1486,0.039824,0.26002,0.66992,0.55523
6.368,1.129,0.035915,0.26979,0.68018,0.54497
6.376,1.1095,0.03225,0.26491,0.70508,0.55523
6.384,1.0919,0.025898,0.3001,0.7002,0.52004
6.392,1.0762,0.01979,0.33969,0.71973,0.48485
6.4,1.0596,0.011727,0.38514,0.72998,0.47019
6.408,1.0479,0.0036648,0.40469,0.66992,0.48485
6.416,1.0391,0.0014659,0.43011,0.64502,0.45015
6.424,1.0264,-0.00048864,0.41007,0.63477,0.46481
6.432,1.0117,-0.00048864,0.37488,0.62012,0.48485
6.44,0.99804,-0.00048864,0.3001,0.62988,0.52981
6.448,0.98729,-0.00048864,0.26979,0.625,0.52493
6.456,0.98338,-0.00048864,0.23998,0.64502,0.54497
6.464,0.99022,-0.00048864,0.1999,0.62988,0.58016
6.472,1.0147,-0.00048864,0.22483,0.64502,0.56012
6.48,1.0626,-0.00048864,0.1999,0.62988,0.58504
6.488,1.1359,-0.00048864,0.20968,0.63477,0.56989
6.496,1.2336,-0.00048864,0.1999,0.64014,0.58504
6.504,1.3529,-0.00048864,0.22972,0.70996,0.56012
6.512,1.4702,-0.00048864,0.49022,0.7251,0.42473
6.52,1.5875,-0.00048864,0.97019,0.68994,0.1349
6.528,1.7478,-0.00048864,1.501,0.61475,-0.22532
6.536,1.9267,-0.00048864,1.501,0.37012,-0.35044
6.544,2.0841,0.011239,1.1457,0.20508,0.024438
6.552,2.2239,0.022966,0.83529,0.30029,0.26491
6.56,2.348,0.04129,0.34995,0.5752,0.52981
6.568,2.4545,0.059858,0.089932,0.6748,0.64027
6.576,2.5455,0.082336,0.0097752,0.68994,0.70039
6.584,2.6217,0.10506,-0.00048876,0.70508,0.68035
6.592,2.6833,0.13047,-0.020528,0.71484,0.69501
6.6,2.7302,0.15588,-0.025415,0.73486,0.70039
6.608,2.7586,0.1808,0.0097752,0.74512,0.67009
6.616,2.7722,0.20572,0.014663,0.75488,0.68035
6.624,2.7801,0.23064,-0.0053763,0.75,0.69013
6.632,2.7781,0.2558,0.014663,0.77002,0.67009
6.64,2.7644,0.28512,0.014663,0.75977,0.67498
6.648,2.738,0.31468,0.034702,0.74512,0.65494
6.656,2.6979,0.34742,0.01955,0.73975,0.66031
6.664,2.6452,0.38041,0.039589,0.74512,0.65494
6.672,2.5806,0.41168,0.029814,0.71973,0.65494
6.68,2.5073,0.44295,0.024438,0.71973,0.6652
6.688,2.4272,0.47325,0.014663,0.71484,0.67498
6.696,2.3421,0.50379,0.01955,0.71973,0.67009
6.704,2.2542,0.53701,0.034702,0.70508,0.65494
6.712,2.176,0.57049,0.014663,0.71973,0.67009
6.72,2.1046,0.60665,0.0097752,0.7251,0.66031
6.728,2.0293,0.6428,-0.00048876,0.73486,0.6652
6.736,1.955,0.67921,-0.030303,0.73975,0.68524
6.744,1.8847,0.71561,-0.020528,0.75977,0.67009
6.752,1.8201,0.75128,-0.045455,0.77002,0.68035
6.76,1.7625,0.78695,-0.05523,0.77979,0.68524
6.768,1.7097,0.81774,-0.065494,0.76514,0.69501
6.776,1.6637,0.84877,-0.065494,0.77979,0.70039
6.784,1.6237,0.87564,-0.060606,0.76514,0.69013
6.792,1.5885,0.90252,-0.045455,0.75488,0.69501
6.8,1.5582,0.92622,0.01955,0.74512,0.65005
6.808,1.5347,0.94991,0.07478,0.71973,0.62512
6.816,1.5142,0.97068,0.15494,0.71484,0.56989
6.824,1.4927,0.99169,0.18475,0.68506,0.54985
6.832,1.4721,0.99585,0.17986,0.66992,0.56989
6.84,1.4516,1,0.19501,0.66016,0.57527
6.848,1.4321,1,0.20968,0.65479,0.565
6.856,1.4125,1,0.21994,0.6499,0.56012
6.864,1.3949,1,0.20968,0.64502,0.565
6.872,1.3773,1,0.23998,0.66016,0.54008
6.88,1.3597,1,0.24976,0.6499,0.53519
6.888,1.3412,1,0.2346,0.6499,0.56012
6.896,1.3236,1,0.24976,0.66504,0.55523
6.904,1.3109,1,0.25464,0.66992,0.54008
6.912,1.3021,1,0.29472,0.66992,0.50978
6.92,1.2903,1,0.26491,0.66016,0.53519
6.928,1.2766,1,0.28006,0.66992,0.52493
6.936,1.263,1,0.25464,0.68018,0.54985
6.944,1.2493,1,0.26491,0.68994,0.55523
6.952,1.2366,1,0.27468,0.70508,0.53519
6.96,1.2239,1,0.33969,0.73975,0.49022
6.968,1.2111,1,0.3998,0.73486,0.45503
6.976,1.1975,1,0.41496,0.68018,0.45015
6.984,1.1838,1,0.43011,0.66992,0.43988
6.992,1.1711,1,0.40469,0.6499,0.45992
7,1.1593,1,0.33969,0.64014,0.50489
7.008,1.1525,1,0.26002,0.6499,0.55523
7.016,1.1505,1,0.21457,0.64502,0.58504
7.024,1.1515,1,0.20479,0.6499,0.57527
7.032,1.1613,1,0.20968,0.65479,0.565
7.04,1.1867,1,0.17498,0.6499,0.58993
7.048,1.2336,1,0.18475,0.66016,0.58504
7.056,1.306,1,0.17986,0.66016,0.58016
7.064,1.4027,1,0.1999,0.66504,0.565
7.072,1.5239,1,0.20479,0.72998,0.57527
7.08,1.6637,1,0.52004,0.73975,0.40469
7.088,1.8162,1,0.95015,0.71973,0.14467
7.096,1.9756,1,1.501,0.625,-0.21065
7.104,2.1144,1,1.501,0.33984,-0.31036
7.112,2.2385,1,1.0855,0.22021,0.064516
7.12,2.3695,1,0.81525,0.36523,0.28495
7.128,2.4956,1,0.28983,0.62988,0.54497
7.136,2.6109,1,0.064516,0.69482,0.66031
7.144,2.7126,1,0.01955,0.71973,0.67009
7.152,2.7986,1,-0.020528,0.73486,0.70528
7.16,2.869,1,-0.025415,0.73975,0.71017
7.168,2.9257,1,-0.015152,0.75,0.69501
7.176,2.9677,1,-0.020528,0.76514,0.70528
7.184,2.9971,1,0.014663,0.76514,0.65494
7.192,3.0127,1,0.0043988,0.76514,0.67009
7.2,3.0137,1,0.014663,0.77979,0.6652
7.208,3.001,1,-0.0053763,0.75977,0.67498
7.216,2.9756,1,0.024438,0.77979,0.65494
7.224,2.9384,1,0.034702,0.78516,0.65005
7.232,2.8886,1,0.029814,0.7749,0.65494
7.24,2.827,1,0.024438,0.78516,0.6652
7.248,2.7537,1,0.029814,0.77979,0.64516
7.256,2.6706,1,0.044477,0.78516,0.63001
7.264,2.5816,1,0.01955,0.79492,0.66031
7.272,2.4897,1,0.029814,0.81006,0.65494
7.28,2.3988,1,0.014663,0.81494,0.67009
7.288,2.3089,1,0.039589,0.83984,0.6349
7.296,2.2229,1,0.024438,0.8501,0.64516
7.304,2.1505,1,0.014663,0.86475,0.64027
7.312,2.088,1,-0.0053763,0.87012,0.65494
7.32,2.0254,1,-0.025415,0.87988,0.67498
7.328,1.9648,1,-0.035191,0.87988,0.67498
7.336,1.9081,1,-0.070381,0.88477,0.71505
7.344,1.8563,1,-0.050342,0.89014,0.69501
7.352,1.8094,1,-0.050342,0.87988,0.69013
7.36,1.7664,1,-0.0053763,0.87988,0.6652
7.368,1.7273,1,0.049853,0.86475,0.64027
7.376,1.6921,1,0.094819,0.83984,0.62512
7.384,1.6608,1,0.15982,0.83496,0.58993
7.392,1.6325,1,0.18964,0.83008,0.57527
7.4,1.6061,1,0.22483,0.81494,0.56012
7.408,1.5855,1,0.20479,0.81006,0.58993
7.416,1.5689,1,0.1999,0.80469,0.59531
7.424,1.5513,1,0.2346,0.79492,0.565
7.432,1.5347,1,0.24976,0.7998,0.54985
7.44,1.5181,1,0.22483,0.80469,0.57527
7.448,1.5005,1,0.26002,0.79492,0.54008
7.456,1.4839,1,0.24976,0.81006,0.56012
7.464,1.4682,1,0.26979,0.81006,0.54008
7.472,1.4536,1,0.27468,0.81982,0.56012
7.48,1.4409,1,0.24976,0.81006,0.54985
7.488,1.4311,1,0.25464,0.81494,0.565
7.496,1.4233,1,0.24976,0.81006,0.56989
7.504,1.4184,1,0.26491,0.83496,0.54497
7.512,1.4145,1,0.28983,0.8501,0.55523
7.52,1.4086,1,0.30987,0.85986,0.50978
7.528,1.4008,1,0.32502,0.87988,0.50489
7.536,1.3939,1,0.34995,0.87012,0.50978
7.544,1.3861,1,0.39492,0.82471,0.47507
7.552,1.3763,1,0.3998,0.7998,0.46481
7.56,1.3666,1,0.41007,0.77979,0.45503
7.568,1.3568,1,0.3651,0.7749,0.49511
7.576,1.347,1,0.28006,0.77979,0.53519
7.584,1.3402,1,0.22972,0.7749,0.56012
7.592,1.3392,1,0.21994,0.78516,0.565
7.6,1.348,1,0.18475,0.77002,0.58993
7.608,1.3666,1,0.17498,0.77979,0.60508
7.616,1.3998,1,0.18964,0.77002,0.58016
7.624,1.4555,1,0.18475,0.77002,0.58993
7.632,1.5337,1,0.1999,0.76514,0.57527
7.64,1.6354,1,0.20968,0.8501,0.58016
7.648,1.7556,0.99487,0.48485,0.87012,0.41496
7.656,1.8895,0.98998,0.93548,0.85498,0.15982
7.664,2.0313,0.96189,1.501,0.75488,-0.20528
7.672,2.175,0.93403,1.501,0.4502,-0.34555
7.68,2.3138,0.90374,1.1457,0.30029,0.0097752
7.688,2.4438,0.87369,0.82502,0.43994,0.28006
7.696,2.5601,0.84632,0.34995,0.73486,0.50489
7.704,2.6491,0.81896,0.084555,0.80469,0.63001
7.712,2.7175,0.79477,0.014663,0.83496,0.67009
7.72,2.784,0.77083,-0.00048876,0.85498,0.68524
7.728,2.8416,0.75275,-0.010264,0.8501,0.69013
7.736,2.8876,0.73467,-0.020528,0.85498,0.69501
7.744,2.9218,0.7227,-0.010264,0.85986,0.68524
7.752,2.9433,0.71073,-0.020528,0.85498,0.70039
7.76,2.9511,0.70755,-0.0053763,0.85986,0.68524
7.768,2.9453,0.70462,0.039589,0.875,0.64027
7.776,2.9247,0.70877,0.049853,0.85986,0.63001
7.784,2.8905,0.71317,0.014663,0.86475,0.66031
7.792,2.8426,0.72221,0.0043988,0.85986,0.67009
7.8,2.782,0.73125,0.0043988,0.86475,0.68524
7.808,2.7185,0.74469,0.01955,0.875,0.67498
7.816,2.651,0.75837,0.014663,0.85986,0.6652
7.824,2.5718,0.78133,0.0097752,0.875,0.67498
7.832,2.4839,0.80454,0.044477,0.87988,0.64027
7.84,2.392,0.83533,0.054741,0.88477,0.62023
7.848,2.2991,0.86636,0.024438,0.87988,0.65494
7.856,2.2072,0.90081,-0.00048876,0.8999,0.67498
7.864,2.1202,0.9355,0.0043988,0.90967,0.66031
7.872,2.0391,0.96775,-0.035191,0.91992,0.70039
7.88,1.9648,1,-0.010264,0.91504,0.66031
7.888,1.8983,1,-0.060606,0.9248,0.71017
7.896,1.8407,1,-0.075269,0.93994,0.72532
7.904,1.7957,1,-0.070381,0.93506,0.70528
7.912,1.7586,1,-0.065494,0.94482,0.70039
7.92,1.7224,1,-0.05523,0.93506,0.71017
7.928,1.6891,1,-0.040567,0.90479,0.70528
7.936,1.6588,1,0.014663,0.87988,0.67009
7.944,1.6315,1,0.079668,0.86475,0.6349
7.952,1.607,1,0.12463,0.83496,0.62512
7.96,1.5846,1,0.18475,0.81494,0.58504
7.968,1.564,1,0.22483,0.80469,0.55523
7.976,1.5455,1,0.22483,0.77979,0.57527
7.984,1.5288,1,0.19501,0.7749,0.60997
7.992,1.5132,1,0.21994,0.77002,0.58504
8,1.4985,1,0.24487,0.76514,0.56012
8.008,1.4878,1,0.26491,0.76514,0.54985
8.016,1.48,1,0.26002,0.77002,0.55523
8.024,1.4692,1,0.28495,0.7749,0.53519
8.032,1.4585,1,0.29472,0.77979,0.54497
8.04,1.4467,1,0.24976,0.76514,0.57527
8.048,1.435,1,0.26979,0.7749,0.56012
8.056,1.4242,1,0.26979,0.77002,0.55523
8.064,1.4135,0.98998,0.27468,0.7749,0.54985
8.072,1.4027,0.97997,0.28006,0.78516,0.54497
8.08,1.393,0.95798,0.27468,0.79492,0.55523
8.088,1.3832,0.93599,0.30499,0.80469,0.52493
8.096,1.3724,0.91473,0.34506,0.83496,0.49022
8.104,1.3646,0.89372,0.35973,0.83984,0.5
8.112,1.3578,0.87613,0.41007,0.7998,0.47996
8.12,1.346,0.85854,0.43011,0.76514,0.45503
8.128,1.3324,0.84437,0.41496,0.75488,0.46481
8.136,1.3167,0.8302,0.37488,0.73975,0.49511
8.144,1.3001,0.81896,0.31476,0.73975,0.52493
8.152,1.2845,0.80796,0.26979,0.74512,0.54008
8.16,1.2737,0.79941,0.2346,0.73975,0.53519
8.168,1.2737,0.79086,0.21457,0.73975,0.58504
8.176,1.2884,0.785,0.21994,0.72998,0.56012
8.184,1.3226,0.77938,0.1999,0.73486,0.58016
8.192,1.3803,0.77596,0.17986,0.71484,0.60508
8.2,1.4643,0.77254,0.18475,0.71973,0.58993
8.208,1.5562,0.77058,0.18964,0.7749,0.60508
8.216,1.6579,0.76887,0.36999,0.80469,0.49022
8.224,1.783,0.76839,0.84018,0.80469,0.21994
8.232,1.9218,0.76814,1.4257,0.74512,-0.12023
8.24,2.0665,0.76912,1.501,0.47021,-0.38563
8.248,2.2082,0.77034,1.3959,0.22021,-0.15543
8.256,2.3412,0.77254,0.89541,0.30029,0.21994
8.264,2.4624,0.77474,0.50489,0.58496,0.46481
8.272,2.5699,0.77669,0.10459,0.71973,0.65494
8.28,2.6637,0.77889,0.0097752,0.75977,0.69013
8.288,2.7429,0.78085,-0.00048876,0.78516,0.70039
8.296,2.8084,0.7828,-0.010264,0.78516,0.69013
8.304,2.8524,0.785,-0.010264,0.7998,0.70039
8.312,2.8817,0.78744,-0.030303,0.80469,0.71017
8.32,2.9062,0.79037,0.014663,0.81006,0.67498
8.328,2.9228,0.79355,0.01955,0.81494,0.66031
8.336,2.9286,0.79868,0.0097752,0.82471,0.68524
8.344,2.9228,0.80406,-0.00048876,0.81982,0.69013
8.352,2.9042,0.81114,0.014663,0.83496,0.69501
8.36,2.8729,0.81823,0.024438,0.83496,0.6652
8.368,2.8289,0.8258,0.034702,0.83008,0.65494
8.376,2.7732,0.83337,0.01955,0.83496,0.67498
8.384,2.7058,0.84168,0.014663,0.83496,0.68035
8.392,2.6295,0.85023,0.034702,0.82471,0.65005
8.4,2.5474,0.8622,0.0043988,0.83496,0.68035
8.408,2.4702,0.87418,0.029814,0.8501,0.65005
8.416,2.3969,0.88908,0.034702,0.8501,0.64516
8.424,2.3187,0.90398,0.014663,0.875,0.65494
8.432,2.2395,0.91815,0.01955,0.87988,0.65005
8.44,2.1623,0.93257,-0.015152,0.90479,0.68035
8.448,2.0899,0.94625,-0.020528,0.8999,0.67498
8.456,2.0225,0.96018,-0.030303,0.90479,0.67009
8.464,1.9609,0.97532,-0.040567,0.9248,0.69013
8.472,1.9062,0.99047,-0.015152,0.9248,0.65005
8.48,1.8563,0.99511,-0.065494,0.92969,0.71017
8.488,1.8113,1,-0.050342,0.90967,0.69013
8.496,1.7713,1,-0.05523,0.90479,0.71017
8.504,1.739,1,0.01955,0.88477,0.65494
8.512,1.7126,1,0.099707,0.86475,0.60508
8.52,1.6852,1,0.11975,0.83496,0.6002
8.528,1.6588,1,0.16471,0.81982,0.64027
8.536,1.6325,1,0.20968,0.79492,0.57527
8.544,1.607,1,0.1999,0.77979,0.6002
8.552,1.5826,1,0.26002,0.78516,0.56012
8.56,1.5591,1,0.24487,0.76514,0.56989
8.568,1.5386,1,0.29472,0.77002,0.52004
8.576,1.4888,1,0.30987,0.7749,0.50978
8.584,1.4233,1,0.3001,0.75488,0.50489
8.592,1.3803,1,0.27468,0.76514,0.54985
8.6,1.3539,1,0.3001,0.77002,0.53519
8.608,1.3353,1,0.26002,0.75488,0.58016
8.616,1.3157,1,0.24976,0.74512,0.58504
8.624,1.2962,1,0.30499,0.77002,0.53519
8.632,1.2766,1,0.3348,0.75977,0.50489
8.64,1.2581,1,0.27468,0.76514,0.56989
8.648,1.2414,1,0.26491,0.75977,0.57527
8.656,1.2258,1,0.31965,0.77979,0.52981
8.664,1.2121,1,0.31476,0.7998,0.51515
8.672,1.1975,1,0.39492,0.81494,0.47019
8.68,1.1838,1,0.41007,0.79004,0.47996
8.688,1.1711,1,0.43011,0.72998,0.46481
8.696,1.1564,1,0.42473,0.70996,0.47507
8.704,1.1457,1,0.43988,0.71484,0.47019
8.712,1.1378,1,0.37977,0.73486,0.49511
8.72,1.1271,1,0.28006,0.73975,0.54985
8.728,1.1202,1,0.26491,0.75977,0.56012
8.736,1.1232,1,0.24487,0.78516,0.57527
8.744,1.1427,1,0.20479,0.78516,0.60508
8.752,1.1867,1,0.1999,0.81494,0.60997
8.76,1.2571,1,0.18964,0.83008,0.60997
8.768,1.3558,1,0.23998,0.87012,0.56012
8.776,1.48,1,0.22972,0.85986,0.565
8.784,1.6256,1,0.30499,0.93994,0.56989
8.792,1.783,1,0.69501,0.9248,0.31965
8.8,1.9257,1,1.2805,0.95508,-0.030303
8.808,2.0577,1,1.501,0.70996,-0.38074
8.816,2.2004,1,1.501,0.38525,-0.40078
8.824,2.3412,1,0.9653,0.3501,0.17986
8.832,2.4721,1,0.69013,0.66016,0.37488
8.84,2.5894,1,0.24976,0.89502,0.52981
8.848,2.6901,1,0.11486,0.9751,0.62023
8.856,2.7742,1,0.01955,0.98975,0.69501
8.864,2.8426,1,-0.015152,1.0098,0.72532
8.872,2.8964,1,0.014663,1.02,0.68035
8.88,2.9365,1,0.044477,1.0498,0.65494
8.888,2.9638,1,0.024438,1.0498,0.68035
8.896,2.9785,1,0.034702,1.0547,0.67009
8.904,2.9785,1,0.014663,1.04,0.68035
8.912,2.9658,1,0.054741,1.0547,0.65494
8.92,2.9433,1,0.079668,1.0649,0.62512
8.928,2.9091,1,0.049853,1.0298,0.66031
8.936,2.8612,1,0.014663,1.02,0.69013
8.944,2.7996,1,0.059629,1.0298,0.65005
8.952,2.7243,1,0.084555,1.04,0.63001
8.96,2.6373,1,0.054741,1.0098,0.65494
8.968,2.5406,1,0.089932,1.0146,0.60508
8.976,2.437,1,0.099707,1.02,0.6002
8.984,2.3324,1,0.079668,1.0298,0.62512
8.992,2.2287,1,0.0043988,1.0049,0.69501
9,2.1388,1,-0.00048876,1.02,0.68524
9.008,2.0596,1,0.0097752,1.0298,0.69013
9.016,1.9795,1,0.014663,1.04,0.69501
9.024,1.9042,1,-0.020528,1.04,0.64516
9.032,1.8358,1,0.034702,1.0298,0.62023
9.04,1.7752,1,-0.030303,1.02,0.68035
9.048,1.7204,1,-0.025415,1.0249,0.71017
9.056,1.6716,1,-0.050342,1,0.70039
9.064,1.6266,1,-0.060606,0.95508,0.71017
9.072,1.5865,1,-0.070381,0.93506,0.72532
9.08,1.5503,1,0.089932,0.9248,0.61486
9.088,1.5161,1,0.1349,0.89014,0.58504
9.096,1.4839,1,0.16471,0.87012,0.62512
9.104,1.4575,1,0.17498,0.81494,0.6002
9.112,1.434,1,0.19501,0.79004,0.58993
9.12,1.4096,1,0.23998,0.78516,0.565
9.128,1.3871,1,0.2346,0.7749,0.57527
9.136,1.3666,1,0.27468,0.77979,0.53519
9.144,1.349,1,0.24976,0.77002,0.56012
9.152,1.3324,1,0.28495,0.74512,0.52004
9.16,1.3157,1,0.26979,0.75488,0.54985
9.168,1.3001,1,0.24487,0.75977,0.58016
9.176,1.2845,1,0.25464,0.76514,0.55523
9.184,1.2717,1,0.26979,0.75488,0.54497
9.192,1.26,1,0.3001,0.76514,0.50489
9.2,1.2522,1,0.29472,0.7749,0.52981
9.208,1.2454,1,0.26979,0.7749,0.54985
9.216,1.2356,1,0.26002,0.79004,0.56012
9.224,1.2239,1,0.31965,0.81494,0.50489
9.232,1.2121,1,0.32502,0.83496,0.52493
9.24,1.2004,1,0.3348,0.83496,0.50978
9.248,1.1896,0.97435,0.39492,0.81982,0.47507
9.256,1.1779,0.94894,0.45992,0.77979,0.42473
9.264,1.1652,0.92011,0.42473,0.75,0.45015
9.272,1.1496,0.89152,0.43011,0.75488,0.435
9.28,1.132,0.86025,0.33969,0.73975,0.50489
9.288,1.1163,0.82922,0.3001,0.75,0.51515
9.296,1.1075,0.79917,0.23998,0.73975,0.56989
9.304,1.1085,0.76936,0.20968,0.74512,0.58504
9.312,1.1232,0.74127,0.22483,0.73975,0.565
9.32,1.1574,0.71341,0.1999,0.73975,0.6002
9.328,1.218,0.6902,0.20968,0.71973,0.57527
9.336,1.3069,0.66699,0.21994,0.71973,0.56012
9.344,1.4213,0.64794,0.24976,0.73975,0.53519
9.352,1.5572,0.62912,0.28006,0.80469,0.54008
9.36,1.7087,0.6152,0.6349,0.77002,0.34995
9.368,1.868,0.60127,1.1857,0.76514,0.01955
9.376,2.0274,0.59174,1.501,0.58496,-0.34555
9.384,2.1789,0.58221,1.501,0.26025,-0.36559
9.392,2.3196,0.57611,0.99022,0.20508,0.14956
9.4,2.4311,0.57024,0.76002,0.4751,0.30987
9.408,2.522,0.56755,0.20968,0.68506,0.58993
9.416,2.6119,0.56511,0.07478,0.73486,0.64516
9.424,2.695,0.56755,0.039589,0.75,0.67009
9.432,2.7664,0.57,-0.0053763,0.76514,0.70528
9.44,2.827,0.57659,0.0043988,0.7749,0.69501
9.448,2.8749,0.58319,0.014663,0.78516,0.69013
9.456,2.9091,0.59199,0.029814,0.7749,0.6652
9.464,2.9296,0.60103,0.034702,0.76514,0.65005
9.472,2.9374,0.61129,0.044477,0.78516,0.68524
9.48,2.9326,0.62155,0.0097752,0.76514,0.70039
9.488,2.913,0.63132,0.029814,0.76514,0.67498
9.496,2.8798,0.64134,0.029814,0.76514,0.67009
9.504,2.8377,0.65062,0.059629,0.76514,0.65005
9.512,2.7869,0.66015,0.064516,0.75,0.63001
9.52,2.7234,0.6687,0.034702,0.73975,0.6652
9.528,2.6471,0.67725,0.0043988,0.73975,0.70528
9.536,2.5621,0.68483,0.014663,0.73975,0.68524
9.544,2.4692,0.69265,0.059629,0.75977,0.64027
9.552,2.3734,0.69827,0.089932,0.75488,0.6002
9.56,2.2776,0.70388,0.044477,0.75977,0.6652
9.568,2.1857,0.70731,0.034702,0.76514,0.67009
9.576,2.0987,0.71073,-0.0053763,0.76514,0.70528
9.584,2.0186,0.71024,-0.015152,0.75488,0.69501
9.592,1.9462,0.70999,-0.025415,0.77979,0.68524
9.6,1.8866,0.70584,-0.040567,0.78516,0.71505
9.608,1.8358,0.70169,-0.035191,0.78516,0.68524
9.616,1.784,0.69167,-0.045455,0.7749,0.70039
9.624,1.7351,0.68165,-0.075269,0.78516,0.73998
9.632,1.6872,0.66675,-0.060606,0.73975,0.72532
9.64,1.6422,0.65209,-0.025415,0.73486,0.73021
9.648,1.6002,0.63499,0.059629,0.71973,0.65494
9.656,1.5601,0.61813,0.094819,0.68506,0.6349
9.664,1.5239,0.59883,0.17498,0.66504,0.58504
9.672,1.4907,0.57953,0.17986,0.64502,0.60508
9.68,1.4594,0.55314,0.17498,0.625,0.61486
9.688,1.4311,0.52675,0.22483,0.62012,0.58016
9.696,1.4037,0.49475,0.25464,0.63477,0.55523
9.704,1.3822,0.46299,0.22972,0.60986,0.56989
9.712,1.3627,0.43049,0.23998,0.60498,0.56012
9.72,1.3402,0.398,0.21457,0.60986,0.59531
9.728,1.3148,0.36452,0.22483,0.61475,0.57527
9.736,1.2893,0.3313,0.23998,0.62012,0.58993
9.744,1.2659,0.29123,0.24976,0.625,0.58016
9.752,1.2424,0.25116,0.26979,0.62012,0.55523
9.76,1.219,0.20498,0.26002,0.625,0.56012
9.768,1.1955,0.15905,0.24487,0.60986,0.57527
9.776,1.1711,0.10872,0.25464,0.61475,0.58016
9.784,1.1466,0.058392,0.26979,0.61475,0.54497
9.792,1.1222,0.02883,0.24487,0.62012,0.58504
9.8,1.1046,-0.00048864,0.32991,0.6499,0.50489
9.808,1.0909,-0.00048864,0.3651,0.6748,0.48485
9.816,1.0733,-0.00048864,0.39003,0.65479,0.47996
9.824,1.0538,-0.00048864,0.435,0.62012,0.45503
9.832,1.0332,-0.00048864,0.45992,0.59521,0.43011
9.84,1.0108,-0.00048864,0.38514,0.5752,0.5
9.848,0.98729,-0.00048864,0.35484,0.5752,0.50489
9.856,0.96579,-0.00048864,0.3001,0.6001,0.52981
9.864,0.95015,-0.00048864,0.21994,0.58008,0.57527
9.872,0.94624,-0.00048864,0.20968,0.5752,0.58993
9.88,0.9609,-0.00048864,0.21994,0.58496,0.56989
9.888,1.001,-0.00048864,0.18964,0.5752,0.56012
9.896,1.0694,-0.00048864,0.17498,0.56982,0.60508
9.904,1.1505,-0.00048864,0.18964,0.5752,0.58504
9.912,1.2473,-0.00048864,0.15982,0.58496,0.63001
9.92,1.3734,-0.00048864,0.2346,0.65479,0.54497
9.928,1.52,-0.00048864,0.54008,0.66016,0.3998
9.936,1.6755,-0.00048864,1.0552,0.64014,0.10459
9.944,1.8338,-0.00048864,1.501,0.52002,-0.27566
9.952,1.9883,-0.00048864,1.501,0.22998,-0.37586
9.96,2.1329,-0.00048864,1.0655,0.10498,0.089932
9.968,2.2639,-0.00048864,0.79032,0.2749,0.3001
9.976,2.3812,-0.00048864,0.26002,0.54004,0.57527
9.984,2.4829,-0.00048864,0.049853,0.625,0.6652
9.992,2.5699,-0.00048864,-0.010264,0.64502,0.70528
10,2.6334,-0.00048864,-0.020528,0.66504,0.71017
10.008,2.6794,-0.00048864,0.029814,0.68994,0.65005
10.016,2.7224,-0.00048864,-0.015152,0.68506,0.69501
10.024,2.7566,-0.00048864,-0.025415,0.68018,0.71017
10.032,2.781,-0.00048864,-0.010264,0.68994,0.69501
10.04,2.7928,-0.00048864,-0.020528,0.6748,0.70039
10.048,2.7918,-0.00048864,0.0097752,0.69482,0.67498
10.056,2.7761,-0.00048864,0.01955,0.6748,0.6652
10.064,2.7449,-0.00048864,0.0043988,0.66992,0.68524
10.072,2.6989,-0.00048864,0.024438,0.6748,0.6652
10.08,2.6393,-0.00048864,0.0097752,0.68018,0.68035
10.088,2.5689,-0.00048864,0.034702,0.68018,0.65494
10.096,2.4888,-0.00048864,0.0097752,0.66992,0.67009
10.104,2.4115,-0.00048864,0.029814,0.68994,0.65494
10.112,2.3353,-0.00048864,0.049853,0.70508,0.6349
10.12,2.2493,-0.00048864,0.029814,0.70996,0.63001
10.128,2.1613,-0.00048864,0.0097752,0.71484,0.68524
10.136,2.0723,-0.00048864,0.0043988,0.71973,0.67498
10.144,1.9844,-0.00048864,-0.010264,0.73486,0.69013
10.152,1.9013,-0.00048864,0.0043988,0.75,0.6652
10.16,1.824,-0.00048864,-0.0053763,0.75488,0.65005
10.168,1.7546,-0.00048864,-0.00048876,0.73975,0.69501
10.176,1.6911,-0.00048864,-0.11046,0.74512,0.75024
10.184,1.6344,-0.00048864,-0.11535,0.76514,0.75513
10.192,1.5836,-0.00048864,-0.09042,0.75488,0.73509
10.2,1.5435,-0.00048864,-0.045455,0.75977,0.69501
10.208,1.5112,-0.00048864,-0.05523,0.73486,0.70039
10.216,1.477,-0.00048864,0.0043988,0.7002,0.67009
10.224,1.4438,-0.00048864,0.029814,0.66992,0.68524
10.232,1.4135,-0.00048864,0.11975,0.65479,0.63001
10.24,1.3851,-0.00048864,0.14956,0.62012,0.61486
10.248,1.3587,-0.00048864,0.19501,0.61475,0.58504
10.256,1.3353,-0.00048864,0.20479,0.60498,0.58504
10.264,1.3138,-0.00048864,0.19501,0.60986,0.6002
10.272,1.2933,-0.00048864,0.23998,0.60498,0.54497
10.28,1.2737,-0.00048864,0.2346,0.59521,0.56012
10.288,1.2542,-0.00048864,0.20968,0.59521,0.58993
10.296,1.2346,-0.00048864,0.1999,0.58984,0.60508
10.304,1.2199,-0.00048864,0.2346,0.60986,0.58016
10.312,1.2072,-0.00048864,0.26002,0.62012,0.54985
10.32,1.1906,-0.00048864,0.26491,0.64014,0.56012
10.328,1.173,-0.00048864,0.26979,0.62988,0.54497
10.336,1.1554,-0.00048864,0.25464,0.64014,0.55523
10.344,1.1359,-0.00048864,0.26979,0.64502,0.53519
10.352,1.1163,-0.00048864,0.26491,0.66016,0.54497
10.36,1.0978,-0.00048864,0.28495,0.66992,0.52004
10.368,1.0792,-0.00048864,0.26491,0.68018,0.54497
10.376,1.0616,-0.00048864,0.28495,0.70508,0.54008
10.384,1.044,-0.00048864,0.35484,0.70996,0.49022
10.392,1.0264,-0.00048864,0.40469,0.66504,0.45503
10.4,1.0137,-0.00048864,0.43988,0.63477,0.42473
10.408,1.0029,-0.00048864,0.41496,0.62012,0.43988
10.416,0.98827,-0.00048864,0.36999,0.60986,0.47996
10.424,0.97263,-0.00048864,0.28495,0.62012,0.52981
10.432,0.95992,-0.00048864,0.21457,0.61475,0.57527
10.44,0.95503,-0.00048864,0.1999,0.60986,0.58016
10.448,0.96579,-0.00048864,0.19501,0.61475,0.57527
10.456,0.99707,-0.00048864,0.20479,0.62012,0.58016
10.464,1.0547,-0.00048864,0.20968,0.62012,0.56012
10.472,1.1408,-0.00048864,0.18964,0.62012,0.58016
10.48,1.2522,-0.00048864,0.21457,0.625,0.55523
10.488,1.3842,-0.00048864,0.24976,0.69482,0.51515
10.496,1.5103,-0.00048864,0.47996,0.7002,0.41984
10.504,1.6344,-0.00048864,0.93011,0.68994,0.17498
10.512,1.7761,-0.00048864,1.501,0.58984,-0.23558
10.52,1.9208,-0.00048864,1.501,0.33496,-0.37048
10.528,2.0596,-0.00048864,1.1804,0.15527,0.0043988
10.536,2.1896,-0.00048864,0.8304,0.24512,0.26979
10.544,2.3069,-0.00048864,0.32502,0.52979,0.54008
10.552,2.4106,-0.00048864,0.079668,0.64502,0.65005
10.56,2.4985,-0.00048864,0.034702,0.6748,0.66031
10.568,2.5728,-0.00048864,0.01955,0.68506,0.65494
10.576,2.6334,-0.00048864,-0.0053763,0.69482,0.68035
10.584,2.6804,-0.00048864,0.024438,0.70508,0.65005
10.592,2.7155,-0.00048864,-0.010264,0.68994,0.68524
10.6,2.7341,-0.00048864,-0.00048876,0.70996,0.68035
10.608,2.74,-0.00048864,-0.045455,0.69482,0.73021
10.616,2.737,-0.00048864,-0.010264,0.70996,0.69501
10.624,2.7273,-0.00048864,0.0097752,0.7002,0.68035
10.632,2.7067,-0.00048864,0.024438,0.7251,0.67009
10.64,2.6706,-0.00048864,0.039589,0.71973,0.64516
10.648,2.6207,-0.00048864,0.024438,0.71484,0.6652
10.656,2.5582,-0.00048864,0.0043988,0.7251,0.69501
10.664,2.4839,-0.00048864,0.024438,0.71973,0.6652
10.672,2.4018,-0.00048864,0.0043988,0.72998,0.66031
10.68,2.3138,-0.00048864,-0.0053763,0.71973,0.69501
10.688,2.2239,-0.00048864,0.014663,0.73486,0.68035
10.696,2.1447,-0.00048864,-0.0053763,0.72998,0.67009
10.704,2.0714,0.023699,0.039589,0.75977,0.63001
10.712,1.9941,0.048131,0.0043988,0.75977,0.6652
10.72,1.9189,0.078427,-0.0053763,0.77002,0.65494
10.728,1.8485,0.10872,-0.050342,0.7749,0.70039
10.736,1.784,0.13315,-0.085533,0.78516,0.73021
10.744,1.7253,0.15759,-0.095308,0.7749,0.73509
10.752,1.6735,0.1764,-0.10557,0.78516,0.72532
10.76,1.6276,0.19546,-0.1002,0.78516,0.73998
10.768,1.5865,0.20792,-0.045455,0.77979,0.6652
10.776,1.5494,0.22038,-0.050342,0.76514,0.69501
10.784,1.5161,0.22648,-0.030303,0.73486,0.69501
10.792,1.4858,0.23284,0.0097752,0.71484,0.70039
10.8,1.4624,0.22917,0.11486,0.71973,0.60997
10.808,1.4418,0.22551,0.14956,0.68994,0.58504
10.816,1.4184,0.21378,0.12952,0.6748,0.62023
10.824,1.3939,0.2023,0.21457,0.68506,0.55523
10.832,1.3695,0.18739,0.24487,0.69482,0.53519
10.84,1.346,0.17249,0.21457,0.66992,0.56012
10.848,1.3245,0.15465,0.19501,0.6748,0.59531
10.856,1.303,0.13706,0.18964,0.68018,0.6002
10.864,1.2815,0.11336,0.24487,0.68994,0.54497
10.872,1.261,0.089665,0.22483,0.68994,0.565
10.88,1.2414,0.061569,0.24976,0.70508,0.54497
10.888,1.2219,0.033716,0.2346,0.69482,0.56012
10.896,1.2072,0.016614,0.26002,0.71484,0.53519
10.904,1.1945,-0.00048864,0.24976,0.7251,0.54985
10.912,1.1779,-0.00048864,0.28006,0.73486,0.51515
10.92,1.1593,-0.00048864,0.28983,0.73975,0.50489
10.928,1.1408,-0.00048864,0.29472,0.74512,0.51515
10.936,1.1212,-0.00048864,0.26491,0.75977,0.54497
10.944,1.1026,-0.00048864,0.31476,0.78516,0.50489
10.952,1.0841,-0.00048864,0.3651,0.80469,0.47507
10.96,1.0645,-0.00048864,0.42473,0.77002,0.44477
10.968,1.045,-0.00048864,0.44477,0.73486,0.42473
10.976,1.0254,-0.00048864,0.42473,0.71484,0.45503
10.984,1.0059,-0.00048864,0.37488,0.70996,0.49022
10.992,0.98827,-0.00048864,0.31965,0.70996,0.51515
11,0.97752,-0.00048864,0.26491,0.73486,0.54985
11.008,0.97654,-0.00048864,0.2346,0.73975,0.56989
11.016,0.98534,-0.00048864,0.19501,0.71484,0.59531
11.024,1.0117,-0.00048864,0.1696,0.73975,0.60997
11.032,1.0596,-0.00048864,0.17498,0.72998,0.59531
11.04,1.1339,0.013438,0.18475,0.74512,0.58504
11.048,1.2336,0.027608,0.17498,0.75,0.6002
11.056,1.3558,0.060836,0.20968,0.7998,0.60508
11.064,1.4956,0.094063,0.35484,0.83984,0.50489
11.072,1.6452,0.12925,0.78006,0.83496,0.26979
11.08,1.7977,0.16467,1.3656,0.83984,-0.095308
11.088,1.9472,0.19741,1.501,0.56494,-0.33578
11.096,2.0733,0.23015,1.4057,0.30518,-0.14565
11.104,2.1808,0.2602,0.90029,0.30029,0.22972
11.112,2.2913,0.2905,0.56012,0.64502,0.40469
11.12,2.3969,0.3181,0.12463,0.78516,0.64027
11.128,2.4946,0.34596,0.0097752,0.80469,0.70528
11.136,2.5806,0.37063,-0.00048876,0.83496,0.70039
11.144,2.653,0.39555,-0.010264,0.83984,0.71017
11.152,2.7116,0.41339,-0.00048876,0.85986,0.70039
11.16,2.7576,0.43122,-0.0053763,0.85498,0.71017
11.168,2.7889,0.44197,-0.010264,0.875,0.69501
11.176,2.8074,0.45297,0.0043988,0.88477,0.71505
11.184,2.8133,0.45272,0.029814,0.89502,0.67498
11.192,2.8055,0.45248,0.01955,0.88477,0.68035
11.2,2.7859,0.44222,0.024438,0.89014,0.69013
11.208,2.7556,0.43196,-0.00048876,0.89502,0.70528
11.216,2.7136,0.41046,0.0097752,0.90479,0.70039
11.224,2.6588,0.3892,0.034702,0.8999,0.67498
11.232,2.5924,0.35988,0.049853,0.90967,0.65494
11.24,2.5152,0.33056,0.029814,0.90479,0.68035
11.248,2.4311,0.30051,0.024438,0.91992,0.67498
11.256,2.3421,0.27046,0.0043988,0.9248,0.70039
11.264,2.2502,0.23992,0.01955,0.93506,0.67498
11.272,2.1574,0.20963,-0.00048876,0.92969,0.69013
11.28,2.0674,0.17518,0.014663,0.94971,0.67498
11.288,1.9834,0.14073,-0.015152,0.95996,0.68524
11.296,1.913,0.10359,-0.030303,0.9751,0.70039
11.304,1.8514,0.066699,-0.035191,0.97998,0.69013
11.312,1.7889,0.034449,-0.025415,0.9751,0.67498
11.32,1.7273,0.0024432,-0.09042,0.9751,0.73998
11.328,1.6696,0.00097728,-0.085533,0.96973,0.72532
11.336,1.6178,-0.00048864,-0.080645,0.9751,0.72532
11.344,1.5699,-0.00048864,-0.040567,0.95996,0.70039
11.352,1.5259,-0.00048864,-0.025415,0.92969,0.70528
11.36,1.4858,-0.00048864,0.044477,0.91504,0.6652
11.368,1.4477,-0.00048864,0.10948,0.89502,0.62512
11.376,1.4115,-0.00048864,0.15494,0.86475,0.6002
11.384,1.3773,-0.00048864,0.19501,0.85498,0.58504
11.392,1.3451,-0.00048864,0.1999,0.83496,0.59531
11.4,1.3196,-0.00048864,0.22483,0.83496,0.58504
11.408,1.2991,-0.00048864,0.21994,0.81494,0.58016
11.416,1.2757,-0.00048864,0.22972,0.81982,0.56989
11.424,1.2502,-0.00048864,0.22483,0.81494,0.58016
11.432,1.2248,-0.00048864,0.23998,0.81006,0.565
11.44,1.2004,-0.00048864,0.24487,0.81006,0.56012
11.448,1.1769,-0.00048864,0.2346,0.81006,0.565
11.456,1.1535,-0.00048864,0.24487,0.80469,0.57527
11.464,1.132,-0.00048864,0.27468,0.81982,0.54008
11.472,1.1124,-0.00048864,0.22972,0.81006,0.58504
11.48,1.0948,-0.00048864,0.25464,0.81982,0.55523
11.488,1.0782,-0.00048864,0.2346,0.7998,0.56989
11.496,1.0674,-0.00048864,0.23998,0.81982,0.57527
11.504,1.0596,-0.00048864,0.25464,0.83496,0.565
11.512,1.0469,-0.00048864,0.28983,0.85498,0.53519
11.52,1.0313,-0.00048864,0.3348,0.87988,0.51515
11.528,1.0147,-0.00048864,0.36999,0.8501,0.49511
11.536,0.99804,-0.00048864,0.39492,0.80469,0.48485
11.544,0.98143,-0.00048864,0.41007,0.78516,0.47019
11.552,0.96383,-0.00048864,0.39492,0.76514,0.47996
11.56,0.94819,-0.00048864,0.32502,0.74512,0.52981
11.568,0.93744,-0.00048864,0.24976,0.76514,0.56989
11.576,0.93353,-0.00048864,0.21994,0.75977,0.58504
11.584,0.93842,-0.00048864,0.20968,0.75488,0.58016
11.592,0.95894,-0.00048864,0.18475,0.73975,0.6002
11.6,0.99218,-0.00048864,0.21457,0.74512,0.565
11.608,1.042,-0.00048864,0.22483,0.73975,0.56012
11.616,1.1173,-0.00048864,0.17498,0.73486,0.60508
11.624,1.218,-0.00048864,0.17498,0.75977,0.61486
11.632,1.3412,-0.00048864,0.23998,0.81006,0.56989
11.64,1.4829,-0.00048864,0.58993,0.7998,0.39003
11.648,1.6364,-0.00048864,1.1354,0.81006,0.044477
11.656,1.7947,-0.00048864,1.501,0.62988,-0.30547
11.664,1.9521,-0.00048864,1.501,0.30518,-0.37586
11.672,2.1026,-0.00048864,1.0103,0.2251,0.12952
11.68,2.2424,0.015636,0.79521,0.4502,0.30499
11.688,2.3695,0.031762,0.26491,0.7002,0.565
11.696,2.4673,0.045932,0.079668,0.76514,0.66031
11.704,2.5445,0.060347,0.01955,0.77002,0.70039
11.712,2.6188,0.072074,-0.00048876,0.79004,0.70528
11.72,2.6843,0.084046,-0.010264,0.79492,0.71017
11.728,2.739,0.093819,-0.010264,0.7998,0.71505
11.736,2.7801,0.10384,-0.00048876,0.79492,0.70039
11.744,2.8084,0.11263,0.01955,0.80469,0.68035
11.752,2.8231,0.12167,-0.00048876,0.81006,0.70039
11.76,2.8221,0.13218,0.0097752,0.7998,0.69013
11.768,2.8074,0.14268,-0.0053763,0.80469,0.70528
11.776,2.7781,0.15465,0.01955,0.81006,0.67498
11.784,2.7341,0.16663,0.034702,0.81494,0.65494
11.792,2.6755,0.17909,0.01955,0.81982,0.67498
11.8,2.6129,0.19179,0.034702,0.83496,0.67498
11.808,2.5455,0.20523,0.029814,0.83008,0.65005
11.816,2.4643,0.21867,0.054741,0.83008,0.65494
11.824,2.3763,0.23528,0.034702,0.83496,0.65494
11.832,2.2835,0.25214,0.014663,0.83008,0.67009
11.84,2.1906,0.27168,0.0043988,0.84473,0.68524
11.848,2.0997,0.29123,0.024438,0.8501,0.66031
11.856,2.0127,0.31029,-0.010264,0.86475,0.69013
11.864,1.9316,0.32959,0.01955,0.88477,0.65005
11.872,1.8583,0.34767,0.024438,0.87988,0.64027
11.88,1.7937,0.36599,-0.060606,0.87988,0.71994
11.888,1.7351,0.38016,-0.05523,0.87988,0.70039
11.896,1.6891,0.39433,-0.085533,0.87988,0.73509
11.904,1.65,0.40508,-0.075269,0.88477,0.71994
11.912,1.6109,0.41583,-0.080645,0.87988,0.72532
11.92,1.5728,0.42341,-0.020528,0.85498,0.68524
11.928,1.5367,0.43098,0.044477,0.84473,0.64516
11.936,1.5044,0.43611,0.12952,0.82471,0.6002
11.944,1.4751,0.44149,0.1696,0.79492,0.58016
11.952,1.4477,0.44588,0.15494,0.7749,0.60997
11.96,1.4242,0.45028,0.16471,0.76514,0.62023
11.968,1.4018,0.45443,0.23998,0.77979,0.54985
11.976,1.3803,0.45859,0.22972,0.77002,0.55523
11.984,1.3587,0.46421,0.24976,0.78516,0.53519
11.992,1.3382,0.46983,0.1999,0.76514,0.59531
12,1.3226,0.47716,0.18964,0.76514,0.60997
12.008,1.3099,0.48449,0.21457,0.77979,0.58993
12.016,1.2933,0.49377,0.24487,0.78516,0.56012
12.024,1.2757,0.50305,0.2346,0.77002,0.565
12.032,1.2581,0.5138,0.23998,0.78516,0.56012
12.04,1.2405,0.5248,0.22972,0.79492,0.58504
12.048,1.2239,0.5353,0.28006,0.7998,0.52004
12.056,1.2082,0.54605,0.24487,0.79004,0.56012
12.064,1.1926,0.55656,0.22483,0.78516,0.565
12.072,1.1789,0.56731,0.22972,0.79492,0.57527
12.08,1.1672,0.58001,0.26979,0.81494,0.52493
12.088,1.1564,0.59296,0.32991,0.83984,0.48485
12.096,1.1496,0.60738,0.35973,0.83496,0.47507
12.104,1.1437,0.62204,0.37977,0.81494,0.49022
12.112,1.1349,0.63621,0.3998,0.7749,0.47019
12.12,1.1232,0.65038,0.39003,0.75977,0.47507
12.128,1.1095,0.66406,0.37977,0.76514,0.48485
12.136,1.0958,0.67799,0.30499,0.73975,0.52004
12.144,1.086,0.69313,0.26002,0.77002,0.56012
12.152,1.0831,0.70853,0.22972,0.77979,0.58016
12.16,1.0919,0.72514,0.21457,0.74512,0.56012
12.168,1.1173,0.742,0.21994,0.76514,0.57527
12.176,1.1662,0.75959,0.1999,0.75,0.58504
12.184,1.2395,0.77742,0.18964,0.74512,0.58016
12.192,1.3226,0.7955,0.24976,0.76514,0.52493
12.2,1.4194,0.81383,0.15982,0.79492,0.6349
12.208,1.5445,0.83118,0.39492,0.84473,0.47507
12.216,1.6891,0.84852,0.89052,0.83496,0.20479
12.224,1.8436,0.86538,1.4555,0.84473,-0.11046
12.232,2.002,0.88248,1.501,0.45996,-0.42082
12.24,2.1564,0.90227,1.3558,0.21484,-0.12561
12.248,2.3021,0.92206,0.89052,0.31982,0.20968
12.256,2.436,0.94405,0.45992,0.62012,0.47996
12.264,2.5552,0.96604,0.079668,0.77002,0.66031
12.272,2.6598,0.9829,-0.00048876,0.81006,0.69501
12.28,2.7478,1,-0.025415,0.82471,0.71017
12.288,2.8201,1,-0.030303,0.83984,0.71017
12.296,2.87,1,-0.00048876,0.85498,0.69013
12.304,2.9032,1,-0.010264,0.85498,0.68524
12.312,2.9306,1,0.024438,0.85498,0.65494
12.32,2.9482,1,0.029814,0.8501,0.65494
12.328,2.9541,1,0.0043988,0.83984,0.69501
12.336,2.9472,1,-0.0053763,0.8501,0.70528
12.344,2.9277,1,0.014663,0.84473,0.67498
12.352,2.8954,1,0.01955,0.83496,0.67009
12.36,2.8504,1,0.014663,0.85498,0.6652
12.368,2.7928,1,0.029814,0.8501,0.69013
12.376,2.7253,1,0.0097752,0.8501,0.66031
12.384,2.6481,1,0.029814,0.86475,0.67498
12.392,2.5728,1,0.014663,0.87012,0.65494
12.4,2.4966,1,0.034702,0.87988,0.67498
12.408,2.4115,1,0.014663,0.88477,0.65005
12.416,2.3216,1,0.0043988,0.89502,0.67009
12.424,2.2326,1,0.029814,0.91504,0.64516
12.432,2.1476,1,-0.00048876,0.9248,0.63001
12.44,2.0684,1,-0.075269,0.91992,0.72532
12.448,1.9951,1,-0.060606,0.94482,0.70528
12.456,1.9296,1,-0.065494,0.94971,0.70039
12.464,1.8719,1,-0.05523,0.94482,0.69013
12.472,1.8201,1,-0.085533,0.94971,0.71017
12.48,1.7742,1,-0.050342,0.93994,0.68524
12.488,1.7331,1,-0.05523,0.95508,0.71994
12.496,1.6999,1,-0.0053763,0.94971,0.68035
12.504,1.6716,1,0.099707,0.95508,0.60997
12.512,1.6422,1,0.14467,0.9248,0.57527
12.52,1.6139,1,0.11975,0.90479,0.60997
12.528,1.5865,1,0.21457,0.91504,0.54985
12.536,1.5611,1,0.23998,0.90967,0.54008
12.544,1.5376,1,0.26979,0.91504,0.51515
12.552,1.5161,1,0.22483,0.8999,0.58016
12.56,1.4966,1,0.28495,0.90479,0.49511
12.568,1.477,1,0.21457,0.89014,0.57527
12.576,1.4575,1,0.24976,0.90479,0.54985
12.584,1.4379,1,0.26002,0.89014,0.54008
12.592,1.4233,1,0.2346,0.89014,0.56012
12.6,1.4115,1,0.24976,0.89502,0.54985
12.608,1.3978,1,0.24487,0.875,0.56012
12.616,1.3842,1,0.26979,0.87988,0.53519
12.624,1.3695,1,0.3001,0.85498,0.49511
12.632,1.3548,1,0.27468,0.85498,0.51515
12.64,1.3402,1,0.26979,0.875,0.54497
12.648,1.3275,1,0.30499,0.85498,0.51515
12.656,1.3167,1,0.26979,0.85986,0.55523
12.664,1.3079,1,0.37977,0.88477,0.45503
12.672,1.3167,1,0.41007,0.8501,0.46481
12.68,1.3343,1,0.44477,0.81494,0.43988
12.688,1.3392,1,0.43011,0.78516,0.44477
12.696,1.3412,1,0.47507,0.77979,0.39492
12.704,1.3402,1,0.35484,0.76514,0.49022
12.712,1.3353,1,0.27468,0.7749,0.56012
12.72,1.3314,1,0.24487,0.77979,0.56989
12.728,1.3324,1,0.28983,0.75977,0.49511
12.736,1.346,1,0.21994,0.75,0.57527
12.744,1.3773,1,0.1696,0.71484,0.60997
12.752,1.4311,1,0.20968,0.7251,0.56989
12.76,1.5103,1,0.24487,0.72998,0.53519
12.768,1.6139,1,0.1999,0.71484,0.6002
12.776,1.739,1,0.27468,0.78516,0.54497
12.784,1.8798,1,0.73998,0.77979,0.29472
12.792,2.0088,1,1.2708,0.79004,-0.00048876
12.8,2.131,1,1.501,0.54004,-0.38074
12.808,2.2688,1,1.501,0.18994,-0.42082
12.816,2.4076,1,0.97556,0.15527,0.1349
12.824,2.5415,1,0.68524,0.47998,0.35484
12.832,2.6657,1,0.18475,0.7251,0.61486
12.84,2.7781,1,0.064516,0.79492,0.66031
12.848,2.8778,1,0.024438,0.83984,0.69013
12.856,2.9638,1,0.049853,0.87012,0.65005
12.864,3.0362,1,0.039589,0.89014,0.65494
12.872,3.0938,1,0.089932,0.8999,0.60997
12.88,3.1378,1,0.059629,0.89014,0.64027
12.888,3.1691,1,0.029814,0.87988,0.67498
12.896,3.1828,1,0.084555,0.90479,0.60997
12.904,3.1818,1,0.024438,0.89014,0.68035
12.912,3.172,1,0.084555,0.93506,0.61486
12.92,3.1525,1,0.034702,0.92969,0.65494
12.928,3.1193,1,0.044477,0.93994,0.6652
12.936,3.0733,1,0.07478,0.97998,0.63001
12.944,3.0137,1,0.079668,1.0098,0.62023
12.952,2.9433,1,0.049853,1.02,0.65005
12.96,2.8631,1,0.12463,1.0898,0.58504
12.968,2.7742,1,0.15494,1.125,0.56012
12.976,2.6813,1,0.099707,1.125,0.58993
12.984,2.5885,1,0.069892,1.145,0.62023
12.992,2.5064,1,0.084555,1.1699,0.62512
13,2.4321,1,-0.00048876,1.1597,0.67498
13.008,2.3568,1,-0.020528,1.1548,0.70039
13.016,2.2845,1,-0.010264,1.165,0.68035
13.024,2.217,1,0.0043988,1.1699,0.66031
13.032,2.1544,1,0.034702,1.1748,0.62512
13.04,2.0968,1,0.0097752,1.165,0.66031
13.048,2.042,1,-0.075269,1.105,0.72532
13.056,1.9922,1,-0.035191,1.0898,0.68524
13.064,1.9443,1,0.01955,1.0698,0.65494
13.072,1.8993,1,0.084555,1.0547,0.62023
13.08,1.8563,1,0.11975,1.0098,0.60508
13.088,1.8162,1,0.17498,0.98486,0.60997
13.096,1.784,1,0.2346,0.94482,0.54008
13.104,1.7556,1,0.22483,0.92969,0.56012
13.112,1.7263,1,0.24487,0.90967,0.55523
13.12,1.697,1,0.28006,0.90479,0.52493
13.128,1.6706,1,0.29472,0.8999,0.50978
13.136,1.6471,1,0.30987,0.90967,0.52004
13.144,1.6256,1,0.26979,0.87988,0.50978
13.152,1.6051,1,0.28006,0.85986,0.54008
13.16,1.5855,1,0.26002,0.86475,0.57527
13.168,1.567,1,0.3001,0.83984,0.54985
13.176,1.5503,1,0.28983,0.85498,0.56012
13.184,1.5357,1,0.26979,0.80469,0.54497
13.192,1.5259,1,0.30987,0.81006,0.51515
13.2,1.5171,1,0.33969,0.83496,0.49022
13.208,1.5083,1,0.31476,0.81006,0.53519
13.216,1.5005,1,0.28006,0.79492,0.56012
13.224,1.4927,1,0.30499,0.7998,0.52493
13.232,1.4858,1,0.3348,0.81006,0.52981
13.24,1.479,1,0.37488,0.75,0.50489
13.248,1.4721,1,0.43988,0.70996,0.45015
13.256,1.4663,1,0.3651,0.66504,0.52981
13.264,1.4604,1,0.34506,0.64502,0.52493
13.272,1.4526,1,0.29472,0.64014,0.54497
13.28,1.4467,1,0.27468,0.66992,0.54008
13.288,1.4457,1,0.20479,0.66504,0.58993
13.296,1.4526,1,0.15494,0.6499,0.62512
13.304,1.4712,1,0.14956,0.64014,0.61486
13.312,1.5093,1,0.17498,0.62012,0.62023
13.32,1.5699,1,0.14956,0.61475,0.64516
13.328,1.6569,1,0.14467,0.60498,0.64027
13.336,1.7674,1,0.1696,0.62988,0.61486
13.344,1.8983,1,0.15982,0.68994,0.64027
13.352,2.043,1,0.70039,0.6748,0.32502
13.36,2.1955,0.98387,1.2204,0.68994,0.034702
13.368,2.349,0.96775,1.501,0.41016,-0.29081
13.376,2.4946,0.93697,1.501,0.075195,-0.32063
13.384,2.6305,0.90618,0.93011,0.064941,0.1999
13.392,2.739,0.87711,0.58993,0.39502,0.41984
13.4,2.827,0.84803,0.11975,0.59521,0.66031
13.408,2.915,0.82043,0.039589,0.64502,0.68035
13.416,2.9951,0.79306,-0.025415,0.66504,0.73509
13.424,3.0655,0.76521,0.014663,0.68018,0.69013
13.432,3.1251,0.73736,-0.010264,0.68994,0.71017
13.44,3.173,0.70877,0.014663,0.66992,0.68524
13.448,3.2082,0.68043,0.01955,0.66992,0.71017
13.456,3.2307,0.65136,-0.010264,0.66504,0.73021
13.464,3.2414,0.62253,0.049853,0.66992,0.67009
13.472,3.2375,0.5937,0.029814,0.64502,0.68524
13.48,3.2209,0.56487,0.054741,0.63477,0.67009
13.488,3.1896,0.53824,0.059629,0.62012,0.66031
13.496,3.1496,0.51185,0.01955,0.61475,0.70039
13.504,3.0997,0.48668,0.029814,0.60498,0.70528
13.512,3.0362,0.46176,0.07478,0.60986,0.64027
13.52,2.9619,0.4344,0.039589,0.6001,0.68035
13.528,2.8778,0.40704,0.024438,0.6001,0.69501
13.536,2.7849,0.37796,0.029814,0.58984,0.70039
13.544,2.6852,0.34889,0.054741,0.60986,0.67498
13.552,2.5816,0.32201,0.064516,0.62012,0.66031
13.56,2.478,0.29538,0.059629,0.64014,0.65494
13.568,2.3763,0.27022,0.069892,0.66016,0.63001
13.576,2.2786,0.2453,0.01955,0.66016,0.6652
13.584,2.1877,0.2194,-0.060606,0.66016,0.73998
13.592,2.1124,0.1935,-0.020528,0.68018,0.70528
13.6,2.0469,0.16663,-0.045455,0.68994,0.72532
13.608,1.9804,0.13975,-0.040567,0.69482,0.72532
13.616,1.9159,0.11239,-0.060606,0.68506,0.73021
13.624,1.8543,0.085268,-0.025415,0.7002,0.71017
13.632,1.7947,0.058148,-0.010264,0.64502,0.71017
13.64,1.739,0.031273,0.049853,0.60986,0.6652
13.648,1.6862,0.015392,0.1349,0.6001,0.61486
13.656,1.6373,-0.00048864,0.17986,0.5752,0.6002
13.664,1.5924,-0.00048864,0.17498,0.53516,0.60508
13.672,1.5523,-0.00048864,0.26491,0.5249,0.53519
13.68,1.5152,-0.00048864,0.21457,0.5,0.6002
13.688,1.4819,-0.00048864,0.19501,0.48486,0.62023
13.696,1.4565,-0.00048864,0.24487,0.50488,0.58016
13.704,1.434,-0.00048864,0.22483,0.47998,0.58993
13.712,1.4086,-0.00048864,0.26491,0.47998,0.56012
13.72,1.3812,-0.00048864,0.23998,0.47998,0.58993
13.728,1.3529,-0.00048864,0.25464,0.47998,0.57527
13.736,1.3265,-0.00048864,0.28006,0.49023,0.54985
13.744,1.3011,-0.00048864,0.27468,0.4751,0.54497
13.752,1.2757,-0.00048864,0.26491,0.47998,0.58016
13.76,1.2512,-0.00048864,0.27468,0.47021,0.56012
13.768,1.2287,-0.00048864,0.22483,0.49512,0.60508
13.776,1.2082,-0.00048864,0.23998,0.47998,0.59531
13.784,1.1887,-0.00048864,0.26002,0.5,0.58016
13.792,1.174,-0.00048864,0.31476,0.52002,0.52493
13.8,1.1623,-0.00048864,0.37977,0.54492,0.49022
13.808,1.1466,-0.00048864,0.3998,0.48486,0.48485
13.816,1.129,-0.00048864,0.41007,0.4751,0.47996
13.824,1.1095,-0.00048864,0.37488,0.45996,0.50978
13.832,1.088,-0.00048864,0.34995,0.45508,0.50978
13.84,1.0645,-0.00048864,0.24976,0.46484,0.57527
13.848,1.0411,-0.00048864,0.17986,0.47998,0.60508
13.856,1.0225,-0.00048864,0.12952,0.45996,0.65494
13.864,1.0127,-0.00048864,0.10948,0.48486,0.67009
13.872,1.0186,-0.00048864,0.15982,0.49023,0.60997
13.88,1.0469,-0.00048864,0.099707,0.45996,0.68035
13.888,1.1017,-0.00048864,0.15982,0.4751,0.6002
13.896,1.1701,-0.00048864,0.22483,0.50488,0.56012
13.904,1.2551,-0.00048864,0.1999,0.54492,0.59531
13.912,1.3695,-0.00048864,0.41984,0.5752,0.49511
13.92,1.5034,-0.00048864,0.90029,0.5752,0.21457
13.928,1.6471,-0.00048864,1.501,0.58008,-0.18573
13.936,1.7928,-0.00048864,1.501,0.24512,-0.41056
13.944,1.9355,-0.00048864,1.3558,0.044922,-0.12561
13.952,2.0694,-0.00048864,0.95015,0.10986,0.20968
13.96,2.1916,-0.00048864,0.50489,0.41504,0.45992
13.968,2.3011,-0.00048864,0.14956,0.54492,0.66031
13.976,2.3949,-0.00048864,0.059629,0.56006,0.69013
13.984,2.4751,-0.00048864,0.064516,0.56982,0.6652
13.992,2.5337,-0.00048864,0.024438,0.5752,0.69013
14,2.5767,-0.00048864,0.044477,0.60498,0.66031
14.008,2.6158,-0.00048864,0.024438,0.58984,0.67498
14.016,2.6452,-0.00048864,-0.00048876,0.58008,0.70039
14.024,2.6647,-0.00048864,-0.035191,0.58984,0.73998
14.032,2.6735,-0.00048864,-0.025415,0.59521,0.71994
14.04,2.6706,-0.00048864,-0.040567,0.60498,0.73021
14.048,2.654,-0.00048864,0.0043988,0.6001,0.68035
14.056,2.6237,-0.00048864,0.029814,0.61475,0.66031
14.064,2.5797,-0.00048864,0.014663,0.625,0.69501
14.072,2.523,-0.00048864,0.064516,0.625,0.64027
14.08,2.4555,-0.00048864,0.069892,0.62988,0.6349
14.088,2.3881,-0.00048864,0.049853,0.61475,0.66031
14.096,2.3187,-0.00048864,0.099707,0.63477,0.61486
14.104,2.2385,-0.00048864,0.084555,0.6499,0.65005
14.112,2.1515,-0.00048864,0.14956,0.66016,0.58504
14.12,2.0626,-0.00048864,0.15494,0.65479,0.58016
14.128,1.9736,-0.00048864,0.1349,0.7002,0.58993
14.136,1.8895,-0.00048864,0.14956,0.69482,0.57527
14.144,1.8104,-0.00048864,0.049853,0.71484,0.66031
14.152,1.7361,-0.00048864,0.044477,0.70996,0.6652
14.16,1.6676,-0.00048864,0.064516,0.71484,0.64027
14.168,1.607,-0.00048864,0.034702,0.72998,0.67009
14.176,1.5513,-0.00048864,0.024438,0.7251,0.67498
14.184,1.4995,-0.00048864,0.07478,0.75,0.6349
14.192,1.4604,-0.00048864,0.069892,0.70508,0.62023
14.2,1.4282,-0.00048864,0.10948,0.7002,0.62512
14.208,1.3949,-0.00048864,0.16471,0.68994,0.60508
14.216,1.3636,-0.00048864,0.18964,0.64502,0.58993
14.224,1.3343,-0.00048864,0.21457,0.625,0.59531
14.232,1.3069,-0.00048864,0.24976,0.62988,0.56989
14.24,1.2825,-0.00048864,0.28006,0.60986,0.57527
14.248,1.261,-0.00048864,0.25464,0.59521,0.55523
14.256,1.2414,-0.00048864,0.26002,0.60986,0.56989
14.264,1.2229,-0.00048864,0.28006,0.6001,0.54985
14.272,1.2063,-0.00048864,0.28495,0.6001,0.55523
14.28,1.1926,-0.00048864,0.29472,0.60986,0.55523
14.288,1.1838,-0.00048864,0.26491,0.60498,0.57527
14.296,1.1789,-0.00048864,0.26979,0.60986,0.56012
14.304,1.172,-0.00048864,0.28495,0.62012,0.55523
14.312,1.1632,-0.00048864,0.26979,0.62988,0.56989
14.32,1.1544,-0.00048864,0.29472,0.64014,0.53519
14.328,1.1437,-0.00048864,0.31476,0.62012,0.51515
14.336,1.131,-0.00048864,0.32502,0.64502,0.50489
14.344,1.1173,-0.00048864,0.30987,0.66504,0.52493
14.352,1.1036,-0.00048864,0.34995,0.69482,0.5
14.36,1.0919,-0.00048864,0.39003,0.71484,0.47507
14.368,1.0821,-0.00048864,0.43988,0.68018,0.46481
14.376,1.0733,-0.00048864,0.47996,0.64502,0.43011
14.384,1.0655,-0.00048864,0.46481,0.62012,0.43988
14.392,1.0626,-0.00048864,0.45503,0.61475,0.45992
14.4,1.0606,-0.00048864,0.41496,0.60986,0.45503
14.408,1.0547,-0.00048864,0.36999,0.625,0.48485
14.416,1.0459,-0.00048864,0.29472,0.61475,0.53519
14.424,1.0391,-0.00048864,0.25464,0.625,0.58016
14.432,1.0401,-0.00048864,0.26979,0.62012,0.54985
14.44,1.0547,-0.00048864,0.1999,0.62012,0.60508
14.448,1.0909,-0.00048864,0.20479,0.61475,0.58504
14.456,1.1544,-0.00048864,0.1999,0.62012,0.58993
14.464,1.2463,-0.00048864,0.17498,0.63477,0.6002
14.472,1.3636,-0.00048864,0.24976,0.72998,0.55523
14.48,1.5015,-0.00048864,0.58993,0.68994,0.39492
14.488,1.6325,-0.00048864,1.0855,0.68994,0.10459
14.496,1.7605,-0.00048864,1.501,0.54492,-0.28055
14.504,1.9042,-0.00048864,1.501,0.27002,-0.32551
14.512,2.0508,-0.00048864,1.0455,0.19531,0.089932
14.52,2.1916,-0.00048864,0.72532,0.375,0.34995
14.528,2.3226,-0.00048864,0.17986,0.61475,0.61486
14.536,2.4409,-0.00048864,0.0097752,0.6748,0.70528
14.544,2.5445,-0.00048864,-0.015152,0.71484,0.71505
14.552,2.6334,-0.00048864,-0.060606,0.7251,0.73509
14.56,2.7087,-0.00048864,-0.015152,0.72998,0.70039
14.568,2.7703,-0.00048864,-0.050342,0.7251,0.73021
14.576,2.8182,-0.00048864,-0.040567,0.73975,0.72532
14.584,2.8524,-0.00048864,-0.050342,0.73975,0.73021
14.592,2.869,-0.00048864,-0.05523,0.71973,0.72532
14.6,2.8719,-0.00048864,-0.035191,0.73975,0.72532
14.608,2.8661,-0.00048864,-0.010264,0.75977,0.69013
14.616,2.8485,-0.00048864,-0.040567,0.76514,0.72532
14.624,2.8172,-0.00048864,0.014663,0.7749,0.67498
14.632,2.7732,-0.00048864,-0.030303,0.75488,0.71505
14.64,2.7165,-0.00048864,-0.060606,0.77979,0.73998
14.648,2.6481,-0.00048864,-0.010264,0.77002,0.68035
14.656,2.5709,-0.00048864,-0.065494,0.76514,0.73509
14.664,2.4868,-0.00048864,-0.085533,0.7749,0.75024
14.672,2.3988,-0.00048864,-0.05523,0.79004,0.71505
14.68,2.3079,-0.00048864,-0.025415,0.81006,0.67498
14.688,2.2278,-0.00048864,-0.075269,0.81006,0.72532
14.696,2.1554,-0.00048864,-0.060606,0.82471,0.70528
14.704,2.0782,-0.00048864,-0.080645,0.83496,0.72532
14.712,2.0029,-0.00048864,-0.060606,0.8501,0.70039
14.72,1.9091,-0.00048864,-0.080645,0.875,0.71017
14.728,1.8104,-0.00048864,-0.075269,0.87988,0.70039
14.736,1.737,-0.00048864,-0.10557,0.83496,0.73998
14.744,1.6784,-0.00048864,-0.085533,0.82471,0.71505
14.752,1.6295,-0.00048864,-0.060606,0.81006,0.70039
14.76,1.5865,-0.00048864,-0.020528,0.79492,0.68035
14.768,1.5484,-0.00048864,0.039589,0.77002,0.65494
14.776,1.5142,-0.00048864,0.10948,0.73486,0.62023
14.784,1.4829,-0.00048864,0.12463,0.70996,0.62512
14.792,1.4594,-0.00048864,0.17498,0.68994,0.58993
14.8,1.4409,-0.00048864,0.20479,0.6748,0.56989
14.808,1.4213,-0.00048864,0.18964,0.65479,0.6002
14.816,1.4018,-0.00048864,0.21457,0.66504,0.57527
14.824,1.3832,-0.00048864,0.24487,0.6748,0.56012
14.832,1.3656,-0.00048864,0.27468,0.6748,0.53519
14.84,1.348,-0.00048864,0.28006,0.68506,0.52493
14.848,1.3294,-0.00048864,0.21994,0.68994,0.58993
14.856,1.3099,-0.00048864,0.24976,0.71484,0.54985
14.864,1.2913,-0.00048864,0.27468,0.7251,0.52981
14.872,1.2727,-0.00048864,0.23998,0.72998,0.57527
14.88,1.2551,-0.00048864,0.26002,0.74512,0.54008
14.888,1.2424,-0.00048864,0.24976,0.73975,0.54985
14.896,1.2336,-0.00048864,0.26491,0.75488,0.54008
14.904,1.2229,-0.00048864,0.28006,0.76514,0.52981
14.912,1.2121,-0.00048864,0.27468,0.7749,0.53519
14.92,1.2023,-0.00048864,0.26979,0.79492,0.54008
14.928,1.1926,-0.00048864,0.35484,0.79492,0.49511
14.936,1.1828,-0.00048864,0.37977,0.77002,0.48485
14.944,1.172,-0.00048864,0.41007,0.72998,0.45992
14.952,1.1603,-0.00048864,0.39003,0.70508,0.47996
14.96,1.1476,-0.00048864,0.39003,0.68506,0.48485
14.968,1.1339,-0.00048864,0.30499,0.68994,0.52004
14.976,1.1212,-0.00048864,0.24976,0.68994,0.55523
14.984,1.1124,-0.00048864,0.19501,0.68506,0.58504
14.992,1.1114,-0.00048864,0.17498,0.68018,0.6002
15,1.1212,-0.00048864,0.17498,0.6748,0.60508
15.008,1.1447,-0.00048864,0.16471,0.66504,0.60508
15.016,1.1867,-0.00048864,0.17498,0.66992,0.59531
15.024,1.2522,-0.00048864,0.16471,0.68018,0.59531
15.032,1.3412,-0.00048864,0.15494,0.7251,0.60508
15.04,1.4506,-0.00048864,0.35484,0.75977,0.49022
15.048,1.5767,-0.00048864,0.77028,0.73975,0.26979
15.056,1.7126,-0.00048864,1.3504,0.70508,-0.070381
15.064,1.8534,-0.00048864,1.501,0.49023,-0.35044
15.072,1.9922,-0.00048864,1.4154,0.2749,-0.14027
15.08,2.1251,-0.00048864,0.92033,0.22998,0.18964
15.088,2.2326,-0.00048864,0.49022,0.51514,0.46481
15.096,2.3226,-0.00048864,0.094819,0.66992,0.64516
15.104,2.4135,-0.00048864,-0.00048876,0.69482,0.69013
15.112,2.4985,-0.00048864,-0.020528,0.70508,0.69501
15.12,2.5728,-0.00048864,-0.050342,0.7251,0.72532
15.128,2.6354,-0.00048864,-0.040567,0.7251,0.71017
15.136,2.6872,-0.00048864,-0.030303,0.73486,0.70039
15.144,2.7283,-0.00048864,-0.050342,0.73486,0.71994
15.152,2.7566,-0.00048864,-0.035191,0.73975,0.71017
15.16,2.7732,-0.00048864,-0.020528,0.73975,0.71505
15.168,2.7771,-0.00048864,-0.025415,0.73975,0.69013
15.176,2.7674,-0.00048864,0.014663,0.75977,0.6652
15.184,2.7439,-0.00048864,0.0043988,0.73975,0.67009
15.192,2.7107,-0.00048864,-0.0053763,0.75977,0.67498
15.2,2.6676,-0.00048864,0.014663,0.75488,0.65005
15.208,2.6129,-0.00048864,0.034702,0.72998,0.64027
15.216,2.5474,-0.00048864,-0.0053763,0.70996,0.69013
15.224,2.4731,-0.00048864,0.01955,0.72998,0.6652
15.232,2.3939,-0.00048864,0.029814,0.73975,0.65494
15.24,2.3118,-0.00048864,0.0097752,0.73486,0.67498
15.248,2.2307,-0.00048864,0.014663,0.75977,0.66031
15.256,2.1515,-0.00048864,-0.015152,0.77002,0.68035
15.264,2.0762,0.023943,-0.015152,0.78516,0.67498
15.272,2.0049,0.04862,-0.040567,0.79492,0.68524
15.28,1.9394,0.07916,-0.070381,0.79004,0.71017
15.288,1.8866,0.10994,-0.065494,0.81494,0.70039
15.296,1.8416,0.14195,-0.095308,0.81494,0.71994
15.304,1.7977,0.17396,-0.10557,0.81494,0.71505
15.312,1.7566,0.20303,-0.10557,0.81006,0.73509
15.32,1.7195,0.23235,-0.085533,0.79004,0.71994
15.328,1.6862,0.25898,-0.015152,0.78516,0.67498
15.336,1.6569,0.28585,0.054741,0.77979,0.64027
15.344,1.6295,0.31224,0.089932,0.73975,0.64516
15.352,1.6041,0.33863,0.12463,0.70996,0.62023
15.36,1.5806,0.36501,0.15982,0.68994,0.60508
15.368,1.5572,0.3914,0.19501,0.6748,0.58504
15.376,1.5347,0.41681,0.21457,0.66504,0.565
15.384,1.5132,0.44222,0.1999,0.63477,0.58016
15.392,1.4956,0.46616,0.18964,0.62012,0.6002
15.4,1.4809,0.49035,0.20479,0.62988,0.58504
15.408,1.4643,0.51136,0.22483,0.62988,0.57527
15.416,1.4457,0.53237,0.2346,0.64014,0.565
15.424,1.4272,0.55118,0.22972,0.64502,0.57527
15.432,1.4076,0.57,0.25464,0.66016,0.54497
15.44,1.3881,0.59052,0.26979,0.66992,0.54008
15.448,1.3695,0.61129,0.2346,0.66992,0.58016
15.456,1.3529,0.63352,0.22483,0.68994,0.58993
15.464,1.3372,0.65575,0.24976,0.70996,0.565
15.472,1.3236,0.67677,0.26979,0.73975,0.54985
15.48,1.3109,0.69802,0.26491,0.77002,0.55523
15.488,1.303,0.71854,0.30987,0.79004,0.52493
15.496,1.2962,0.73931,0.39003,0.80469,0.46481
15.504,1.2884,0.7635,0.45015,0.74512,0.42473
15.512,1.2786,0.78769,0.41007,0.7251,0.46481
15.52,1.2678,0.81481,0.3998,0.7251,0.47019
15.528,1.2561,0.84217,0.32991,0.71484,0.52981
15.536,1.2424,0.86978,0.26002,0.73486,0.56989
15.544,1.2297,0.89763,0.23998,0.74512,0.56012
15.552,1.2199,0.92475,0.20968,0.73486,0.58016
15.56,1.216,0.95211,0.18964,0.75,0.6002
15.568,1.2248,0.97532,0.20968,0.75977,0.57527
15.576,1.2512,0.99853,0.1999,0.7749,0.58993
15.584,1.2991,0.99927,0.17498,0.78516,0.61486
15.592,1.3568,1,0.18964,0.80469,0.59531
15.6,1.4282,1,0.22972,0.89014,0.57527
15.608,1.5239,1,0.57527,0.91992,0.39492
15.616,1.6383,1,1.0152,0.89014,0.11486
15.624,1.7644,1,1.501,0.77979,-0.23069
15.632,1.8944,1,1.501,0.49512,-0.31036
15.64,2.0215,1,1.1202,0.37988,0.059629
15.648,2.1417,1,0.8651,0.5498,0.26002
15.656,2.2522,1,0.29472,0.81494,0.56012
15.664,2.3509,1,0.069892,0.87988,0.67498
15.672,2.437,1,0.049853,0.9248,0.65494
15.68,2.5093,1,-0.0053763,0.94482,0.71017
15.688,2.5611,1,-0.035191,0.9751,0.73509
15.696,2.5973,1,-0.010264,1.0098,0.71017
15.704,2.6285,1,-0.020528,1.0249,0.70039
15.712,2.652,1,0.034702,1.0298,0.6652
15.72,2.6657,1,0.034702,1.04,0.66031
15.728,2.6686,1,0.039589,1.0547,0.67498
15.736,2.6598,1,0.044477,1.0601,0.65494
15.744,2.6393,1,0.014663,1.0601,0.69501
15.752,2.607,1,0.039589,1.0601,0.6652
15.76,2.564,1,0.054741,1.0649,0.64027
15.768,2.5103,1,0.024438,1.0747,0.68524
15.776,2.4467,0.98632,0.049853,1.0698,0.65494
15.784,2.3763,0.97264,0.059629,1.0698,0.64516
15.792,2.3089,0.94943,0.079668,1.0747,0.62512
15.8,2.2424,0.92622,0.034702,1.0898,0.67498
15.808,2.1672,0.90472,0.029814,1.0947,0.65494
15.816,2.089,0.88322,0.044477,1.1099,0.65005
15.824,2.0108,0.86245,0.01955,1.1147,0.67009
15.832,1.9345,0.84193,0.01955,1.1099,0.67498
15.84,1.8641,0.82238,0.0097752,1.1396,0.67498
15.848,1.7986,0.80308,-0.020528,1.1348,0.67498
15.856,1.74,0.78891,-0.040567,1.1396,0.70039
15.864,1.6882,0.77498,-0.05523,1.1548,0.71505
15.872,1.6422,0.76594,-0.075269,1.1299,0.73021
15.88,1.6022,0.7569,-0.035191,1.125,0.69501
15.888,1.5709,0.7525,-0.010264,1.1147,0.70039
15.896,1.5455,0.74835,0.039589,1.0898,0.66031
15.904,1.5191,0.74786,0.11486,1.0649,0.62512
15.912,1.4936,0.74762,0.17498,1.0498,0.58504
15.92,1.4692,0.75153,0.18475,1.0298,0.58993
15.928,1.4467,0.75544,0.21457,1.02,0.57527
15.936,1.4262,0.76228,0.1999,1.0098,0.6002
15.944,1.4076,0.76936,0.22483,1.0049,0.58016
15.952,1.39,0.77645,0.24487,1.0146,0.565
15.96,1.3724,0.78378,0.22972,1,0.58504
15.968,1.3548,0.79062,0.20479,1.0049,0.60508
15.976,1.3392,0.7977,0.22972,1,0.58016
15.984,1.3265,0.80381,0.24487,1.0098,0.57527
15.992,1.3157,0.81016,0.26491,1.02,0.54985
16,1.303,0.81529,0.23998,1.02,0.58016
16.008,1.2893,0.82043,0.23998,1.0249,0.58504
16.016,1.2766,0.82214,0.22483,1.0146,0.57527
16.024,1.2639,0.82409,0.26491,1.0347,0.58016
16.032,1.2542,0.82262,0.28006,1.0449,0.53519
16.04,1.2444,0.8214,0.22972,1.0649,0.58016
16.048,1.2356,0.81774,0.27468,1.0898,0.54497
16.056,1.2268,0.81407,0.32991,1.1196,0.52493
16.064,1.218,0.8087,0.3998,1.1299,0.47507
16.072,1.2111,0.80332,0.43011,1.0898,0.45015
16.08,1.2043,0.79599,0.435,1.0698,0.43988
16.088,1.2004,0.78891,0.3651,1.0698,0.50978
16.096,1.1975,0.7806,0.30987,1.0698,0.50489
16.104,1.1906,0.77229,0.24976,1.0898,0.56012
16.112,1.1828,0.76496,0.22972,1.105,0.56012
16.12,1.1779,0.75763,0.19501,1.1147,0.59531
16.128,1.1799,0.75128,0.17498,1.0947,0.60508
16.136,1.1926,0.74493,0.16471,1.1147,0.6002
16.144,1.2199,0.74029,0.17498,1.1147,0.60997
16.152,1.2659,0.73565,0.18475,1.125,0.6002
16.16,1.3333,0.73271,-0.49071,1.1147,1.0753
16.168,1.4213,0.73003,-0.50049,1.21,1.1603
16.176,1.5279,0.73027,-0.12023,1.1899,0.80499
16.184,1.6305,0.73052,0.45015,1.2349,0.45015
16.192,1.7322,0.7332,1.0953,1.0801,0.0043988
16.2,1.8475,0.73613,1.2204,0.77002,-0.10557
16.208,1.9668,0.74151,0.55523,0.71973,0.37488
16.216,2.0831,0.74688,0.30499,1.0146,0.56989
16.224,2.1906,0.7547,-0.17546,1.23,0.79521
16.232,2.2893,0.76252,-0.25073,1.2998,0.81525
16.24,2.3773,0.77547,-0.26051,1.3296,0.81525
16.248,2.4536,0.78842,-0.2654,1.355,0.82014
16.256,2.5191,0.80503,-0.23069,1.3696,0.81036
16.264,2.5748,0.82165,-0.17058,1.3599,0.77517
16.272,2.6188,0.8385,-0.12561,1.3848,0.75024
16.28,2.652,0.85536,-0.085533,1.3896,0.71505
16.288,2.6696,0.87247,-0.065494,1.3696,0.69501
16.296,2.6745,0.88957,-0.045455,1.3599,0.69501
16.304,2.6706,0.90887,-0.020528,1.3696,0.68524
16.312,2.6549,0.92841,-0.030303,1.3496,0.68035
16.32,2.6276,0.94918,-0.05523,1.355,0.70528
16.328,2.5885,0.96995,0.01955,1.3599,0.65494
16.336,2.5376,0.98485,0.014663,1.3696,0.6652
16.344,2.477,1,0.039589,1.3647,0.66031
16.352,2.4096,1,0.059629,1.395,0.64516
16.36,2.3363,1,0.044477,1.4248,0.65494
16.368,2.259,1,0.039589,1.4746,0.64027
16.376,2.1818,1,0.079668,1.5,0.60508
16.384,2.1134,1,0.024438,1.5,0.67009
16.392,2.0508,1,0.01955,1.5,0.67498
16.4,1.9853,1,0.024438,1.5,0.6652
16.408,1.9218,1,0.014663,1.5,0.65005
16.416,1.8622,1,-0.025415,1.5,0.67498
16.424,1.8074,1,0.0097752,1.5,0.66031
16.432,1.7576,1,0.024438,1.5,0.64027
16.44,1.7116,1,0.0043988,1.5,0.67498
16.448,1.6696,1,0.01955,1.5,0.6652
16.456,1.6295,1,0.059629,1.5,0.6349
16.464,1.5914,1,0.10459,1.5,0.61486
16.472,1.5552,1,0.15982,1.5,0.58016
16.48,1.521,1,0.2346,1.5,0.54497
16.488,1.4956,1,0.26979,1.5,0.51515
16.496,1.477,1,0.26002,1.5,0.54985
16.504,1.4585,1,0.26491,1.5,0.56012
16.512,1.4418,1,0.27468,1.5,0.54008
16.52,1.4272,1,0.3348,1.5,0.49511
16.528,1.4135,1,0.32991,1.5,0.5
16.536,1.3998,1,0.34506,1.5,0.49022
16.544,1.3861,1,0.32991,1.5,0.50489
16.552,1.3705,1,0.33969,1.5,0.50978
16.56,1.3539,1,0.35973,1.5,0.49022
16.568,1.3382,1,0.35484,1.5,0.49511
16.576,1.3226,1,0.3651,1.5,0.48485
16.584,1.3118,1,0.35973,1.5,0.49022
16.592,1.3021,1,0.35484,1.5,0.47996
16.6,1.2903,1,0.39003,1.5,0.45015
16.608,1.2796,1,0.40469,1.5,0.45503
16.616,1.2678,1,0.3998,1.5,0.43988
16.624,1.2571,1,0.42473,1.5,0.45503
16.632,1.2473,1,0.5,1.5,0.3998
16.64,1.2375,1,0.50489,1.5,0.435
16.648,1.2278,1,0.47996,1.5,0.42473
16.656,1.217,1,0.45992,1.5,0.44477
16.664,1.2063,1,0.42473,1.5,0.43988
16.672,1.1945,1,0.34506,1.5,0.50489
16.68,1.1838,1,0.30499,1.5,0.53519
16.688,1.1789,1,0.29472,1.5,0.53519
16.696,1.1808,1,0.28006,1.5,0.52981
16.704,1.1906,1,0.26491,1.5,0.54497
16.712,1.217,1,0.24976,1.5,0.55523
16.72,1.262,1,0.28006,1.5,0.54008
16.728,1.3284,1,0.29472,1.5,0.53519
16.736,1.4174,1,0.45015,1.5,0.45992
16.744,1.523,1,0.89541,1.5,0.18964
16.752,1.6413,1,1.4506,1.5,-0.14565
16.76,1.7654,1,1.501,1.5,-0.41056
16.768,1.911,1,1.4756,1.5,-0.19062
16.776,2.0684,1,1.0606,1.5,0.1349
16.784,2.1935,1,0.58504,1.5,0.41007
16.792,2.2972,1,0.24976,1.5,0.55523
16.8,2.4008,1,0.13978,1.5,0.62023
16.808,2.4976,1,0.084555,1.5,0.67009
16.816,2.5836,1,0.054741,1.5,0.68035
16.824,2.6569,1,0.039589,1.5,0.68524
16.832,2.7175,1,0.07478,1.5,0.64516
16.84,2.7644,1,0.059629,1.5,0.67009
16.848,2.7977,1,0.084555,1.5,0.65494
16.856,2.8182,1,0.054741,1.5,0.67498
16.864,2.825,1,0.069892,1.5,0.65494
16.872,2.8172,1,0.039589,1.5,0.67498
16.88,2.7947,1,0.049853,1.5,0.67009
16.888,2.7615,1,0.044477,1.5,0.67009
16.896,2.7175,1,0.064516,1.5,0.65494
16.904,2.6598,1,0.084555,1.5,0.6349
16.912,2.5894,1,0.039589,1.5,0.67009
16.92,2.5073,1,0.059629,1.5,0.65494
16.928,2.4174,1,0.059629,1.5,0.66031
16.936,2.3226,1,0.049853,1.5,0.66031
16.944,2.2268,1,0.059629,1.5,0.65005
16.952,2.132,1,0.034702,1.5,0.64516
16.96,2.0391,1,0.014663,1.5,0.67498
16.968,1.9511,1,0.0097752,1.5,0.6652
16.976,1.869,1,-0.010264,1.5,0.67009
16.984,1.8025,1,-0.030303,1.5,0.69501
16.992,1.7478,1,-0.015152,1.5,0.67009
17,1.6921,1,-0.030303,1.5,0.69501
17.008,1.6393,1,-0.0053763,1.5,0.68035
17.016,1.5914,1,0.01955,1.5,0.6652
17.024,1.5484,1,0.044477,1.5,0.67009
17.032,1.5083,1,0.10948,1.5,0.62512
17.04,1.4712,1,0.17498,1.5,0.58993
17.048,1.436,1,0.18964,1.5,0.59531
17.056,1.4018,1,0.21994,1.5,0.57527
17.064,1.3666,1,0.26491,1.5,0.54985
17.072,1.3324,1,0.28495,1.5,0.54985
17.08,1.3001,1,0.26002,1.5,0.55523
17.088,1.2747,1,0.27468,1.5,0.53519
17.096,1.2512,1,0.28495,1.5,0.54985
17.104,1.2248,1,0.25464,1.5,0.56989
17.112,1.1984,1,0.28006,1.5,0.54985
17.12,1.1711,1,0.29472,1.5,0.54008
17.128,1.1457,1,0.27468,1.5,0.56012
17.136,1.1212,1,0.26979,1.5,0.54985
17.144,1.0978,1,0.30987,1.5,0.51515
17.152,1.0743,1,0.27468,1.5,0.55523
17.16,1.0528,1,0.3001,1.5,0.53519
17.168,1.0323,1,0.32991,1.4897,0.50978
17.176,1.0137,1,0.34995,1.4199,0.49511
17.184,1.002,1,0.3998,1.355,0.47019
17.192,0.99316,1,0.43011,1.2549,0.46481
17.2,0.98143,1,0.43988,1.1597,0.45503
17.208,0.96872,1,0.42473,1.1396,0.47019
17.216,0.95503,1,0.39492,1.1597,0.46481
17.224,0.94037,1,0.35484,1.1899,0.50978
17.232,0.92571,1,0.28983,1.21,0.54008
17.24,0.91398,1,0.26002,1.2246,0.55523
17.248,0.91007,1,0.24976,1.27,0.54985
17.256,0.91984,1,0.21994,1.29,0.58504
17.264,0.94819,1,0.20968,1.3047,0.59531
17.272,1,1,0.1999,1.2998,0.57527
17.28,1.0782,1,0.24487,1.3247,0.56012
17.288,1.1662,1,0.22483,1.3398,0.58016
17.296,1.2678,1,0.34506,1.4048,0.50489
17.304,1.3969,1,0.70528,1.3999,0.30987
17.312,1.5435,0.98974,1.2004,1.48,-0.0053763
17.32,1.6999,0.97972,1.501,1.3696,-0.33578
17.328,1.8583,0.94991,1.501,1.2446,-0.37048
17.336,2.0127,0.92011,1.1354,1.4346,0.069892
17.344,2.1593,0.89054,0.70528,1.5,0.34995
17.352,2.2952,0.86098,0.16471,1.5,0.62023
17.36,2.4174,0.82775,0.10459,1.5,0.6349
17.368,2.5249,0.79453,0.084555,1.5,0.65005
17.376,2.6178,0.75861,0.059629,1.5,0.65494
17.384,2.6862,0.72294,0.034702,1.5,0.67498
17.392,2.7361,0.69045,0.059629,1.5,0.66031
17.4,2.781,0.65795,0.059629,1.5,0.64027
17.408,2.8182,0.62863,0.054741,1.5,0.6349
17.416,2.8446,0.59956,0.01955,1.5,0.66031
17.424,2.8583,0.57244,0.07478,1.5,0.63001
17.432,2.8592,0.54532,0.084555,1.5,0.6349
17.44,2.8456,0.5204,0.059629,1.5,0.63001
17.448,2.8182,0.49572,0.039589,1.5,0.65494
17.456,2.7771,0.47667,0.054741,1.5,0.64027
17.464,2.7224,0.45761,0.069892,1.5,0.63001
17.472,2.6549,0.44368,0.079668,1.5,0.62512
17.48,2.5738,0.43,0.069892,1.5,0.61486
17.488,2.4927,0.4217,0.054741,1.5,0.63001
17.496,2.4096,0.41363,0.079668,1.5,0.6002
17.504,2.3148,0.41095,0.084555,1.5,0.62512
17.512,2.2141,0.4085,0.034702,1.5,0.63001
17.52,2.1134,0.41437,0.0097752,1.5,0.65494
17.528,2.0156,0.42023,0.014663,1.5,0.64516
17.536,1.9228,0.43269,-0.0053763,1.5,0.65005
17.544,1.8368,0.44539,-0.015152,1.5,0.65494
17.552,1.7586,0.4603,-0.030303,1.5,0.68035
17.56,1.6872,0.4752,-0.010264,1.5,0.65494
17.568,1.6217,0.49255,-0.030303,1.5,0.67498
17.576,1.5621,0.51014,-0.025415,1.5,0.67498
17.584,1.5152,0.5353,-0.035191,1.5,0.68035
17.592,1.4761,0.56071,0.084555,1.5,0.62023
17.6,1.435,0.59296,0.14956,1.5,0.58016
17.608,1.3949,0.62521,0.18475,1.5,0.56989
17.616,1.3587,0.66211,0.18475,1.5,0.57527
17.624,1.3255,0.699,0.2346,1.5,0.54497
17.632,1.2942,0.73833,0.24976,1.5,0.54008
17.64,1.2659,0.77767,0.2346,1.5,0.56012
17.648,1.2395,0.8131,0.24976,1.5,0.54008
17.656,1.216,0.84852,0.21457,1.5,0.58016
17.664,1.1945,0.88028,0.24976,1.5,0.55523
17.672,1.173,0.91229,0.26002,1.5,0.55523
17.68,1.1584,0.94258,0.3001,1.5,0.51515
17.688,1.1476,0.97288,0.26979,1.4849,0.54008
17.696,1.1349,0.98632,0.26002,1.4648,0.53519
17.704,1.1222,1,0.25464,1.4399,0.54985
17.712,1.1085,1,0.26979,1.4346,0.55523
17.72,1.0938,1,0.28006,1.4297,0.54008
17.728,1.0782,1,0.31476,1.4199,0.51515
17.736,1.0626,1,0.31965,1.4097,0.50489
17.744,1.0479,1,0.32991,1.4048,0.49511
17.752,1.0332,1,0.41496,1.3447,0.45503
17.76,1.0186,1,0.45503,1.2798,0.41984
17.768,1.002,1,0.435,1.2397,0.43988
17.776,0.98534,1,0.43988,1.2197,0.43011
17.784,0.97361,1,0.30499,1.1948,0.53519
17.792,0.96481,1,0.24976,1.165,0.56012
17.8,0.95406,1,0.22972,1.1348,0.54008
17.808,0.94721,0.99829,0.20479,1.1147,0.56989
17.816,0.94917,0.99658,0.1999,1.085,0.58016
17.824,0.96774,0.96946,0.18964,1.0449,0.565
17.832,1.0088,0.94258,0.17498,1.02,0.59531
17.84,1.0762,0.90936,0.1999,0.98975,0.58504
17.848,1.1701,0.87637,0.20479,1.0249,0.58504
17.856,1.2884,0.83899,0.30499,1.0547,0.52981
17.864,1.4282,0.80161,0.69013,1.0298,0.30499
17.872,1.5816,0.76765,1.2155,0.98975,-0.025415
17.88,1.7204,0.73369,1.501,0.7749,-0.31574
17.888,1.8504,0.70364,1.4956,0.5,-0.34066
17.896,1.9922,0.67383,1.0753,0.4502,0.11975
17.904,2.1329,0.64867,0.67009,0.68994,0.3651
17.912,2.2659,0.6235,0.17498,0.81494,0.6002
17.92,2.3851,0.60323,0.064516,0.82471,0.67009
17.928,2.4897,0.58319,0.024438,0.83496,0.67498
17.936,2.5787,0.57342,0.029814,0.81006,0.67498
17.944,2.652,0.56389,0.01955,0.80469,0.68524
17.952,2.7087,0.56316,0.029814,0.81006,0.67498
17.96,2.7507,0.56242,0.0097752,0.77002,0.69013
17.968,2.7791,0.5678,0.014663,0.75977,0.67498
17.976,2.7937,0.57342,0.01955,0.76514,0.67498
17.984,2.7947,0.5849,-0.0053763,0.73486,0.70039
17.992,2.784,0.59638,0.034702,0.71484,0.66031
18,2.7625,0.61935,0.029814,0.7002,0.67009
18.008,2.7283,0.64232,0.034702,0.66016,0.6652
18.016,2.6794,0.67408,-0.010264,0.63477,0.70039
18.024,2.6158,0.70584,0.024438,0.61475,0.67498
18.032,2.5386,0.73833,0.044477,0.6001,0.65494
18.04,2.4516,0.77107,0.059629,0.58496,0.64516
18.048,2.3558,0.80406,0.029814,0.56494,0.6652
18.056,2.2542,0.83728,0.014663,0.54492,0.67498
18.064,2.1505,0.87393,0.054741,0.5498,0.64027
18.072,2.0479,0.91058,0.014663,0.53516,0.67009
18.08,1.9589,0.94869,0.0043988,0.5249,0.6652
18.088,1.8807,0.98705,-0.015152,0.52979,0.69013
18.096,1.8006,0.9934,-0.035191,0.5249,0.68035
18.104,1.7243,1,-0.040567,0.52979,0.70039
18.112,1.654,1,-0.070381,0.51514,0.69501
18.12,1.5904,1,-0.10557,0.50488,0.74536
18.128,1.5347,1,-0.050342,0.5,0.71505
18.136,1.4848,1,-0.030303,0.50488,0.69013
18.144,1.4399,1,0.014663,0.49512,0.67009
18.152,1.3988,1,0.064516,0.47998,0.64027
18.16,1.3597,1,0.12463,0.4751,0.60508
18.168,1.3216,1,0.17498,0.46484,0.58016
18.176,1.2835,1,0.18475,0.43506,0.6002
18.184,1.2532,1,0.1999,0.41992,0.57527
18.192,1.2278,1,0.19501,0.3999,0.59531
18.2,1.1984,1,0.25464,0.41016,0.54497
18.208,1.1681,1,0.26979,0.3999,0.54497
18.216,1.1388,1,0.22972,0.37988,0.58016
18.224,1.1114,1,0.24976,0.36523,0.56012
18.232,1.086,1,0.26002,0.35498,0.55523
18.24,1.0635,1,0.26979,0.36523,0.56012
18.248,1.044,1,0.26491,0.36523,0.55523
18.256,1.0264,1,0.28006,0.3501,0.54008
18.264,1.0098,1,0.28495,0.35498,0.53519
18.272,0.99316,1,0.26979,0.3501,0.54497
18.28,0.9824,1,0.31965,0.38525,0.50978
18.288,0.97556,1,0.29472,0.39502,0.52493
18.296,0.96579,1,0.34506,0.43018,0.49511
18.304,0.95308,1,0.39003,0.43994,0.46481
18.312,0.93744,1,0.42473,0.41504,0.43988
18.32,0.92082,1,0.40469,0.40479,0.46481
18.328,0.90225,1,0.41007,0.4248,0.46481
18.336,0.8827,1,0.37977,0.41992,0.49511
18.344,0.86217,1,0.29472,0.43018,0.52981
18.352,0.84066,1,0.26491,0.43994,0.55523
18.36,0.82307,1,0.2346,0.43506,0.56989
18.368,0.81329,1,0.21994,0.44482,0.58016
18.376,0.8172,1,0.23998,0.43994,0.56012
18.384,0.83675,1,0.21457,0.44482,0.58016
18.392,0.87586,1,0.19501,0.45508,0.58504
18.4,0.93939,1,0.19501,0.4502,0.58993
18.408,1.0303,1,0.22483,0.51514,0.56989
18.416,1.1476,1,0.44477,0.56494,0.45503
18.424,1.2864,1,0.78006,0.58496,0.26002
18.432,1.4409,1,1.3358,0.59521,-0.12023
18.44,1.6012,1,1.501,0.3501,-0.3607
18.448,1.7605,1,1.3905,0.17529,-0.13539
18.456,1.914,1,1.0205,0.16016,0.17498
18.464,2.0577,1,0.45992,0.51514,0.49022
18.472,2.1896,1,0.1349,0.62012,0.64027
18.48,2.2942,1,0.054741,0.65479,0.67009
18.488,2.3812,1,0.034702,0.68994,0.68035
18.496,2.4682,1,0.0097752,0.71973,0.69501
18.504,2.5484,1,-0.0053763,0.73975,0.70039
18.512,2.6188,1,0.024438,0.76514,0.68035
18.52,2.6764,1,0.01955,0.78516,0.68524
18.528,2.7214,1,0.034702,0.80469,0.66031
18.536,2.7517,1,0.029814,0.81982,0.67498
18.544,2.7693,1,0.054741,0.85498,0.65494
18.552,2.7722,1,0.014663,0.85498,0.67498
18.56,2.7595,1,0.014663,0.87988,0.68035
18.568,2.7312,1,0.034702,0.8999,0.66031
18.576,2.6882,1,0.039589,0.90479,0.66031
18.584,2.6383,1,0.014663,0.8999,0.68524
18.592,2.5816,1,0.034702,0.88477,0.6652
18.6,2.5103,1,0.049853,0.86475,0.65494
18.608,2.4282,1,0.044477,0.85986,0.65005
18.616,2.3392,1,0.024438,0.85498,0.6652
18.624,2.2483,1,0.01955,0.83984,0.65005
18.632,2.1574,1,0.014663,0.83496,0.66031
18.64,2.0684,1,0.014663,0.83008,0.65494
18.648,1.9834,1,-0.020528,0.81494,0.67498
18.656,1.9032,1,-0.025415,0.81006,0.68035
18.664,1.828,1,-0.065494,0.7998,0.71505
18.672,1.7576,1,-0.075269,0.7998,0.70039
18.68,1.6999,1,-0.050342,0.78516,0.71017
18.688,1.65,1,-0.035191,0.77002,0.70039
18.696,1.5992,1,-0.00048876,0.7749,0.67498
18.704,1.5494,1,0.014663,0.72998,0.67498
18.712,1.5015,1,0.064516,0.70996,0.65005
18.72,1.4565,1,0.12952,0.68506,0.63001
18.728,1.4135,1,0.16471,0.65479,0.60997
18.736,1.3724,1,0.19501,0.625,0.59531
18.744,1.3353,1,0.22483,0.59521,0.58504
18.752,1.3011,1,0.23998,0.5752,0.56989
18.76,1.2708,1,0.24976,0.56006,0.56989
18.768,1.2444,1,0.24976,0.52979,0.56989
18.776,1.2229,1,0.26979,0.51514,0.54497
18.784,1.2082,1,0.24487,0.49023,0.565
18.792,1.1955,1,0.22972,0.45996,0.58504
18.8,1.1789,1,0.26491,0.43018,0.56989
18.808,1.1593,1,0.25464,0.41016,0.57527
18.816,1.1857,1,0.26979,0.41016,0.56012
18.824,1.2326,1,0.24976,0.41016,0.57527
18.832,1.2434,1,0.26979,0.41504,0.56012
18.84,1.2366,1,0.26491,0.41992,0.53519
18.848,1.2199,1,0.31965,0.44482,0.52981
18.856,1.2004,1,0.30987,0.45996,0.54008
18.864,1.1818,1,0.39492,0.45508,0.48485
18.872,1.1642,1,0.44477,0.4248,0.45503
18.88,1.1515,1,0.41496,0.37012,0.46481
18.888,1.1417,1,0.38514,0.33984,0.48485
18.896,1.1261,1,0.33969,0.31982,0.51515
18.904,1.1085,1,0.24976,0.31494,0.56989
18.912,1.0909,1,0.26002,0.31006,0.54497
18.92,1.0762,1,0.20479,0.28027,0.6002
18.928,1.0694,1,0.17498,0.27002,0.60508
18.936,1.0762,1,0.19501,0.26025,0.59531
18.944,1.1026,1,0.21457,0.25,0.58504
18.952,1.1535,1,0.22972,0.24023,0.565
18.96,1.2297,1,0.17498,0.22998,0.6349
18.968,1.3314,1,0.15494,0.29004,0.64516
18.976,1.4545,1,0.51515,0.31494,0.435
18.984,1.5738,1,0.94037,0.31006,0.16471
18.992,1.6931,1,1.4609,0.21484,-0.20039
19,1.8309,1,1.501,-0.040039,-0.3304
19.008,1.9756,1,1.2805,-0.15479,-0.020528
19.016,2.1173,1,0.93548,-0.02002,0.24487
19.024,2.2522,1,0.30499,0.22998,0.56012
19.032,2.3763,1,0.07478,0.30029,0.67009
19.04,2.4888,1,0.034702,0.33008,0.69013
19.048,2.5885,1,0.014663,0.35986,0.70528
19.056,2.6725,1,0.0043988,0.35498,0.70039
19.064,2.7429,1,-0.00048876,0.37012,0.70039
19.072,2.7986,1,-0.0053763,0.35986,0.71017
19.08,2.8338,1,0.01955,0.35498,0.68035
19.088,2.8534,1,-0.015152,0.33008,0.70039
19.096,2.8661,1,-0.025415,0.30518,0.71994
19.104,2.8671,1,-0.030303,0.31494,0.72532
19.112,2.8573,1,0.0097752,0.30518,0.70039
19.12,2.8338,1,-0.010264,0.29492,0.71017
19.128,2.7967,1,-0.0053763,0.30029,0.70039
19.136,2.7468,1,0.054741,0.30518,0.66031
19.144,2.6843,1,0.059629,0.33496,0.65494
19.152,2.6109,1,0.01955,0.36523,0.67498
19.16,2.5288,1,0.044477,0.37988,0.66031
19.168,2.4418,1,0.034702,0.40479,0.65494
19.176,2.35,1,0.024438,0.43994,0.67498
19.184,2.2678,1,0.0097752,0.44482,0.67498
19.192,2.1916,1,0.0097752,0.4751,0.67009
19.2,2.1095,1,-0.020528,0.50488,0.67498
19.208,2.0274,1,-0.010264,0.5249,0.66031
19.216,1.9492,1,-0.060606,0.55518,0.70528
19.224,1.8759,1,-0.10557,0.55518,0.72532
19.232,1.8074,1,-0.085533,0.5752,0.71994
19.24,1.7449,1,-0.060606,0.56982,0.70039
19.248,1.6882,1,-0.045455,0.55518,0.70528
19.256,1.6364,1,0.0097752,0.56006,0.67009
19.264,1.5875,1,0.0097752,0.5498,0.68035
19.272,1.5406,1,0.089932,0.54492,0.65005
19.28,1.5034,1,0.14467,0.5498,0.62023
19.288,1.4712,1,0.17986,0.5498,0.60508
19.296,1.436,1,0.18475,0.52979,0.58504
19.304,1.4008,1,0.20968,0.53516,0.57527
19.312,1.3666,1,0.22483,0.5498,0.56989
19.32,1.3333,1,0.22483,0.55518,0.58016
19.328,1.3001,1,0.24976,0.5498,0.56012
19.336,1.2678,1,0.24487,0.56982,0.56989
19.344,1.2375,1,0.25464,0.5752,0.55523
19.352,1.2082,1,0.23998,0.58984,0.57527
19.36,1.1808,1,0.26491,0.58984,0.54985
19.368,1.1544,1,0.26979,0.59521,0.55523
19.376,1.129,1,0.26979,0.58984,0.54497
19.384,1.1114,1,0.25464,0.59521,0.56012
19.392,1.0978,1,0.26979,0.6001,0.54497
19.4,1.0811,1,0.24976,0.60498,0.55523
19.408,1.0645,1,0.28495,0.62012,0.53519
19.416,1.0489,1,0.32502,0.625,0.52004
19.424,1.0332,1,0.41496,0.5752,0.45015
19.432,1.0186,1,0.44477,0.51514,0.43011
19.44,1.0049,1,0.39492,0.47998,0.48485
19.448,0.99022,1,0.3998,0.47021,0.47996
19.456,0.97263,1,0.30499,0.46484,0.53519
19.464,0.95406,1,0.2346,0.47021,0.57527
19.472,0.93744,1,0.21994,0.45996,0.58504
19.48,0.92962,1,0.22972,0.47021,0.58016
19.488,0.93255,1,0.18964,0.47021,0.59531
19.496,0.94526,1,0.20968,0.4502,0.58504
19.504,0.97556,1,0.19501,0.43994,0.59531
19.512,1.0303,1,0.1999,0.44482,0.58504
19.52,1.1114,1,0.18475,0.48486,0.6002
19.528,1.217,1,0.16471,0.54492,0.60508
19.536,1.3451,1,0.60997,0.52002,0.35484
19.544,1.4888,1,1.1007,0.5249,0.039589
19.552,1.6422,1,1.501,0.33008,-0.27566
19.56,1.7977,1,1.501,0.050293,-0.36559
19.568,1.9482,1,1.2204,-0.0048828,0.049853
19.576,2.0743,1,0.77028,0.20996,0.32502
19.584,2.1828,1,0.17986,0.36523,0.62023
19.592,2.2942,1,0.049853,0.38525,0.67498
19.6,2.4008,1,0.014663,0.38525,0.69013
19.608,2.4966,1,-0.015152,0.37988,0.71017
19.616,2.5816,1,-0.0053763,0.41504,0.70039
19.624,2.6559,1,0.0043988,0.43018,0.70039
19.632,2.7175,1,-0.020528,0.43506,0.71505
19.64,2.7664,1,0.014663,0.43018,0.69013
19.648,2.8025,1,0.034702,0.4248,0.68035
19.656,2.826,1,0.014663,0.43018,0.69013
19.664,2.8338,1,0.0097752,0.43506,0.68524
19.672,2.828,1,-0.0053763,0.44482,0.69501
19.68,2.8094,1,0.024438,0.4502,0.67009
19.688,2.7801,1,0.01955,0.4502,0.67498
19.696,2.738,1,0.034702,0.45996,0.67009
19.704,2.6833,1,0.0097752,0.45996,0.67498
19.712,2.6178,0.99634,0.014663,0.4751,0.67498
19.72,2.5425,0.99291,-0.015152,0.47021,0.67009
19.728,2.4604,0.97655,0.01955,0.48486,0.65494
19.736,2.3734,0.96042,0.0097752,0.50977,0.6652
19.744,2.2854,0.94478,0.029814,0.53516,0.65494
19.752,2.2004,0.92915,-0.010264,0.54004,0.67498
19.76,2.1202,0.91473,-0.010264,0.56494,0.67498
19.768,2.0459,0.90056,-0.035191,0.58496,0.70039
19.776,1.9844,0.88761,-0.05523,0.58496,0.71017
19.784,1.9326,0.87491,-0.05523,0.6001,0.70528
19.792,1.8788,0.86391,-0.040567,0.60986,0.69501
19.8,1.827,0.85316,-0.035191,0.60498,0.69013
19.808,1.7781,0.84412,-0.040567,0.59521,0.68035
19.816,1.7331,0.83533,0.0043988,0.58984,0.6652
19.824,1.6901,0.82946,0.054741,0.59521,0.65005
19.832,1.65,0.82385,0.084555,0.56982,0.6349
19.84,1.6109,0.82091,0.15982,0.54004,0.58993
19.848,1.5748,0.81823,0.17986,0.51514,0.58016
19.856,1.5435,0.81871,0.1999,0.49023,0.58016
19.864,1.5161,0.8192,0.1696,0.4751,0.59531
19.872,1.4936,0.82214,0.19501,0.4502,0.6002
19.88,1.478,0.82507,0.22972,0.43506,0.565
19.888,1.4663,0.82751,0.20968,0.43018,0.57527
19.896,1.4526,0.8302,0.24487,0.41016,0.565
19.904,1.437,0.8324,0.26002,0.38525,0.56989
19.912,1.4203,0.83484,0.26979,0.37988,0.54497
19.92,1.4037,0.8385,0.24487,0.35986,0.56012
19.928,1.3881,0.84217,0.26491,0.35498,0.54497
19.936,1.3724,0.84657,0.26491,0.33984,0.55523
19.944,1.3568,0.85121,0.24976,0.33496,0.54497
19.952,1.3392,0.8539,0.23998,0.33984,0.55523
19.96,1.3206,0.85658,0.26491,0.34521,0.53519
19.968,1.3001,0.85756,0.28983,0.36523,0.52493
19.976,1.2845,0.85854,0.33969,0.3999,0.49511
19.984,1.2708,0.85952,0.39003,0.38525,0.47019
19.992,1.2532,0.86074,0.41984,0.35498,0.44477
20,1.2336,0.8622,0.41007,0.33984,0.45992
20.008,1.2111,0.86367,0.38514,0.33496,0.47019
20.016,1.1887,0.86611,0.28495,0.34521,0.54008
20.024,1.1672,0.86856,0.24487,0.3252,0.56012
20.032,1.1496,0.87173,0.22483,0.31006,0.55523
20.04,1.1388,0.87491,0.21994,0.30518,0.57527
20.048,1.1398,0.87735,0.20479,0.29004,0.58504
20.056,1.1574,0.87979,0.18964,0.27002,0.56989
20.064,1.1965,0.88175,0.20479,0.26514,0.59531
20.072,1.26,0.8837,0.1696,0.25,0.58504
20.08,1.3343,0.88639,0.19501,0.28027,0.58504
20.088,1.4213,0.88908,0.17498,0.3252,0.59531
20.096,1.5337,0.89226,0.63001,0.31982,0.3348
20.104,1.6628,0.89568,1.1105,0.3252,0.014663
20.112,1.8025,0.89763,1.501,0.11523,-0.31574
20.12,1.9453,0.89958,1.501,-0.13965,-0.39052
20.128,2.087,0.90032,1.2204,-0.18994,0.044477
20.136,2.2239,0.90129,0.70528,0.070312,0.35484
20.144,2.3519,0.90203,0.19501,0.22021,0.59531
20.152,2.4682,0.90276,0.054741,0.24512,0.6652
20.16,2.5709,0.90398,0.0043988,0.26514,0.69013
20.168,2.6598,0.9052,-0.010264,0.28027,0.70039
20.176,2.7253,0.90765,-0.0053763,0.28516,0.70039
20.184,2.7742,0.91033,-0.030303,0.28027,0.70039
20.192,2.8201,0.914,0.0043988,0.28516,0.67498
20.2,2.8592,0.91766,-0.0053763,0.27002,0.68524
20.208,2.8886,0.91986,0.029814,0.28516,0.67498
20.216,2.9071,0.92206,-0.010264,0.26514,0.69501
20.224,2.915,0.92304,-0.025415,0.24023,0.68035
20.232,2.9101,0.92402,0.0097752,0.23486,0.67498
20.24,2.8915,0.92597,0.044477,0.22998,0.65494
20.248,2.8602,0.92793,0.029814,0.2251,0.67009
20.256,2.8152,0.93037,0.01955,0.22021,0.67498
20.264,2.7556,0.93306,0.039589,0.2251,0.65494
20.272,2.6843,0.93477,0.024438,0.2251,0.6652
20.28,2.6129,0.93648,0.029814,0.24023,0.65494
20.288,2.5386,0.9377,0.034702,0.24512,0.66031
20.296,2.4526,0.93916,0.039589,0.26514,0.65494
20.304,2.3607,0.9421,0.014663,0.2749,0.6652
20.312,2.2678,0.94527,-0.010264,0.28027,0.67498
20.32,2.1779,0.94991,-0.030303,0.2749,0.68035
20.328,2.0938,0.9548,-0.035191,0.29492,0.68524
20.336,2.0186,0.96066,-0.040567,0.29004,0.69013
20.344,1.9511,0.96653,-0.035191,0.29492,0.68035
20.352,1.8925,0.97288,-0.060606,0.29004,0.71017
20.36,1.8407,0.97923,-0.05523,0.29492,0.70039
20.368,1.7947,0.98363,-0.035191,0.28027,0.70039
20.376,1.7586,0.98827,0.014663,0.27002,0.6652
20.384,1.7283,0.9912,0.054741,0.27002,0.65494
20.392,1.696,0.99414,0.11975,0.26025,0.62023
20.4,1.6628,0.99609,0.15494,0.25,0.60508
20.408,1.6295,0.99829,0.18475,0.25,0.59531
20.416,1.5973,0.99902,0.1999,0.23486,0.58504
20.424,1.566,1,0.21994,0.24023,0.57527
20.432,1.5347,0.99927,0.21457,0.24512,0.58016
20.44,1.5054,0.99853,0.26002,0.24023,0.54985
20.448,1.477,0.99536,0.23998,0.26025,0.565
20.456,1.4487,0.99243,0.22972,0.29004,0.55523
20.464,1.4223,0.98778,0.26002,0.3252,0.54497
20.472,1.3959,0.98339,0.26979,0.35498,0.565
20.48,1.3763,0.97777,0.22972,0.37012,0.56989
20.488,1.3607,0.97215,0.22483,0.38525,0.54985
20.496,1.3441,0.96531,0.28495,0.40479,0.53519
20.504,1.3265,0.95847,0.26979,0.41504,0.55523
20.512,1.3089,0.95065,0.26979,0.4502,0.55523
20.52,1.2933,0.94283,0.28006,0.45996,0.53519
20.528,1.2786,0.93403,0.3001,0.4751,0.52004
20.536,1.2659,0.92524,0.3348,0.48486,0.50489
20.544,1.2532,0.91547,0.41007,0.45996,0.45992
20.552,1.2424,0.90594,0.435,0.41504,0.45503
20.56,1.2317,0.89568,0.43988,0.37988,0.45992
20.568,1.219,0.88566,0.39003,0.36523,0.47507
20.576,1.2102,0.87515,0.33969,0.36523,0.5
20.584,1.2033,0.86489,0.26491,0.375,0.56012
20.592,1.1926,0.85439,0.21457,0.35498,0.56989
20.6,1.1828,0.84388,0.1999,0.34521,0.58993
20.608,1.1799,0.83313,0.22483,0.375,0.56989
20.616,1.1887,0.82238,0.23998,0.38525,0.56012
20.624,1.216,0.81016,0.2346,0.40479,0.57527
20.632,1.2659,0.79819,0.21994,0.3999,0.58993
20.64,1.3392,0.78475,0.21457,0.47021,0.59531
20.648,1.436,0.77132,0.31965,0.53516,0.52493
20.656,1.5523,0.75666,0.70039,0.56982,0.30499
20.664,1.6833,0.74224,1.1955,0.60498,-0.030303
20.672,1.824,0.72685,1.501,0.375,-0.34066
20.68,1.9492,0.71146,1.501,0.125,-0.40567
20.688,2.0635,0.69656,1.1906,0.10986,0.07478
20.696,2.1887,0.6819,0.6652,0.4502,0.37977
20.704,2.3138,0.66748,0.17498,0.58008,0.6002
20.712,2.4321,0.65307,0.084555,0.63477,0.6349
20.72,2.5406,0.63816,0.044477,0.66016,0.67009
20.728,2.6393,0.6235,0.0043988,0.65479,0.70528
20.736,2.7263,0.60836,-0.0053763,0.68506,0.71505
20.744,2.8016,0.59345,0.014663,0.69482,0.70039
20.752,2.8641,0.57928,-0.015152,0.70508,0.70528
20.76,2.914,0.56511,0.054741,0.71484,0.67498
20.768,2.9511,0.55143,0.029814,0.7251,0.68524
20.776,2.9717,0.53775,0.034702,0.7251,0.67498
20.784,2.9785,0.52333,-0.010264,0.73486,0.70039
20.792,2.9756,0.50916,0.024438,0.73975,0.67498
20.8,2.9599,0.49377,0.059629,0.72998,0.6652
20.808,2.9296,0.47862,0.059629,0.71973,0.65494
20.816,2.8837,0.46176,0.01955,0.71484,0.67498
20.824,2.8231,0.44491,0.0097752,0.71484,0.6652
20.832,2.7498,0.42683,0.034702,0.70508,0.6652
20.84,2.6676,0.40875,0.039589,0.70508,0.65494
20.848,2.5777,0.39164,0.014663,0.70996,0.66031
20.856,2.4839,0.37479,0.044477,0.71484,0.64516
20.864,2.3959,0.35842,0.039589,0.71484,0.65005
20.872,2.3138,0.34205,0.044477,0.71484,0.64516
20.88,2.2405,0.32323,0.0043988,0.71484,0.64027
20.888,2.173,0.30467,-0.025415,0.71484,0.67498
20.896,2.1036,0.28439,-0.045455,0.7251,0.69013
20.904,2.0381,0.26435,-0.065494,0.71484,0.70039
20.912,1.9785,0.24652,-0.045455,0.71484,0.69501
20.92,1.9247,0.22893,-0.05523,0.7251,0.70039
20.928,1.8759,0.21378,0.0097752,0.70996,0.6652
20.936,1.8299,0.19863,0.014663,0.66504,0.65494
20.944,1.7869,0.18617,0.054741,0.64502,0.65005
20.952,1.7468,0.17396,0.089932,0.625,0.63001
20.96,1.7087,0.16467,0.17498,0.61475,0.58504
20.968,1.6725,0.15563,0.17986,0.58496,0.58993
20.976,1.6442,0.15343,0.22483,0.56982,0.565
20.984,1.6207,0.15123,0.21457,0.54492,0.56989
20.992,1.5963,0.1549,0.21457,0.53516,0.565
21,1.5718,0.15881,0.22972,0.53516,0.55523
21.008,1.5484,0.16638,0.24976,0.5249,0.54985
21.016,1.5259,0.17396,0.25464,0.52002,0.54985
21.024,1.5044,0.18593,0.24976,0.51514,0.54008
21.032,1.4829,0.1979,0.26491,0.52979,0.56012
21.04,1.4624,0.22184,0.26491,0.51514,0.54008
21.048,1.4438,0.24603,0.24976,0.50977,0.54985
21.056,1.4262,0.27975,0.26979,0.50488,0.53519
21.064,1.4106,0.31371,0.24976,0.52979,0.54497
21.072,1.3949,0.35011,0.28983,0.53516,0.52981
21.08,1.3842,0.38651,0.3001,0.52979,0.50978
21.088,1.3744,0.42536,0.3348,0.5498,0.49022
21.096,1.3617,0.46421,0.36999,0.55518,0.47996
21.104,1.346,0.51185,0.41984,0.50488,0.45015
21.112,1.3284,0.55949,0.45015,0.47021,0.42473
21.12,1.3109,0.61398,0.41007,0.4502,0.46481
21.128,1.2923,0.6687,0.37488,0.41992,0.47507
21.136,1.2747,0.72343,0.28006,0.40479,0.53519
21.144,1.26,0.7784,0.22483,0.40479,0.56012
21.152,1.2502,0.83118,0.22483,0.39014,0.565
21.16,1.2473,0.88395,0.21994,0.38525,0.565
21.168,1.2571,0.92622,0.20479,0.37988,0.58016
21.176,1.2786,0.96848,0.17498,0.36523,0.59531
21.184,1.3157,0.98412,0.1999,0.33496,0.58016
21.192,1.3734,1,0.21457,0.33496,0.565
21.2,1.4536,1,0.18475,0.39014,0.59531
21.208,1.5543,1,0.39492,0.43506,0.47507
21.216,1.6706,1,0.78543,0.43506,0.24487
21.224,1.7996,1,1.3104,0.43994,-0.1002
21.232,1.9365,1,1.501,0.11523,-0.37048
21.24,2.0772,1,1.4907,-0.10986,-0.19062
21.248,2.216,1,1.1153,-0.024902,0.12463
21.256,2.3509,1,0.5,0.28516,0.45992
21.264,2.4809,1,0.12952,0.40479,0.64516
21.272,2.6012,1,0.01955,0.4248,0.67498
21.28,2.696,1,0.014663,0.4502,0.68524
21.288,2.7732,1,0.029814,0.4751,0.67498
21.296,2.8495,1,0.034702,0.49023,0.67498
21.304,2.9169,1,0.014663,0.50488,0.68524
21.312,2.9736,1,0.029814,0.51514,0.67498
21.32,3.0186,1,0.01955,0.5249,0.68035
21.328,3.0499,1,0.034702,0.50488,0.6652
21.336,3.0674,1,0.044477,0.47998,0.6652
21.344,3.0723,1,0.064516,0.49023,0.66031
21.352,3.0635,1,0.049853,0.46484,0.6652
21.36,3.0401,1,0.034702,0.45996,0.67009
21.368,3.002,1,0.034702,0.45508,0.6652
21.376,2.955,1,0.049853,0.4502,0.66031
21.384,2.8993,1,0.054741,0.4248,0.65005
21.392,2.8289,1,0.064516,0.43018,0.65494
21.4,2.7478,1,0.029814,0.41504,0.6652
21.408,2.6579,1,0.014663,0.4248,0.67498
21.416,2.563,1,0.014663,0.43018,0.67009
21.424,2.4692,1,0.034702,0.43506,0.65494
21.432,2.3783,1,0.0043988,0.44482,0.67498
21.44,2.2933,1,-0.015152,0.47021,0.69013
21.448,2.2151,1,-0.010264,0.4751,0.68035
21.456,2.1447,1,-0.00048876,0.47998,0.67498
21.464,2.0821,1,-0.050342,0.50488,0.70528
21.472,2.0323,1,-0.065494,0.5,0.72532
21.48,1.9902,1,-0.05523,0.49512,0.71505
21.488,1.9472,1,-0.015152,0.48486,0.69501
21.496,1.9052,1,0.054741,0.49023,0.66031
21.504,1.8661,1,0.10459,0.46484,0.64027
21.512,1.8299,1,0.17986,0.45508,0.58504
21.52,1.7967,1,0.19501,0.43506,0.6002
21.528,1.7664,1,0.21994,0.43994,0.6002
21.536,1.739,1,0.24976,0.44482,0.58016
21.544,1.7136,1,0.23998,0.39014,0.565
21.552,1.6891,1,0.2346,0.39014,0.565
21.56,1.6657,1,0.23998,0.38525,0.57527
21.568,1.6432,1,0.2346,0.38525,0.58016
21.576,1.6256,1,0.28983,0.41016,0.54497
21.584,1.6119,1,0.30499,0.40479,0.53519
21.592,1.5953,1,0.28006,0.43018,0.56989
21.6,1.5797,1,0.26979,0.41504,0.56012
21.608,1.563,1,0.26979,0.41504,0.57527
21.616,1.5464,1,0.28006,0.41504,0.56989
21.624,1.5298,1,0.30499,0.41016,0.54008
21.632,1.5122,0.98632,0.32502,0.4248,0.52004
21.64,1.4927,0.97288,0.31965,0.43506,0.52493
21.648,1.4721,0.94698,0.34995,0.41992,0.49022
