Time [s], RESP, PLETH, II, V, AVR
0,1,0.41642,0.20117,0.66471,0.7207
0.008,1,0.41153,0.20508,0.66471,0.70508
0.016,1,0.40665,0.2207,0.65098,0.68555
0.024,1,0.40078,0.23047,0.6451,0.66406
0.032,1,0.39492,0.2207,0.65098,0.66016
0.04,1,0.38905,0.21484,0.6451,0.66406
0.048,1,0.38416,0.2207,0.65098,0.66016
0.056,1,0.37928,0.21094,0.66078,0.66016
0.064,1,0.37537,0.21484,0.66471,0.66016
0.072,1,0.37243,0.20117,0.66471,0.66016
0.08,1,0.37048,0.20508,0.67647,0.66406
0.088,1,0.36657,0.19531,0.68039,0.66016
0.096,1,0.36364,0.18945,0.68627,0.66992
0.104,1,0.3607,0.18945,0.68039,0.67578
0.112,1,0.35679,0.19531,0.68627,0.66992
0.12,1,0.35288,0.19531,0.6902,0.67578
0.128,1,0.34897,0.18945,0.6902,0.66992
0.136,1,0.34506,0.20508,0.6902,0.66016
0.144,1,0.34018,0.22461,0.6902,0.64453
0.152,1,0.33529,0.23047,0.69608,0.63477
0.16,1,0.3304,0.24609,0.6902,0.61914
0.168,1,0.32649,0.25,0.6902,0.61914
0.176,1,0.32356,0.25977,0.69608,0.61523
0.184,1,0.3216,0.25977,0.7,0.61523
0.192,1,0.31965,0.25586,0.69608,0.61523
0.2,1,0.31769,0.26953,0.67647,0.61914
0.208,1,0.31574,0.22461,0.67059,0.6543
0.216,1,0.31476,0.20508,0.67647,0.66992
0.224,1,0.31574,0.19531,0.67059,0.67969
0.232,1,0.31769,0.17969,0.68039,0.68555
0.24,1,0.32258,0.18555,0.67059,0.68945
0.248,1,0.32845,0.18945,0.67647,0.68555
0.256,1,0.33724,0.17578,0.67059,0.70508
0.264,1,0.34702,0.17578,0.67059,0.69531
0.272,1,0.35679,0.17578,0.67059,0.70508
0.28,1,0.36755,0.17578,0.67059,0.69922
0.288,1,0.38123,0.16016,0.67647,0.70898
0.296,1,0.39589,0.16602,0.68039,0.70508
0.304,1,0.41251,0.13086,0.68039,0.70898
0.312,1,0.43011,0.099609,0.6902,0.69531
0.32,1,0.4477,0.23047,0.62941,0.57031
0.328,1,0.46432,0.5,0.4451,0.32031
0.336,1,0.47898,0.81445,0.18824,0.044922
0.344,1,0.49267,0.89453,0.052941,0.0058594
0.352,1,0.5044,0.58398,0.17843,0.47461
0.36,1,0.51417,0.20117,0.39412,0.80469
0.368,1,0.52004,0.041016,0.55098,0.86523
0.376,1,0.5259,0.060547,0.66078,0.81445
0.384,1,0.53079,0.076172,0.7098,0.78906
0.392,1,0.53568,0.089844,0.73529,0.7793
0.4,1,0.54057,0.099609,0.74118,0.76953
0.408,1,0.54643,0.099609,0.74118,0.77539
0.416,1,0.55132,0.11133,0.74118,0.76562
0.424,1,0.55523,0.10547,0.74118,0.76562
0.432,1,0.55914,0.11133,0.74118,0.76953
0.44,1,0.56403,0.10547,0.73529,0.77539
0.448,1,0.56598,0.11523,0.73529,0.75977
0.456,1,0.56696,0.11523,0.73529,0.76562
0.464,1,0.56598,0.11133,0.73529,0.76953
0.472,1,0.56305,0.11523,0.73529,0.76562
0.48,1,0.55914,0.12109,0.73137,0.77539
0.488,1,0.5523,0.11133,0.72549,0.76953
0.496,1,0.54545,0.11523,0.73137,0.77539
0.504,1,0.53666,0.10547,0.72549,0.7793
0.512,1,0.52688,0.11133,0.73137,0.7793
0.52,1,0.51808,0.11523,0.73137,0.7793
0.528,1,0.50733,0.11523,0.73137,0.7793
0.536,1,0.49756,0.11133,0.72549,0.78516
0.544,1,0.48778,0.10547,0.72549,0.78906
0.552,1,0.47898,0.11523,0.72549,0.78906
0.56,1,0.47214,0.12109,0.72549,0.79492
0.568,1,0.46725,0.13086,0.72157,0.78906
0.576,1,0.46237,0.14453,0.7098,0.78516
0.584,1,0.4565,0.16016,0.7,0.77539
0.592,1,0.45064,0.16992,0.6902,0.76562
0.6,1,0.44379,0.18945,0.68039,0.75
0.608,1,0.43597,0.20117,0.67059,0.74023
0.616,1,0.42815,0.21094,0.66471,0.7207
0.624,1,0.42033,0.21094,0.66078,0.70898
0.632,1,0.41349,0.21484,0.65098,0.70508
0.64,1,0.40762,0.20508,0.65098,0.69531
0.648,1,0.40274,0.21094,0.65098,0.68555
0.656,1,0.39785,0.20117,0.6549,0.68555
0.664,1,0.39296,0.20117,0.66078,0.68555
0.672,1,0.39003,0.19531,0.66471,0.68555
0.68,1,0.38514,0.18555,0.67059,0.68945
0.688,1,0.38025,0.17969,0.67647,0.69531
0.696,1,0.37537,0.18555,0.68627,0.69531
0.704,1,0.3695,0.17578,0.68627,0.70898
0.712,1,0.36461,0.17969,0.68627,0.70508
0.72,1,0.35973,0.17578,0.68627,0.70898
0.728,1,0.35582,0.17969,0.6902,0.69922
0.736,1,0.35191,0.17578,0.68627,0.70508
0.744,1,0.348,0.17969,0.68627,0.69531
0.752,1,0.34409,0.17578,0.68039,0.69531
0.76,1,0.34213,0.17969,0.68627,0.68945
0.768,1,0.34115,0.19531,0.6902,0.67969
0.776,1,0.33724,0.20508,0.6902,0.66406
0.784,1,0.33236,0.2207,0.6902,0.6543
0.792,1,0.32747,0.23047,0.6902,0.64453
0.8,1,0.32258,0.24609,0.69608,0.63477
0.808,1,0.31867,0.23438,0.69608,0.6543
0.816,1,0.31574,0.24023,0.68627,0.64062
0.824,0.98827,0.31378,0.23438,0.67059,0.6543
0.832,0.97556,0.31378,0.21484,0.66471,0.67969
0.84,0.95601,0.31769,0.19531,0.66471,0.70508
0.848,0.93646,0.32454,0.18945,0.66471,0.70898
0.856,0.91887,0.33529,0.17969,0.66471,0.70898
0.864,0.90127,0.34702,0.17578,0.66471,0.70898
0.872,0.88368,0.35875,0.16992,0.66471,0.7207
0.88,0.86706,0.38416,0.16992,0.66078,0.7207
0.888,0.84848,0.40274,0.16992,0.66078,0.72461
0.896,0.82991,0.42131,0.17578,0.66078,0.7207
0.904,0.81036,0.44868,0.17578,0.66078,0.71484
0.912,0.79081,0.46432,0.17578,0.66078,0.71484
0.92,0.77322,0.47898,0.16992,0.66078,0.71484
0.928,0.75464,0.49169,0.13477,0.66471,0.73047
0.936,0.73803,0.50342,0.11523,0.66078,0.70898
0.944,0.72141,0.51417,0.25586,0.5902,0.56445
0.952,0.70186,0.52297,0.49023,0.39412,0.32031
0.96,0.68231,0.53177,0.78516,0.12353,0.025391
0.968,0.65982,0.53959,0.86523,-0.015686,-0.019531
0.976,0.63734,0.54839,0.58008,0.12353,0.47461
0.984,0.61193,0.55718,0.25,0.33529,0.79883
0.992,0.58651,0.56598,0.11523,0.5098,0.84375
1,0.56012,0.57283,0.12109,0.64118,0.80469
1.008,0.53275,0.57869,0.10547,0.69608,0.79883
1.016,0.50635,0.58358,0.10547,0.72157,0.79492
1.024,0.48094,0.58651,0.10547,0.73137,0.79492
1.032,0.45552,0.58847,0.10547,0.73529,0.79492
1.04,0.43011,0.59042,0.10547,0.73529,0.78906
1.048,0.40078,0.58944,0.10547,0.73529,0.78906
1.056,0.37243,0.58749,0.10547,0.73529,0.78516
1.064,0.34018,0.58553,0.11523,0.73529,0.7793
1.072,0.30792,0.58162,0.12109,0.73529,0.7793
1.08,0.27859,0.57674,0.12109,0.73529,0.7793
1.088,0.24927,0.57185,0.11523,0.73529,0.78516
1.096,0.2219,0.56696,0.125,0.73529,0.7793
1.104,0.19453,0.56012,0.12109,0.73529,0.78516
1.112,0.16422,0.55425,0.12109,0.73529,0.78516
1.12,0.13392,0.54643,0.11133,0.73529,0.79492
1.128,0.10166,0.53861,0.11523,0.73137,0.78906
1.136,0.068426,0.53079,0.10547,0.73529,0.79883
1.144,0.035191,0.52297,0.11133,0.73529,0.79492
1.152,0.001955,0.51613,0.11523,0.73529,0.79883
1.16,0.00097752,0.51026,0.11133,0.73137,0.79883
1.168,0,0.50244,0.11523,0.73137,0.81055
1.176,0,0.49462,0.10547,0.73137,0.81445
1.184,0,0.48583,0.11133,0.72549,0.81055
1.192,0,0.47801,0.12109,0.72549,0.81055
1.2,0,0.47019,0.13477,0.71569,0.80469
1.208,0,0.46334,0.14453,0.7098,0.79883
1.216,0,0.45552,0.16016,0.69608,0.78516
1.224,0,0.4477,0.17578,0.6902,0.77539
1.232,0,0.44086,0.17969,0.67059,0.75977
1.24,0,0.43304,0.19531,0.66078,0.74414
1.248,0,0.4262,0.20117,0.6549,0.73047
1.256,0,0.42033,0.20117,0.6451,0.71484
1.264,0,0.4174,0.20117,0.64118,0.69922
1.272,0,0.4262,0.19531,0.63529,0.68945
1.28,0,0.43988,0.20117,0.64118,0.68555
1.288,0,0.44575,0.18945,0.64118,0.67969
1.296,0,0.44575,0.19531,0.6451,0.67969
1.304,0,0.44282,0.18945,0.65098,0.67969
1.312,0,0.43891,0.20117,0.66078,0.67969
1.32,0,0.43402,0.18945,0.66078,0.68555
1.328,0,0.42815,0.20117,0.66078,0.67969
1.336,0,0.42424,0.18945,0.66471,0.68555
1.344,0,0.41935,0.18945,0.66471,0.68555
1.352,0,0.41447,0.18945,0.67059,0.68945
1.36,0,0.41153,0.18945,0.67059,0.68555
1.368,0,0.4086,0.17969,0.67059,0.68555
1.376,0,0.40469,0.18945,0.67059,0.68555
1.384,0,0.40078,0.20508,0.68039,0.67578
1.392,0,0.39785,0.21484,0.68627,0.66406
1.4,0,0.39296,0.22461,0.6902,0.65039
1.408,0,0.38905,0.23047,0.6902,0.64453
1.416,0,0.38416,0.24023,0.6902,0.64062
1.424,0,0.38123,0.23047,0.6902,0.64453
1.432,0,0.37928,0.24023,0.68627,0.64062
1.44,0,0.37928,0.23047,0.66471,0.65039
1.448,0,0.38123,0.21484,0.6549,0.66992
1.456,0,0.3871,0.19531,0.6549,0.69531
1.464,0,0.39589,0.18945,0.66078,0.69922
1.472,0,0.40665,0.18555,0.6549,0.70508
1.48,0,0.42033,0.17969,0.65098,0.70508
1.488,0,0.43597,0.17578,0.65098,0.70898
1.496,0,0.45161,0.17578,0.65098,0.71484
1.504,0,0.46823,0.17578,0.6549,0.70898
1.512,0,0.48485,0.17578,0.6451,0.70898
1.52,0,0.50147,0.17578,0.6451,0.70898
1.528,0,0.51808,0.17969,0.6451,0.70898
1.536,0,0.5347,0.16992,0.6451,0.70898
1.544,0,0.55034,0.15039,0.65098,0.72461
1.552,0,0.56305,0.13086,0.65098,0.69531
1.56,0,0.57478,0.24609,0.58431,0.56445
1.568,0,0.58749,0.47461,0.37059,0.30078
1.576,0,0.6002,0.75977,0.084314,0
1.584,0,0.6129,0.84375,-0.066667,-0.058594
1.592,0,0.62366,0.58008,0.084314,0.44531
1.6,0,0.63343,0.27539,0.3098,0.78516
1.608,0,0.64223,0.13086,0.4902,0.83008
1.616,0,0.64809,0.13477,0.62549,0.79883
1.624,0,0.65298,0.11523,0.69608,0.79883
1.632,0,0.65787,0.11523,0.72157,0.78906
1.64,0,0.66178,0.10547,0.73137,0.79492
1.648,0,0.66471,0.10547,0.73529,0.78906
1.656,0,0.66667,0.10547,0.73529,0.78906
1.664,0,0.6696,0.10547,0.73529,0.78516
1.672,0,0.67155,0.11133,0.73529,0.78906
1.68,0,0.67351,0.11523,0.73529,0.78516
1.688,0,0.67253,0.11133,0.73529,0.78516
1.696,0,0.67058,0.12109,0.73529,0.7793
1.704,0,0.66764,0.11523,0.73529,0.7793
1.712,0,0.66178,0.12109,0.73529,0.7793
1.72,0,0.65494,0.12109,0.73529,0.7793
1.728,0,0.64614,0.125,0.74118,0.7793
1.736,0,0.63636,0.11523,0.73529,0.7793
1.744,0,0.62757,0.11523,0.73529,0.78906
1.752,0,0.61975,0.11523,0.73529,0.78906
1.76,0,0.61193,0.11523,0.73529,0.78906
1.768,0,0.60411,0.11523,0.73529,0.79492
1.776,0,0.59531,0.11133,0.73529,0.79883
1.784,0,0.58651,0.11523,0.73529,0.79883
1.792,0,0.57771,0.11133,0.73529,0.80469
1.8,0,0.56891,0.12109,0.73529,0.81055
1.808,0,0.55914,0.11523,0.73529,0.81055
1.816,0,0.55034,0.13086,0.73137,0.81055
1.824,0,0.54252,0.14453,0.72157,0.79883
1.832,0,0.5347,0.16016,0.7098,0.78906
1.84,0,0.52786,0.16992,0.70588,0.77539
1.848,0,0.52102,0.17969,0.6902,0.75977
1.856,0,0.51515,0.18555,0.68039,0.75391
1.864,0,0.50831,0.19531,0.67059,0.73047
1.872,0,0.50147,0.18945,0.66078,0.7207
1.88,0,0.49365,0.20117,0.65098,0.69531
1.888,0,0.48583,0.20117,0.6451,0.68555
1.896,0,0.47898,0.20117,0.65098,0.67969
1.904,0,0.47214,0.18945,0.65098,0.67578
1.912,0,0.46725,0.18945,0.6549,0.67969
1.92,0,0.46237,0.18555,0.6549,0.67969
1.928,0,0.45846,0.18555,0.66078,0.67969
1.936,0,0.45552,0.17578,0.66471,0.68555
1.944,0,0.45161,0.17969,0.66471,0.68555
1.952,0,0.44868,0.18555,0.67059,0.68555
1.96,0,0.44575,0.17969,0.67647,0.68555
1.968,0,0.44086,0.17969,0.67647,0.68555
1.976,0,0.43597,0.17969,0.68039,0.68555
1.984,0,0.43011,0.18555,0.68039,0.68555
1.992,0,0.42424,0.17578,0.68627,0.67969
2,0,0.4174,0.19531,0.69608,0.66992
2.008,0,0.41153,0.20117,0.70588,0.66992
2.016,0,0.40665,0.21484,0.7098,0.6543
2.024,0,0.40176,0.22461,0.7098,0.65039
2.032,0,0.39883,0.23438,0.70588,0.64062
2.04,0,0.39687,0.22461,0.7098,0.64453
2.048,0,0.39687,0.22461,0.70588,0.64062
2.056,0,0.39785,0.2207,0.68627,0.6543
2.064,0,0.40176,0.20508,0.67059,0.66992
2.072,0,0.40665,0.17578,0.67059,0.69531
2.08,0,0.41349,0.17578,0.67647,0.70508
2.088,0,0.42424,0.16992,0.67059,0.70898
2.096,0,0.43793,0.17578,0.67059,0.70898
2.104,0,0.45357,0.16016,0.66471,0.70898
2.112,0,0.47214,0.15625,0.66471,0.7207
2.12,0,0.49071,0.15039,0.66471,0.7207
2.128,0,0.50929,0.16016,0.66471,0.71484
2.136,0,0.52688,0.15625,0.66471,0.7207
2.144,0,0.54448,0.16016,0.66471,0.71484
2.152,0,0.55816,0.15625,0.66471,0.72461
2.16,0,0.56989,0.14453,0.66471,0.72461
2.168,0,0.58162,0.11133,0.66471,0.71484
2.176,0,0.59433,0.19531,0.61961,0.5957
2.184,0,0.60606,0.41602,0.42549,0.34961
2.192,0,0.61779,0.69531,0.14902,0.03125
2.2,0,0.62952,0.82031,-0.041176,-0.064453
2.208,0,0.64027,0.61914,0.07451,0.37109
2.216,0,0.65103,0.29492,0.3,0.75977
2.224,0,0.66178,0.12109,0.47451,0.83008
2.232,0,0.67058,0.13086,0.62549,0.80469
2.24,0,0.6784,0.11523,0.7,0.79492
2.248,0,0.68231,0.10547,0.73529,0.78906
2.256,0,0.68524,0.099609,0.75098,0.79492
2.264,0,0.68719,0.095703,0.7549,0.79492
2.272,0,0.68817,0.089844,0.7549,0.79883
2.28,0,0.68719,0.099609,0.7549,0.78906
2.288,0,0.68524,0.10547,0.75098,0.78516
2.296,0,0.68328,0.11133,0.7549,0.7793
2.304,0,0.68035,0.10547,0.75098,0.78906
2.312,0,0.67742,0.11133,0.7549,0.78516
2.32,0,0.67351,0.11133,0.7549,0.7793
2.328,0,0.6696,0.11523,0.75098,0.78516
2.336,0,0.66373,0.11133,0.7451,0.7793
2.344,0,0.65689,0.12109,0.75098,0.7793
2.352,0,0.65005,0.11133,0.75098,0.78516
2.36,0,0.64125,0.11133,0.75098,0.79492
2.368,0,0.63245,0.10547,0.75098,0.79492
2.376,0,0.62366,0.11133,0.75098,0.79492
2.384,0,0.61486,0.10547,0.75098,0.78906
2.392,0,0.60606,0.10547,0.75098,0.79883
2.4,0,0.59726,0.099609,0.75098,0.81055
2.408,0,0.58847,0.095703,0.75098,0.82031
2.416,0,0.57967,0.10547,0.7549,0.82031
2.424,0,0.57087,0.11523,0.7549,0.82422
2.432,0,0.56207,0.13086,0.7451,0.82031
2.44,0,0.5523,0.13086,0.73529,0.81055
2.448,0,0.54448,0.14453,0.72549,0.80469
2.456,0,0.53763,0.15625,0.7098,0.78906
2.464,0,0.53079,0.17578,0.7,0.76953
2.472,0,0.52395,0.17578,0.6902,0.75977
2.48,0,0.51808,0.18945,0.68039,0.73438
2.488,0,0.51222,0.18945,0.66471,0.71484
2.496,0,0.50733,0.20117,0.6549,0.69922
2.504,0,0.50147,0.18945,0.65098,0.68555
2.512,0,0.49658,0.18945,0.6549,0.67969
2.52,0,0.49071,0.18555,0.6549,0.67578
2.528,0,0.48485,0.18945,0.66471,0.66992
2.536,0,0.47801,0.18555,0.66471,0.67578
2.544,0,0.47116,0.18945,0.66471,0.67578
2.552,0,0.4653,0.17969,0.66471,0.68555
2.56,0,0.46041,0.18555,0.67059,0.67969
2.568,0,0.45552,0.17969,0.68039,0.68555
2.576,0,0.45064,0.18555,0.68039,0.67969
2.584,0,0.44673,0.17578,0.68627,0.68555
2.592,0,0.44282,0.17578,0.68039,0.68555
2.6,0,0.43891,0.17578,0.68627,0.67969
2.608,0,0.435,0.18555,0.6902,0.66992
2.616,0,0.43206,0.20508,0.7,0.66016
2.624,0,0.42815,0.21484,0.70588,0.65039
2.632,0,0.42522,0.22461,0.7098,0.63477
2.64,0,0.42131,0.23047,0.7098,0.63477
2.648,0,0.41838,0.23438,0.7098,0.62891
2.656,0,0.41642,0.22461,0.70588,0.63477
2.664,0,0.41447,0.22461,0.6902,0.64453
2.672,0,0.41349,0.20508,0.66471,0.66016
2.68,0,0.41349,0.19531,0.67059,0.67578
2.688,0,0.41642,0.16992,0.67647,0.69922
2.696,0,0.42229,0.17578,0.67059,0.70508
2.704,0,0.43011,0.16016,0.67059,0.70508
2.712,0,0.44282,0.16602,0.67059,0.69922
2.72,0,0.45846,0.16016,0.66471,0.70898
2.728,0,0.47507,0.16016,0.66471,0.70898
2.736,0,0.49365,0.16016,0.66471,0.70508
2.744,0,0.5132,0.16602,0.66471,0.70508
2.752,0,0.52981,0.16016,0.66471,0.70898
2.76,0,0.54448,0.16992,0.66471,0.70898
2.768,0,0.56109,0.15625,0.67059,0.70898
2.776,0,0.57771,0.11523,0.66471,0.70508
2.784,0,0.59335,0.16992,0.63529,0.61523
2.792,0,0.60899,0.35938,0.47451,0.40039
2.8,0,0.62366,0.61523,0.20392,0.080078
2.808,0,0.63636,0.80469,-0.031373,-0.070312
2.816,0,0.64712,0.67969,-0.037255,0.26562
2.824,0,0.65591,0.34961,0.26863,0.70508
2.832,0,0.66471,0.125,0.46078,0.82422
2.84,0,0.67155,0.13086,0.61569,0.79492
2.848,0,0.67644,0.125,0.70588,0.7793
2.856,0,0.68133,0.11133,0.73529,0.7793
2.864,0,0.68622,0.11523,0.7549,0.7793
2.872,0,0.6911,0.099609,0.76078,0.7793
2.88,0,0.69599,0.099609,0.76078,0.78906
2.888,0,0.6999,0.099609,0.76078,0.78906
2.896,0,0.70186,0.10547,0.76667,0.7793
2.904,0,0.70186,0.11133,0.76078,0.7793
2.912,0,0.6999,0.11523,0.76078,0.7793
2.92,0,0.69599,0.10547,0.76078,0.7793
2.928,0,0.69013,0.11523,0.76078,0.7793
2.936,0,0.68426,0.12109,0.76667,0.7793
2.944,0,0.67742,0.11523,0.76078,0.7793
2.952,0,0.67058,0.11523,0.76078,0.7793
2.96,0,0.66471,0.11523,0.76078,0.7793
2.968,0,0.65689,0.11133,0.76078,0.7793
2.976,0,0.64809,0.11133,0.76078,0.78516
2.984,0,0.63832,0.11523,0.76078,0.7793
2.992,0,0.62952,0.10547,0.76078,0.79492
3,0,0.6217,0.10547,0.76078,0.79492
3.008,0,0.61388,0.11523,0.76078,0.79883
3.016,0,0.60508,0.11133,0.76078,0.79883
3.024,0,0.59726,0.10547,0.76078,0.81445
3.032,0,0.58847,0.12109,0.7549,0.80469
3.04,0,0.57967,0.11523,0.76078,0.82031
3.048,0,0.57283,0.13086,0.7451,0.80469
3.056,0,0.56696,0.15039,0.73529,0.79883
3.064,0,0.56012,0.15625,0.72549,0.78906
3.072,0,0.55327,0.16602,0.71569,0.76953
3.08,0,0.54643,0.17578,0.7098,0.75391
3.088,0,0.53959,0.17578,0.6902,0.74023
3.096,0,0.53177,0.18555,0.68039,0.7207
3.104,0,0.52493,0.18555,0.66471,0.69922
3.112,0,0.51906,0.18945,0.66471,0.68555
3.12,0,0.5132,0.17969,0.66471,0.68555
3.128,0,0.50733,0.18555,0.66471,0.67969
3.136,0,0.50244,0.18945,0.66471,0.67578
3.144,0,0.49756,0.17969,0.67647,0.67969
3.152,0,0.49267,0.18555,0.67647,0.67578
3.16,0,0.4868,0.18555,0.68039,0.67969
3.168,0,0.48094,0.18945,0.68627,0.67578
3.176,0,0.47605,0.19531,0.68627,0.67969
3.184,0,0.47019,0.18945,0.6902,0.67969
3.192,0,0.46628,0.18555,0.69608,0.68555
3.2,0,0.46237,0.17969,0.6902,0.67969
3.208,0,0.45846,0.17578,0.69608,0.68555
3.216,0,0.45357,0.19531,0.70588,0.66992
3.224,0,0.44868,0.20117,0.7098,0.66016
3.232,0,0.44477,0.21484,0.71569,0.64453
3.24,0,0.44086,0.23438,0.71569,0.625
3.248,0,0.43793,0.24609,0.7098,0.625
3.256,0,0.43597,0.23047,0.72157,0.63477
3.264,0,0.43304,0.22461,0.7098,0.62891
3.272,0,0.43109,0.23047,0.69608,0.62891
3.28,0,0.43011,0.21484,0.67647,0.65039
3.288,0,0.43109,0.18945,0.67059,0.67578
3.296,0,0.43402,0.18555,0.68039,0.68555
3.304,0,0.43988,0.17578,0.67647,0.69531
3.312,0,0.44868,0.17578,0.67647,0.69531
3.32,0,0.45064,0.16602,0.67059,0.70898
3.328,0,0.44966,0.16992,0.67059,0.70508
3.336,0,0.45846,0.16016,0.67059,0.70898
3.344,0,0.46921,0.15625,0.67059,0.70898
3.352,0,0.47996,0.15625,0.67059,0.70898
3.36,0,0.49462,0.16992,0.67059,0.70508
3.368,0,0.51026,0.15625,0.67059,0.70898
3.376,0,0.52493,0.15039,0.66471,0.71484
3.384,0,0.54057,0.12109,0.67647,0.72461
3.392,0,0.55523,0.11133,0.66078,0.66992
3.4,0.0029325,0.56891,0.2793,0.53529,0.48438
3.408,0.0068426,0.58162,0.51562,0.2902,0.18555
3.416,0.012708,0.59238,0.76953,0.013725,-0.080078
3.424,0.01955,0.60313,0.78906,-0.041176,0.11523
3.432,0.025415,0.6129,0.42969,0.2,0.60938
3.44,0.031281,0.62072,0.16016,0.4098,0.83008
3.448,0.037146,0.62659,0.12109,0.57451,0.80469
3.456,0.043011,0.63148,0.125,0.68039,0.78906
3.464,0.048876,0.63636,0.13086,0.73137,0.7793
3.472,0.053763,0.64223,0.099609,0.75098,0.78906
3.48,0.059629,0.64712,0.10547,0.76078,0.79492
3.488,0.065494,0.65103,0.089844,0.76078,0.79883
3.496,0.070381,0.65396,0.11133,0.76667,0.78516
3.504,0.076246,0.65494,0.10547,0.76078,0.78516
3.512,0.080156,0.65494,0.11523,0.76078,0.7793
3.52,0.084066,0.652,0.11523,0.76078,0.77539
3.528,0.086999,0.64809,0.125,0.7549,0.77539
3.536,0.090909,0.64321,0.11523,0.76078,0.7793
3.544,0.093842,0.63832,0.10547,0.76078,0.78516
3.552,0.096774,0.63245,0.11133,0.76078,0.7793
3.56,0.099707,0.62659,0.11523,0.76078,0.7793
3.568,0.10166,0.62072,0.12109,0.76078,0.7793
3.576,0.10459,0.6129,0.11523,0.76078,0.78516
3.584,0.10753,0.60411,0.125,0.7549,0.7793
3.592,0.10948,0.59531,0.11133,0.7549,0.79492
3.6,0.11241,0.58553,0.11133,0.75098,0.78906
3.608,0.11437,0.57674,0.10547,0.75098,0.79492
3.616,0.11632,0.56794,0.11133,0.7549,0.79883
3.624,0.11828,0.55914,0.10547,0.7549,0.80469
3.632,0.12023,0.55034,0.11523,0.7549,0.80469
3.64,0.12219,0.54252,0.11523,0.7549,0.81445
3.648,0.12414,0.53568,0.125,0.7451,0.81055
3.656,0.1261,0.53079,0.13477,0.74118,0.80469
3.664,0.12805,0.52493,0.14453,0.73529,0.79883
3.672,0.13001,0.51906,0.15039,0.72549,0.79492
3.68,0.13196,0.51222,0.16602,0.7098,0.77539
3.688,0.13294,0.50538,0.17578,0.7,0.75977
3.696,0.1349,0.49951,0.17969,0.6902,0.73438
3.704,0.13587,0.49365,0.17969,0.68039,0.7207
3.712,0.13685,0.48876,0.18555,0.66471,0.70508
3.72,0.13685,0.48387,0.17969,0.66078,0.69531
3.728,0.13783,0.47898,0.18555,0.66078,0.68555
3.736,0.13881,0.4741,0.17969,0.66078,0.67578
3.744,0.13881,0.47019,0.18555,0.66471,0.67578
3.752,0.13978,0.46432,0.17969,0.66471,0.67578
3.76,0.14076,0.45846,0.17578,0.67059,0.68555
3.768,0.13978,0.45259,0.17969,0.67647,0.68555
3.776,0.13881,0.4477,0.17578,0.68039,0.68555
3.784,0.13783,0.44282,0.17578,0.68039,0.68555
3.792,0.13587,0.43793,0.18555,0.68627,0.67969
3.8,0.1349,0.43304,0.17578,0.68627,0.68555
3.808,0.13294,0.42913,0.17578,0.6902,0.68555
3.816,0.13196,0.42522,0.17578,0.68627,0.68555
3.824,0.13001,0.42131,0.17578,0.68039,0.68555
3.832,0.12805,0.41838,0.19531,0.6902,0.66992
3.84,0.1261,0.41447,0.20117,0.7,0.66016
3.848,0.12317,0.41251,0.21484,0.7098,0.64453
3.856,0.12121,0.40958,0.23047,0.7098,0.62891
3.864,0.1173,0.40762,0.23438,0.7098,0.625
3.872,0.11437,0.40371,0.24023,0.7098,0.62891
3.88,0.11144,0.40176,0.22461,0.7098,0.62891
3.888,0.1085,0.40078,0.2207,0.6902,0.63477
3.896,0.10557,0.40078,0.20508,0.67059,0.66016
3.904,0.10362,0.40274,0.18945,0.66471,0.67969
3.912,0.10166,0.40762,0.17578,0.67647,0.68945
3.92,0.099707,0.41447,0.16992,0.67647,0.69922
3.928,0.098729,0.42522,0.16992,0.68039,0.70898
3.936,0.096774,0.43695,0.15625,0.67059,0.70898
3.944,0.095797,0.45064,0.15625,0.66471,0.70508
3.952,0.093842,0.46334,0.15625,0.67059,0.70898
3.96,0.093842,0.47996,0.16016,0.66471,0.70508
3.968,0.093842,0.49658,0.16992,0.66471,0.69922
3.976,0.094819,0.51417,0.15625,0.67059,0.70898
3.984,0.096774,0.53079,0.16602,0.66471,0.69922
3.992,0.098729,0.54643,0.15039,0.67647,0.70898
4,0.10068,0.56109,0.12109,0.66471,0.70898
4.008,0.10264,0.57576,0.11523,0.6451,0.62891
4.016,0.10557,0.58749,0.32031,0.4902,0.42578
4.024,0.10948,0.59824,0.58398,0.21373,0.089844
4.032,0.11241,0.60704,0.78906,-0.037255,-0.099609
4.04,0.11632,0.61388,0.68945,-0.056863,0.19531
4.048,0.12023,0.61877,0.35547,0.24902,0.68555
4.056,0.12414,0.62268,0.12109,0.43529,0.83984
4.064,0.12805,0.62757,0.14062,0.6,0.78906
4.072,0.13196,0.63343,0.13086,0.69608,0.78516
4.08,0.13587,0.63832,0.12109,0.73137,0.7793
4.088,0.13881,0.64321,0.11523,0.75098,0.78516
4.096,0.14272,0.64809,0.11133,0.7549,0.78906
4.104,0.14565,0.652,0.10547,0.7549,0.78516
4.112,0.14858,0.65396,0.11133,0.76078,0.78516
4.12,0.15152,0.65494,0.10547,0.7549,0.78906
4.128,0.15445,0.65298,0.11523,0.76078,0.7793
4.136,0.1564,0.65005,0.11133,0.76078,0.7793
4.144,0.15836,0.64614,0.125,0.76078,0.77539
4.152,0.15934,0.64125,0.12109,0.7549,0.7793
4.16,0.16031,0.63734,0.125,0.7549,0.7793
4.168,0.16129,0.63245,0.12109,0.76078,0.7793
4.176,0.16129,0.62561,0.125,0.76078,0.7793
4.184,0.16129,0.61779,0.12109,0.7549,0.78516
4.192,0.16031,0.60899,0.125,0.76078,0.78516
4.2,0.15934,0.59922,0.12109,0.76078,0.78516
4.208,0.15836,0.58847,0.11523,0.7549,0.7793
4.216,0.15738,0.57869,0.12109,0.7549,0.79492
4.224,0.1564,0.56891,0.12109,0.76078,0.79492
4.232,0.15543,0.55914,0.125,0.76078,0.79883
4.24,0.15543,0.55034,0.12109,0.76078,0.79883
4.248,0.15445,0.5435,0.125,0.76078,0.80469
4.256,0.15445,0.53763,0.13086,0.76078,0.81445
4.264,0.15347,0.53177,0.14062,0.7549,0.80469
4.272,0.15249,0.5259,0.15039,0.7451,0.79883
4.28,0.15249,0.52004,0.16602,0.73529,0.79492
4.288,0.15152,0.51417,0.16016,0.73137,0.78516
4.296,0.15152,0.50733,0.17578,0.7098,0.76953
4.304,0.15152,0.50049,0.18555,0.70588,0.75391
4.312,0.15152,0.49365,0.20117,0.6902,0.72461
4.32,0.15152,0.48778,0.21094,0.68627,0.70508
4.328,0.15054,0.48192,0.21094,0.66471,0.68555
4.336,0.15054,0.47605,0.20508,0.66471,0.67578
4.344,0.14858,0.47214,0.20508,0.66078,0.66406
4.352,0.14761,0.46823,0.21094,0.66471,0.66406
4.36,0.14663,0.46334,0.20117,0.66471,0.66406
4.368,0.14467,0.45943,0.20508,0.66471,0.66016
4.376,0.1437,0.45455,0.20117,0.67059,0.66406
4.384,0.14272,0.44966,0.20508,0.67059,0.66406
4.392,0.14272,0.44575,0.20117,0.67647,0.67578
4.4,0.14174,0.44282,0.20117,0.68039,0.67969
4.408,0.14076,0.43988,0.20508,0.6902,0.66992
4.416,0.13978,0.43597,0.20117,0.6902,0.67969
4.424,0.13881,0.43304,0.20508,0.6902,0.67578
4.432,0.13685,0.42913,0.20117,0.68627,0.66992
4.44,0.13685,0.42522,0.21094,0.6902,0.66016
4.448,0.13587,0.42229,0.2207,0.69608,0.64453
4.456,0.13587,0.41935,0.23047,0.7098,0.63477
4.464,0.1349,0.41544,0.25,0.7098,0.61914
4.472,0.1349,0.41056,0.25977,0.70588,0.60938
4.48,0.1349,0.40665,0.25586,0.7098,0.61523
4.488,0.13392,0.40274,0.24609,0.7098,0.61914
4.496,0.13392,0.3998,0.25586,0.7,0.61523
4.504,0.13294,0.39785,0.23438,0.68039,0.62891
4.512,0.13196,0.3998,0.2207,0.67059,0.6543
4.52,0.13099,0.40469,0.20117,0.67647,0.67969
4.528,0.12903,0.41251,0.19531,0.67647,0.68555
4.536,0.12903,0.42326,0.20117,0.67059,0.68555
4.544,0.12805,0.435,0.18555,0.67059,0.68945
4.552,0.12805,0.44575,0.17578,0.67059,0.69922
4.56,0.12805,0.45943,0.17969,0.67059,0.69531
4.568,0.12805,0.47214,0.17578,0.67059,0.69922
4.576,0.12805,0.48583,0.17969,0.67059,0.70508
4.584,0.12903,0.49951,0.17578,0.66471,0.69531
4.592,0.13001,0.51417,0.17969,0.67059,0.69531
4.6,0.13099,0.52884,0.17969,0.67059,0.69922
4.608,0.13294,0.54448,0.15625,0.67647,0.70508
4.616,0.13392,0.55914,0.14062,0.66471,0.67969
4.624,0.13587,0.5738,0.24023,0.58431,0.53516
4.632,0.13881,0.58553,0.47461,0.3549,0.23438
4.64,0.14076,0.59726,0.74023,0.058824,-0.080078
4.648,0.14272,0.60606,0.79883,-0.05098,-0.10938
4.656,0.14565,0.61388,0.50977,0.1549,0.5
4.664,0.14761,0.6217,0.23047,0.37059,0.79883
4.672,0.15054,0.62854,0.13477,0.52549,0.83008
4.68,0.15249,0.63441,0.15625,0.66471,0.7793
4.688,0.15543,0.6393,0.14453,0.71569,0.76953
4.696,0.15836,0.64418,0.14062,0.74118,0.77539
4.704,0.16031,0.64712,0.13477,0.7549,0.7793
4.712,0.16325,0.64907,0.13086,0.7549,0.7793
4.72,0.1652,0.65103,0.125,0.76078,0.7793
4.728,0.16716,0.65103,0.13086,0.76078,0.77539
4.736,0.16911,0.65103,0.125,0.76078,0.7793
4.744,0.17107,0.64907,0.14453,0.7549,0.76953
4.752,0.17204,0.64516,0.14062,0.76078,0.76953
4.76,0.17302,0.64125,0.13477,0.76078,0.76953
4.768,0.17498,0.63734,0.14453,0.7549,0.76562
4.776,0.17498,0.63245,0.13477,0.7549,0.7793
4.784,0.17595,0.62659,0.14062,0.76078,0.77539
4.792,0.17693,0.61975,0.13477,0.7549,0.76562
4.8,0.17791,0.61095,0.15039,0.7549,0.76953
4.808,0.17791,0.60117,0.14453,0.7549,0.76953
4.816,0.17889,0.59335,0.13086,0.75098,0.7793
4.824,0.17889,0.58651,0.13477,0.7549,0.7793
4.832,0.17986,0.58065,0.13477,0.75098,0.78516
4.84,0.17986,0.5738,0.13086,0.76078,0.78906
4.848,0.17986,0.56696,0.14062,0.76078,0.79883
4.856,0.17986,0.56012,0.13477,0.76078,0.79883
4.864,0.18084,0.55327,0.13477,0.76078,0.80469
4.872,0.18084,0.54448,0.14062,0.76078,0.81445
4.88,0.18084,0.53568,0.15039,0.7549,0.81445
4.888,0.18084,0.52884,0.16602,0.74118,0.79492
4.896,0.18084,0.52199,0.18555,0.73137,0.77539
4.904,0.18084,0.51711,0.17578,0.71569,0.76953
4.912,0.18084,0.51222,0.19531,0.7098,0.75
4.92,0.18084,0.50733,0.20117,0.69608,0.73438
4.928,0.18084,0.50147,0.21094,0.68627,0.70898
4.936,0.18084,0.4956,0.21094,0.66471,0.68555
4.944,0.18084,0.48974,0.21484,0.66471,0.67969
4.952,0.18084,0.48485,0.21094,0.66078,0.66992
4.96,0.18084,0.47996,0.21484,0.66471,0.66016
4.968,0.17986,0.4741,0.21484,0.66471,0.66016
4.976,0.17889,0.46921,0.21484,0.67059,0.66016
4.984,0.17791,0.46432,0.20117,0.67059,0.66992
4.992,0.17693,0.45943,0.20508,0.68039,0.66406
5,0.17498,0.45455,0.20508,0.68627,0.66992
5.008,0.174,0.44966,0.20508,0.68039,0.67578
5.016,0.17302,0.44575,0.21484,0.6902,0.66992
5.024,0.17204,0.44282,0.20508,0.6902,0.67578
5.032,0.17204,0.43891,0.21094,0.6902,0.66406
5.04,0.17107,0.43597,0.20117,0.6902,0.66016
5.048,0.17009,0.43206,0.21094,0.6902,0.6543
5.056,0.16911,0.42913,0.2207,0.7,0.6543
5.064,0.16813,0.42717,0.23047,0.7098,0.63477
5.072,0.16716,0.42424,0.24023,0.7098,0.625
5.08,0.16618,0.42131,0.25977,0.70588,0.60938
5.088,0.16618,0.41838,0.26953,0.70588,0.60547
5.096,0.1652,0.41642,0.25586,0.7098,0.61523
5.104,0.1652,0.41447,0.25,0.70588,0.61523
5.112,0.1652,0.41251,0.25977,0.6902,0.61523
5.12,0.1652,0.41251,0.22461,0.66471,0.64453
5.128,0.1652,0.41251,0.20508,0.67647,0.66992
5.136,0.1652,0.41349,0.19531,0.68039,0.68555
5.144,0.1652,0.4174,0.20117,0.67647,0.67969
5.152,0.1652,0.42326,0.18555,0.67059,0.68555
5.16,0.1652,0.43304,0.18555,0.67059,0.68555
5.168,0.16618,0.44575,0.17578,0.67059,0.69922
5.176,0.16618,0.46041,0.17969,0.66471,0.68945
5.184,0.16716,0.47703,0.18555,0.67059,0.69922
5.192,0.16911,0.4956,0.17969,0.67059,0.69531
5.2,0.17009,0.5132,0.17578,0.67647,0.70508
5.208,0.17204,0.52981,0.16602,0.67059,0.70898
5.216,0.174,0.54643,0.15625,0.67647,0.70898
5.224,0.17595,0.56109,0.125,0.67059,0.69922
5.232,0.17889,0.57576,0.18945,0.62549,0.58984
5.24,0.18182,0.58749,0.39453,0.42941,0.33984
5.248,0.18377,0.59629,0.66992,0.13333,-0.019531
5.256,0.18671,0.60606,0.79492,-0.047059,-0.11523
5.264,0.18964,0.61486,0.5957,0.098039,0.36523
5.272,0.19257,0.62268,0.2793,0.33529,0.76562
5.28,0.1955,0.62952,0.125,0.49412,0.83008
5.288,0.19844,0.63441,0.14453,0.64118,0.78516
5.296,0.20039,0.63832,0.15039,0.71569,0.7793
5.304,0.20332,0.64223,0.125,0.7451,0.7793
5.312,0.20528,0.64614,0.125,0.76078,0.78516
5.32,0.20821,0.64907,0.125,0.76667,0.7793
5.328,0.21017,0.65103,0.13086,0.76667,0.7793
5.336,0.21212,0.65298,0.12109,0.77059,0.7793
5.344,0.21408,0.65396,0.12109,0.76667,0.7793
5.352,0.21505,0.65298,0.125,0.76667,0.7793
5.36,0.21603,0.65103,0.12109,0.76078,0.7793
5.368,0.21799,0.64614,0.13086,0.76078,0.7793
5.376,0.21896,0.6393,0.125,0.76078,0.77539
5.384,0.21994,0.63245,0.13086,0.76078,0.7793
5.392,0.2219,0.62463,0.13086,0.76078,0.77539
5.4,0.22287,0.61681,0.13477,0.76078,0.77539
5.408,0.22385,0.60704,0.13086,0.76667,0.7793
5.416,0.22581,0.59629,0.13477,0.76078,0.7793
5.424,0.22678,0.58456,0.13086,0.76078,0.78516
5.432,0.22776,0.5738,0.13086,0.76078,0.78906
5.44,0.22874,0.56403,0.13086,0.76078,0.78516
5.448,0.22972,0.55523,0.13086,0.76078,0.79492
5.456,0.23167,0.54643,0.13477,0.76078,0.79492
5.464,0.23265,0.53861,0.14062,0.76078,0.79883
5.472,0.23363,0.53079,0.13086,0.76078,0.81055
5.48,0.2346,0.52199,0.14453,0.76078,0.80469
5.488,0.23558,0.5132,0.15039,0.76078,0.80469
5.496,0.23558,0.50538,0.16016,0.75098,0.79883
5.504,0.23656,0.49658,0.15039,0.74118,0.79492
5.512,0.23754,0.48876,0.17969,0.73529,0.77539
5.52,0.23851,0.48192,0.17578,0.71569,0.75977
5.528,0.23949,0.47605,0.19531,0.70588,0.73438
5.536,0.23949,0.47116,0.20117,0.6902,0.72461
5.544,0.24047,0.46725,0.21094,0.67647,0.69531
5.552,0.24047,0.46334,0.21484,0.66471,0.68555
5.56,0.24047,0.46041,0.20117,0.66471,0.67578
5.568,0.24145,0.45552,0.21094,0.66471,0.66992
5.576,0.24047,0.45064,0.20508,0.66471,0.66016
5.584,0.24047,0.44477,0.21484,0.67059,0.66016
5.592,0.23949,0.43891,0.20117,0.67647,0.66992
5.6,0.23851,0.43304,0.20508,0.68039,0.66406
5.608,0.23754,0.4262,0.20117,0.68627,0.67578
5.616,0.23558,0.41935,0.21094,0.6902,0.66016
5.624,0.23363,0.41349,0.20117,0.6902,0.67578
5.632,0.23265,0.40762,0.20117,0.6902,0.66992
5.64,0.23069,0.40176,0.20117,0.69608,0.67578
5.648,0.22874,0.39785,0.21094,0.6902,0.66016
5.656,0.22776,0.39198,0.20117,0.6902,0.66016
5.664,0.22581,0.3871,0.21094,0.69608,0.6543
5.672,0.22483,0.38221,0.22461,0.7098,0.64453
5.68,0.22385,0.3783,0.24609,0.7098,0.62891
5.688,0.22385,0.37341,0.25,0.7098,0.61523
5.696,0.22287,0.3695,0.25977,0.70588,0.61523
5.704,0.2219,0.36559,0.24609,0.7098,0.625
5.712,0.2219,0.36266,0.24609,0.7098,0.61914
5.72,0.2219,0.35973,0.24023,0.69608,0.61914
5.728,0.2219,0.35973,0.23047,0.67647,0.63477
5.736,0.22287,0.36266,0.20508,0.67647,0.66016
5.744,0.22287,0.36657,0.20508,0.68627,0.66992
5.752,0.22287,0.37243,0.19531,0.68039,0.68555
5.76,0.22385,0.37928,0.18555,0.68627,0.68555
5.768,0.22385,0.38905,0.17578,0.67647,0.69531
5.776,0.22385,0.40176,0.17578,0.68039,0.68945
5.784,0.22385,0.4174,0.17969,0.67647,0.68945
5.792,0.22385,0.435,0.17578,0.67647,0.69922
5.8,0.22385,0.45357,0.17578,0.68039,0.69922
5.808,0.22385,0.47312,0.17578,0.67647,0.69922
5.816,0.22385,0.49267,0.17969,0.68039,0.69531
5.824,0.22483,0.51124,0.17578,0.67647,0.69922
5.832,0.22483,0.52981,0.125,0.67059,0.70898
5.84,0.22581,0.54545,0.11523,0.6549,0.64453
5.848,0.22678,0.55914,0.29492,0.51961,0.44922
5.856,0.22678,0.57185,0.54492,0.24902,0.11133
5.864,0.22776,0.58456,0.76953,-0.0058823,-0.11523
5.872,0.22874,0.59726,0.77539,-0.041176,0.16016
5.88,0.22972,0.60899,0.38086,0.24902,0.66992
5.888,0.23069,0.61779,0.14453,0.43529,0.83984
5.896,0.23167,0.62659,0.12109,0.5902,0.79492
5.904,0.23265,0.63343,0.15039,0.69608,0.78516
5.912,0.23265,0.6393,0.13477,0.73529,0.7793
5.92,0.23265,0.64321,0.13086,0.7549,0.7793
5.928,0.23265,0.64516,0.13086,0.76667,0.78516
5.936,0.23363,0.64516,0.12109,0.76078,0.7793
5.944,0.23265,0.64321,0.11523,0.76078,0.78516
5.952,0.23265,0.64027,0.125,0.76078,0.7793
5.96,0.23265,0.63636,0.11523,0.76667,0.78516
5.968,0.23265,0.63343,0.13086,0.76078,0.7793
5.976,0.23167,0.6305,0.13086,0.76667,0.77539
5.984,0.23167,0.62757,0.13086,0.76078,0.7793
5.992,0.23069,0.62366,0.13086,0.76078,0.7793
6,0.23069,0.61877,0.125,0.76078,0.7793
6.008,0.22972,0.61193,0.13086,0.76078,0.7793
6.016,0.22972,0.60215,0.125,0.76078,0.7793
6.024,0.22874,0.59238,0.12109,0.76078,0.78906
6.032,0.22874,0.58162,0.13086,0.7549,0.7793
6.04,0.22874,0.57185,0.125,0.76078,0.78906
6.048,0.22874,0.56403,0.13086,0.76078,0.78516
6.056,0.22874,0.55621,0.13086,0.76078,0.78906
6.064,0.22972,0.54741,0.13086,0.76078,0.79883
6.072,0.22972,0.53763,0.13086,0.7549,0.80469
6.08,0.23069,0.52786,0.13086,0.76078,0.80469
6.088,0.23069,0.51906,0.14062,0.76078,0.81055
6.096,0.23167,0.51222,0.13477,0.76078,0.81445
6.104,0.23265,0.50538,0.14453,0.76078,0.79883
6.112,0.23363,0.49951,0.17578,0.7451,0.78906
6.12,0.23363,0.49365,0.17578,0.73529,0.7793
6.128,0.2346,0.48778,0.18945,0.73137,0.76562
6.136,0.23558,0.48094,0.18555,0.7098,0.74414
6.144,0.23656,0.47507,0.20117,0.69608,0.72461
6.152,0.23656,0.46823,0.21094,0.68627,0.69922
6.16,0.23754,0.46139,0.20508,0.67059,0.67969
6.168,0.23851,0.45357,0.21484,0.66471,0.66406
6.176,0.23851,0.44673,0.21094,0.66471,0.66016
6.184,0.23949,0.44184,0.21484,0.66078,0.66016
6.192,0.23949,0.43695,0.21094,0.66471,0.66406
6.2,0.23949,0.43304,0.21484,0.67059,0.66406
6.208,0.23949,0.42815,0.21094,0.67059,0.66016
6.216,0.23949,0.42229,0.2207,0.68039,0.66406
6.224,0.23949,0.41642,0.20117,0.68627,0.66992
6.232,0.23851,0.41056,0.21484,0.6902,0.66406
6.24,0.23851,0.40567,0.20508,0.6902,0.66992
6.248,0.23754,0.40176,0.21484,0.69608,0.66016
6.256,0.23754,0.39589,0.20117,0.6902,0.66992
6.264,0.23558,0.39198,0.20508,0.68627,0.66016
6.272,0.2346,0.3871,0.21094,0.6902,0.66016
6.28,0.23363,0.38221,0.23047,0.7,0.64453
6.288,0.23265,0.37928,0.24023,0.70588,0.63477
6.296,0.23167,0.37634,0.25586,0.7098,0.61914
6.304,0.23069,0.37341,0.25977,0.7098,0.61523
6.312,0.23069,0.3695,0.26953,0.70588,0.60547
6.32,0.22972,0.36657,0.25,0.70588,0.61914
6.328,0.22972,0.36461,0.25,0.7,0.61523
6.336,0.22972,0.36461,0.23438,0.68039,0.62891
6.344,0.22972,0.36461,0.2207,0.66471,0.65039
6.352,0.22874,0.36657,0.20508,0.66471,0.67578
6.36,0.22874,0.3695,0.20117,0.67647,0.68555
6.368,0.22972,0.37634,0.18555,0.67647,0.69531
6.376,0.22972,0.38612,0.18555,0.67059,0.69922
6.384,0.22972,0.39883,0.17969,0.67059,0.68945
6.392,0.22972,0.41447,0.17578,0.67059,0.70508
6.4,0.22972,0.43402,0.16992,0.67647,0.69922
6.408,0.22972,0.45259,0.17578,0.67647,0.70508
6.416,0.22972,0.47312,0.17969,0.66471,0.69922
6.424,0.22972,0.49267,0.18555,0.67059,0.68945
6.432,0.23069,0.51222,0.17969,0.67059,0.69531
6.44,0.23069,0.52884,0.14453,0.67647,0.70898
6.448,0.23167,0.5435,0.125,0.67059,0.68945
6.456,0.23167,0.55914,0.21094,0.60588,0.56445
6.464,0.23265,0.57283,0.42969,0.39412,0.28516
6.472,0.23265,0.58553,0.68555,0.10392,-0.044922
6.48,0.23363,0.59531,0.77539,-0.041176,-0.10938
6.488,0.2346,0.60411,0.53906,0.13922,0.45508
6.496,0.23558,0.6129,0.25586,0.3549,0.79492
6.504,0.23558,0.62072,0.125,0.51569,0.83984
6.512,0.23656,0.62757,0.15625,0.65098,0.7793
6.52,0.23754,0.63441,0.13477,0.71569,0.7793
6.528,0.23754,0.64027,0.13477,0.7451,0.77539
6.536,0.23851,0.64614,0.13086,0.76078,0.76953
6.544,0.23851,0.64809,0.125,0.76078,0.78516
6.552,0.23851,0.65005,0.13086,0.76667,0.7793
6.56,0.23949,0.65103,0.13086,0.76667,0.7793
6.568,0.23851,0.65103,0.13086,0.76078,0.7793
6.576,0.23851,0.64907,0.13086,0.76078,0.7793
6.584,0.23851,0.64516,0.125,0.76667,0.7793
6.592,0.23754,0.6393,0.13086,0.76078,0.7793
6.6,0.23754,0.63245,0.13477,0.76078,0.77539
6.608,0.23656,0.62366,0.13477,0.76078,0.77539
6.616,0.23656,0.61388,0.13086,0.76078,0.7793
6.624,0.23656,0.60215,0.13477,0.76667,0.7793
6.632,0.23656,0.5914,0.13086,0.76078,0.78516
6.64,0.23656,0.58065,0.13086,0.76078,0.7793
6.648,0.23656,0.57087,0.14062,0.76078,0.7793
6.656,0.23656,0.56207,0.13086,0.7549,0.78906
6.664,0.23656,0.55327,0.13086,0.76078,0.79492
6.672,0.23754,0.54545,0.13086,0.7549,0.78906
6.68,0.23851,0.53763,0.14062,0.76078,0.79883
6.688,0.23949,0.52884,0.13086,0.76078,0.80469
6.696,0.24047,0.51906,0.13477,0.76078,0.81055
6.704,0.24145,0.51026,0.14062,0.76078,0.80469
6.712,0.2434,0.50244,0.16016,0.75098,0.79883
6.72,0.24438,0.4956,0.16602,0.7451,0.79883
6.728,0.24633,0.48876,0.17578,0.73529,0.7793
6.736,0.24829,0.48289,0.17969,0.72157,0.76562
6.744,0.24927,0.47801,0.18945,0.7098,0.75
6.752,0.25122,0.47312,0.20117,0.6902,0.73047
6.76,0.25318,0.46628,0.20508,0.68627,0.70898
6.768,0.25513,0.45943,0.21094,0.67059,0.68945
6.776,0.25709,0.45259,0.22461,0.66471,0.66992
6.784,0.25904,0.44575,0.21484,0.66078,0.66406
6.792,0.26002,0.43988,0.21094,0.66471,0.66016
6.8,0.261,0.43304,0.22461,0.66078,0.66016
6.808,0.261,0.42815,0.20508,0.67059,0.66406
6.816,0.261,0.42326,0.21094,0.66471,0.66016
6.824,0.261,0.41935,0.21094,0.67647,0.66016
6.832,0.261,0.41544,0.20508,0.68039,0.66992
6.84,0.26002,0.41251,0.20508,0.68627,0.67578
6.848,0.25904,0.40958,0.21484,0.6902,0.66406
6.856,0.25806,0.40665,0.20508,0.6902,0.66992
6.864,0.25611,0.40274,0.21094,0.68627,0.66406
6.872,0.25513,0.39785,0.20508,0.68039,0.66016
6.88,0.25318,0.39296,0.2207,0.68627,0.6543
6.888,0.2522,0.38807,0.23047,0.6902,0.64453
6.896,0.25024,0.38416,0.24023,0.69608,0.64062
6.904,0.24829,0.38025,0.25,0.7,0.61914
6.912,0.24633,0.37537,0.26562,0.70588,0.60938
6.92,0.24438,0.37146,0.26953,0.7,0.60938
6.928,0.2434,0.36657,0.26562,0.70588,0.60938
6.936,0.24145,0.36266,0.25,0.69608,0.61523
6.944,0.23949,0.3607,0.25977,0.68627,0.60938
6.952,0.23754,0.35875,0.24609,0.66471,0.62891
6.96,0.23558,0.35973,0.21484,0.66471,0.66406
6.968,0.23363,0.36461,0.20508,0.66471,0.67578
6.976,0.23167,0.37243,0.21094,0.66471,0.67969
6.984,0.22972,0.38221,0.18945,0.66078,0.68555
6.992,0.22776,0.39492,0.19531,0.66471,0.68945
7,0.22581,0.41056,0.18555,0.66471,0.69531
7.008,0.22385,0.4262,0.18555,0.66078,0.68945
7.016,0.2219,0.44282,0.17578,0.66078,0.69922
7.024,0.22092,0.45846,0.18555,0.66078,0.69531
7.032,0.21896,0.47605,0.18945,0.66078,0.68945
7.04,0.21799,0.49071,0.17969,0.66471,0.69922
7.048,0.21701,0.50538,0.18555,0.67059,0.69531
7.056,0.21603,0.52199,0.13086,0.66078,0.70508
7.064,0.21603,0.53861,0.16602,0.62941,0.61523
7.072,0.21505,0.55523,0.34961,0.46471,0.39062
7.08,0.21505,0.56891,0.60938,0.18431,0.041016
7.088,0.21505,0.5826,0.78906,-0.037255,-0.11523
7.096,0.21505,0.59433,0.66406,-0.041176,0.26562
7.104,0.21505,0.60411,0.33984,0.27843,0.7207
7.112,0.21505,0.6129,0.13477,0.4549,0.83398
7.12,0.21505,0.62072,0.15039,0.6098,0.7793
7.128,0.21408,0.62561,0.16602,0.69608,0.77539
7.136,0.21408,0.62854,0.14062,0.73137,0.7793
7.144,0.21408,0.62952,0.13477,0.75098,0.7793
7.152,0.2131,0.63148,0.13477,0.7549,0.7793
7.16,0.2131,0.63245,0.13477,0.7549,0.7793
7.168,0.21212,0.63245,0.125,0.7549,0.78516
7.176,0.21212,0.63148,0.13477,0.7549,0.7793
7.184,0.21212,0.6305,0.14062,0.76078,0.77539
7.192,0.21114,0.62854,0.13086,0.7549,0.7793
7.2,0.21114,0.62463,0.13477,0.76078,0.7793
7.208,0.21017,0.62072,0.14453,0.76078,0.77539
7.216,0.20919,0.61388,0.15039,0.76078,0.76953
7.224,0.20919,0.60704,0.14062,0.76078,0.77539
7.232,0.20919,0.59922,0.14453,0.7549,0.7793
7.24,0.20821,0.5914,0.13477,0.76078,0.7793
7.248,0.20821,0.58456,0.14062,0.76078,0.7793
7.256,0.20821,0.57771,0.13086,0.76078,0.78516
7.264,0.20821,0.57087,0.13477,0.76078,0.78516
7.272,0.20919,0.56305,0.13477,0.76078,0.79492
7.28,0.20919,0.55425,0.14062,0.76078,0.78906
7.288,0.21017,0.54545,0.13086,0.76078,0.79492
7.296,0.21114,0.5347,0.14453,0.76078,0.79883
7.304,0.21212,0.52395,0.14062,0.76078,0.81055
7.312,0.21408,0.51417,0.15039,0.76078,0.80469
7.32,0.21505,0.50635,0.15625,0.76078,0.81055
7.328,0.21701,0.49951,0.17578,0.75098,0.79492
7.336,0.21896,0.49462,0.17578,0.73529,0.78516
7.344,0.22092,0.49071,0.18555,0.73529,0.77539
7.352,0.22287,0.48583,0.20117,0.7098,0.75391
7.36,0.22483,0.47996,0.19531,0.7098,0.74023
7.368,0.22678,0.47312,0.21484,0.69608,0.71484
7.376,0.22874,0.4653,0.22461,0.68039,0.68945
7.384,0.23069,0.45748,0.2207,0.66471,0.67969
7.392,0.23265,0.45064,0.2207,0.66471,0.66016
7.4,0.23363,0.44379,0.22461,0.66471,0.6543
7.408,0.2346,0.43793,0.2207,0.66471,0.6543
7.416,0.23558,0.43011,0.22461,0.66471,0.66016
7.424,0.23558,0.42131,0.21484,0.68039,0.66016
7.432,0.23558,0.41544,0.21484,0.67647,0.66406
7.44,0.23558,0.41056,0.21094,0.68627,0.66992
7.448,0.2346,0.40665,0.21484,0.6902,0.66406
7.456,0.2346,0.40371,0.20508,0.69608,0.66992
7.464,0.23363,0.3998,0.21094,0.6902,0.66016
7.472,0.23265,0.39589,0.21484,0.69608,0.66016
7.48,0.23167,0.39101,0.21094,0.6902,0.66406
7.488,0.23167,0.3871,0.21484,0.6902,0.66016
7.496,0.23069,0.38319,0.21094,0.6902,0.65039
7.504,0.23069,0.3783,0.24023,0.70588,0.63477
7.512,0.22874,0.37537,0.25,0.7098,0.625
7.52,0.22776,0.37243,0.26953,0.7098,0.60938
7.528,0.22581,0.3695,0.2793,0.70588,0.59961
7.536,0.22385,0.36755,0.26953,0.70588,0.60938
7.544,0.2219,0.36461,0.26562,0.7098,0.60938
7.552,0.21994,0.36266,0.25977,0.69608,0.60938
7.56,0.21799,0.36168,0.25,0.68039,0.62891
7.568,0.21603,0.36168,0.22461,0.66471,0.66016
7.576,0.21505,0.36364,0.21094,0.67059,0.67578
7.584,0.21408,0.36852,0.21094,0.67059,0.67969
7.592,0.2131,0.37537,0.19531,0.66471,0.68555
7.6,0.21212,0.38612,0.18945,0.66078,0.68555
7.608,0.21114,0.40078,0.19531,0.66471,0.68945
7.616,0.21017,0.4174,0.19531,0.66471,0.68555
7.624,0.20919,0.43597,0.18945,0.66471,0.68945
7.632,0.20821,0.45455,0.17578,0.66471,0.69922
7.64,0.20723,0.47019,0.17969,0.66471,0.69922
7.648,0.20723,0.48485,0.18555,0.66471,0.69922
7.656,0.20626,0.50049,0.18555,0.66471,0.69922
7.664,0.20626,0.51613,0.14453,0.66471,0.70508
7.672,0.20626,0.53079,0.13086,0.66078,0.66406
7.68,0.20626,0.54545,0.2793,0.53922,0.48047
7.688,0.20626,0.55914,0.51562,0.2902,0.16602
7.696,0.20626,0.57283,0.75391,0.0078431,-0.11523
7.704,0.20626,0.58553,0.78516,-0.05098,0.080078
7.712,0.20528,0.59726,0.44531,0.20392,0.58984
7.72,0.20528,0.60802,0.17969,0.4098,0.83008
7.728,0.2043,0.61681,0.125,0.56471,0.80469
7.736,0.2043,0.62268,0.15039,0.67647,0.78516
7.744,0.2043,0.62757,0.14453,0.73137,0.77539
7.752,0.2043,0.63148,0.13086,0.75098,0.7793
7.76,0.2043,0.63441,0.13477,0.76078,0.7793
7.768,0.20332,0.63734,0.125,0.7549,0.78516
7.776,0.20332,0.63832,0.14062,0.76078,0.7793
7.784,0.20235,0.63832,0.13086,0.76078,0.7793
7.792,0.20235,0.63636,0.13086,0.76078,0.7793
7.8,0.20137,0.63343,0.14453,0.76078,0.76953
7.808,0.20039,0.62952,0.13086,0.76078,0.7793
7.816,0.19941,0.62366,0.14062,0.76078,0.77539
7.824,0.19844,0.61681,0.14453,0.76078,0.76953
7.832,0.19746,0.60899,0.13086,0.76078,0.7793
7.84,0.19648,0.60117,0.13086,0.76078,0.78516
7.848,0.19453,0.59335,0.14062,0.7549,0.7793
7.856,0.19355,0.58456,0.13086,0.76078,0.7793
7.864,0.19355,0.57478,0.13477,0.76078,0.78516
7.872,0.19257,0.56598,0.13086,0.76078,0.78516
7.88,0.19257,0.55816,0.13477,0.7549,0.7793
7.888,0.19257,0.54936,0.13086,0.7549,0.79492
7.896,0.19257,0.54154,0.14062,0.76078,0.78906
7.904,0.19355,0.53372,0.13477,0.7549,0.79883
7.912,0.19453,0.52395,0.15039,0.76078,0.79883
7.92,0.1955,0.51417,0.13477,0.76078,0.80469
7.928,0.19746,0.50538,0.15625,0.76078,0.79883
7.936,0.19844,0.49756,0.16016,0.7451,0.80469
7.944,0.20039,0.49071,0.16992,0.7451,0.79492
7.952,0.20235,0.48192,0.17969,0.73137,0.7793
7.96,0.2043,0.47312,0.19531,0.72157,0.75977
7.968,0.20626,0.46432,0.20117,0.70588,0.74023
7.976,0.20723,0.45748,0.21094,0.69608,0.72461
7.984,0.20821,0.45161,0.21484,0.68039,0.69922
7.992,0.21017,0.44575,0.2207,0.67059,0.68555
8,0.21114,0.43988,0.22461,0.66471,0.67578
8.008,0.21212,0.43402,0.21094,0.66078,0.66016
8.016,0.2131,0.42913,0.22461,0.6549,0.6543
8.024,0.2131,0.42424,0.22461,0.66471,0.66016
8.032,0.2131,0.41935,0.22461,0.67647,0.6543
8.04,0.2131,0.41642,0.21094,0.68039,0.66406
8.048,0.2131,0.41447,0.21094,0.68039,0.66992
8.056,0.2131,0.41153,0.2207,0.68627,0.66406
8.064,0.21212,0.40762,0.20117,0.6902,0.67578
8.072,0.21114,0.40274,0.20508,0.6902,0.67969
8.08,0.21017,0.39687,0.2207,0.68627,0.66016
8.088,0.20919,0.39101,0.21484,0.6902,0.66016
8.096,0.20723,0.38514,0.2207,0.6902,0.6543
8.104,0.20528,0.3783,0.22461,0.68627,0.65039
8.112,0.20332,0.37243,0.24023,0.69608,0.63477
8.12,0.20235,0.36755,0.24609,0.70588,0.62891
8.128,0.20039,0.36266,0.26953,0.7098,0.59961
8.136,0.19941,0.35973,0.28516,0.70588,0.5957
8.144,0.19941,0.35777,0.26953,0.7,0.60547
8.152,0.19844,0.35582,0.25977,0.70588,0.60938
8.16,0.19746,0.35386,0.26562,0.7,0.60547
8.168,0.19648,0.35288,0.24023,0.68039,0.62891
8.176,0.1955,0.35288,0.22461,0.66471,0.64453
8.184,0.19355,0.35288,0.21484,0.66471,0.66406
8.192,0.19257,0.35679,0.20508,0.67647,0.66992
8.2,0.19159,0.36364,0.20508,0.66471,0.67578
8.208,0.19062,0.37439,0.18945,0.66471,0.68555
8.216,0.18964,0.38807,0.18945,0.66471,0.68555
8.224,0.18964,0.40469,0.17969,0.66471,0.68945
8.232,0.18866,0.42326,0.17969,0.66471,0.69531
8.24,0.18866,0.43988,0.18945,0.66471,0.68945
8.248,0.18866,0.4565,0.17969,0.66471,0.68945
8.256,0.18866,0.47507,0.17578,0.66471,0.70508
8.264,0.18866,0.49365,0.18555,0.66471,0.69922
8.272,0.18964,0.51124,0.14453,0.66471,0.71484
8.28,0.18964,0.52884,0.125,0.66078,0.68555
8.288,0.18964,0.54448,0.23047,0.57451,0.53516
8.296,0.19062,0.55816,0.46094,0.34902,0.24023
8.304,0.19062,0.56989,0.70508,0.058824,-0.080078
8.312,0.19062,0.57967,0.77539,-0.056863,-0.125
8.32,0.19159,0.58944,0.51562,0.14314,0.5
8.328,0.19062,0.59922,0.23438,0.35882,0.80469
8.336,0.19062,0.60704,0.12109,0.52549,0.83984
8.344,0.19062,0.61388,0.15039,0.65098,0.78516
8.352,0.18964,0.62072,0.14062,0.72157,0.78516
8.36,0.18866,0.62757,0.13086,0.73529,0.78516
8.368,0.18866,0.63148,0.125,0.7549,0.78516
8.376,0.18768,0.63245,0.13086,0.76078,0.7793
8.384,0.18671,0.63245,0.13086,0.76078,0.7793
8.392,0.18573,0.63245,0.13086,0.76078,0.7793
8.4,0.18475,0.63245,0.13086,0.76078,0.7793
8.408,0.18377,0.63148,0.13086,0.76078,0.7793
8.416,0.1828,0.62854,0.13086,0.76078,0.7793
8.424,0.18182,0.62463,0.14062,0.76078,0.77539
8.432,0.18084,0.61877,0.14453,0.76078,0.7793
8.44,0.17986,0.61193,0.13477,0.76078,0.7793
8.448,0.17986,0.60411,0.14062,0.76078,0.7793
8.456,0.17889,0.59433,0.14062,0.76078,0.7793
8.464,0.17889,0.58358,0.14453,0.76078,0.7793
8.472,0.17986,0.5738,0.14062,0.76078,0.7793
8.48,0.17986,0.56403,0.14453,0.76078,0.7793
8.488,0.17986,0.55523,0.14062,0.76078,0.79492
8.496,0.18084,0.54545,0.13477,0.76078,0.79492
8.504,0.1828,0.53666,0.14062,0.76078,0.79492
8.512,0.18377,0.52786,0.13477,0.76667,0.79492
8.52,0.18671,0.51906,0.13477,0.76667,0.80469
8.528,0.18866,0.51026,0.14453,0.76667,0.81055
8.536,0.19062,0.5044,0.15039,0.77059,0.80469
8.544,0.19355,0.49853,0.16016,0.76078,0.79883
8.552,0.19453,0.49169,0.17578,0.7549,0.78516
8.56,0.19648,0.48485,0.18555,0.7451,0.77539
8.568,0.19844,0.47898,0.20117,0.73529,0.75391
8.576,0.19941,0.4741,0.20508,0.72157,0.73438
8.584,0.20137,0.46921,0.2207,0.70588,0.71484
8.592,0.20235,0.4653,0.23047,0.6902,0.68945
8.6,0.20332,0.46041,0.23438,0.68039,0.67578
8.608,0.20528,0.4565,0.24023,0.67059,0.66016
8.616,0.20528,0.45161,0.24609,0.66471,0.6543
8.624,0.20626,0.44673,0.23438,0.66471,0.66016
8.632,0.20528,0.44086,0.24023,0.66471,0.65039
8.64,0.2043,0.43695,0.23438,0.67647,0.65039
8.648,0.20039,0.43011,0.23438,0.67647,0.65039
8.656,0.19746,0.42131,0.23047,0.68627,0.65039
8.664,0.19257,0.41153,0.24023,0.6902,0.64453
8.672,0.18866,0.40176,0.24023,0.6902,0.65039
8.68,0.18182,0.39198,0.23438,0.69608,0.6543
8.688,0.17595,0.38319,0.24609,0.6902,0.64062
8.696,0.17009,0.37634,0.24609,0.69608,0.64062
8.704,0.16422,0.37146,0.24023,0.6902,0.64062
8.712,0.15836,0.3695,0.25,0.6902,0.63477
8.72,0.15249,0.36755,0.25586,0.6902,0.625
8.728,0.14565,0.36657,0.26953,0.7,0.61523
8.736,0.13783,0.36559,0.29102,0.70588,0.60547
8.744,0.13001,0.36461,0.30469,0.7098,0.58984
8.752,0.12219,0.36266,0.30469,0.70588,0.58008
8.76,0.11535,0.3607,0.31445,0.7098,0.57422
8.768,0.1085,0.35875,0.30078,0.70588,0.58984
8.776,0.10362,0.35777,0.30469,0.69608,0.58398
8.784,0.097752,0.35679,0.28516,0.67059,0.60938
8.792,0.091887,0.35679,0.26953,0.66471,0.62891
8.8,0.086999,0.35973,0.25586,0.67059,0.64453
8.808,0.082111,0.36364,0.24609,0.67059,0.65039
8.816,0.077224,0.37048,0.24023,0.66471,0.6543
8.824,0.075269,0.37928,0.23438,0.66471,0.66016
8.832,0.072336,0.38905,0.23438,0.66471,0.66406
8.84,0.071359,0.40078,0.23438,0.66471,0.66406
8.848,0.071359,0.41642,0.24609,0.66471,0.66406
8.856,0.072336,0.43402,0.23438,0.66471,0.66992
8.864,0.072336,0.45357,0.24609,0.66471,0.66016
8.872,0.074291,0.47312,0.23438,0.66471,0.66016
8.88,0.076246,0.49169,0.22461,0.67059,0.66406
8.888,0.081134,0.50831,0.18555,0.67647,0.67969
8.896,0.086022,0.52199,0.17578,0.68039,0.625
8.904,0.092864,0.53275,0.33008,0.55098,0.44922
8.912,0.099707,0.54154,0.57031,0.31961,0.14453
8.92,0.10753,0.54936,0.79883,0.039216,-0.11523
8.928,0.11535,0.55621,0.83008,-0.021569,0.060547
8.936,0.12414,0.56207,0.48047,0.21961,0.58398
8.944,0.13294,0.565,0.21484,0.41961,0.81055
8.952,0.1437,0.56891,0.15625,0.57451,0.82031
8.96,0.15445,0.5738,0.20117,0.68039,0.75
8.968,0.16618,0.57771,0.20117,0.73137,0.73438
8.976,0.17889,0.58162,0.19531,0.75098,0.74023
8.984,0.19257,0.58456,0.18555,0.76078,0.74414
8.992,0.20626,0.58651,0.18945,0.76078,0.73438
9,0.22092,0.58651,0.18945,0.76078,0.73438
9.008,0.23656,0.58553,0.18555,0.76078,0.73438
9.016,0.25122,0.58162,0.18945,0.76667,0.74023
9.024,0.26588,0.57674,0.19531,0.76078,0.72461
9.032,0.27957,0.57087,0.20117,0.76078,0.73047
9.04,0.29423,0.565,0.19531,0.76667,0.72461
9.048,0.31183,0.55816,0.18945,0.76078,0.73047
9.056,0.32942,0.55034,0.17969,0.76078,0.74023
9.064,0.34995,0.54057,0.18945,0.76078,0.73047
9.072,0.3695,0.53079,0.18945,0.76078,0.73438
9.08,0.38807,0.52102,0.20117,0.76078,0.73047
9.088,0.40762,0.51026,0.18945,0.76078,0.73438
9.096,0.4262,0.50147,0.18945,0.76078,0.74023
9.104,0.44477,0.49267,0.18945,0.76667,0.73438
9.112,0.46628,0.48387,0.19531,0.76078,0.74414
9.12,0.48778,0.47507,0.19531,0.76078,0.74414
9.128,0.51222,0.46725,0.19531,0.76078,0.75
9.136,0.53666,0.45943,0.17969,0.76667,0.75977
9.144,0.565,0.45259,0.19531,0.76078,0.75391
9.152,0.59238,0.44575,0.20508,0.76078,0.74414
9.16,0.62268,0.43891,0.2207,0.7549,0.74414
9.168,0.652,0.43109,0.21484,0.74118,0.75
9.176,0.68035,0.42326,0.24023,0.73137,0.72461
9.184,0.7087,0.41544,0.24609,0.72157,0.70898
9.192,0.73607,0.40567,0.23438,0.7098,0.69922
9.2,0.76344,0.39687,0.26562,0.69608,0.66406
9.208,0.79374,0.38807,0.25977,0.68627,0.66016
9.216,0.82307,0.38025,0.26562,0.67647,0.64062
9.224,0.85533,0.37341,0.26953,0.66471,0.625
9.232,0.88661,0.3695,0.26562,0.67647,0.61914
9.24,0.91691,0.36657,0.25977,0.67647,0.61914
9.248,0.94624,0.36364,0.26953,0.68039,0.61523
9.256,0.97361,0.36168,0.25977,0.6902,0.61523
9.264,1,0.35875,0.26562,0.6902,0.61914
9.272,1,0.35582,0.25977,0.69608,0.61523
9.28,1,0.35191,0.26562,0.7,0.625
9.288,1,0.34702,0.25977,0.70588,0.61914
9.296,1,0.34213,0.26562,0.7098,0.61914
9.304,1,0.33724,0.25977,0.7,0.61523
9.312,1,0.33333,0.26953,0.70588,0.61523
9.32,1,0.32845,0.26562,0.70588,0.60547
9.328,1,0.32454,0.26953,0.70588,0.60938
9.336,1,0.3216,0.26953,0.70588,0.60547
9.344,1,0.31867,0.29492,0.71569,0.58984
9.352,1,0.31476,0.30469,0.71569,0.58398
9.36,1,0.31085,0.31445,0.7098,0.56445
9.368,1,0.30499,0.32422,0.7098,0.56055
9.376,1,0.3001,0.33594,0.7098,0.56055
9.384,1,0.29521,0.31445,0.71569,0.56055
9.392,1,0.29228,0.31445,0.7098,0.56445
9.4,1,0.29032,0.29492,0.69608,0.58398
9.408,1,0.29032,0.27539,0.68627,0.60938
9.416,1,0.2913,0.26562,0.68039,0.625
9.424,1,0.29619,0.25977,0.6902,0.63477
9.432,1,0.30108,0.24609,0.6902,0.64062
9.44,1,0.30792,0.24023,0.68627,0.64453
9.448,1,0.31769,0.24609,0.68039,0.64062
9.456,1,0.32942,0.24023,0.68627,0.64453
9.464,1,0.35777,0.24023,0.68039,0.65039
9.472,1,0.39492,0.23438,0.68039,0.6543
9.48,1,0.42131,0.24609,0.68627,0.64453
9.488,1,0.44282,0.23047,0.68039,0.6543
9.496,1,0.46139,0.24023,0.68039,0.64453
9.504,1,0.47703,0.18555,0.68627,0.66406
9.512,1,0.49169,0.16602,0.6902,0.62891
9.52,1,0.50538,0.30078,0.6,0.49023
9.528,1,0.51711,0.55078,0.39412,0.22461
9.536,1,0.5259,0.82422,0.14314,-0.048828
9.544,1,0.53177,0.87891,0.058824,-0.054688
9.552,1,0.53763,0.54492,0.23333,0.51562
9.56,1,0.54252,0.24023,0.42549,0.78906
9.568,1,0.54741,0.15039,0.57451,0.81445
9.576,1,0.5523,0.16992,0.68039,0.74414
9.584,1,0.55621,0.16992,0.72157,0.73047
9.592,1,0.55914,0.17969,0.74118,0.71484
9.6,1,0.56109,0.17578,0.75098,0.7207
9.608,1,0.56305,0.17578,0.7549,0.72461
9.616,1,0.56403,0.17578,0.75098,0.7207
9.624,1,0.56305,0.18945,0.75098,0.70898
9.632,1,0.56207,0.18555,0.7451,0.71484
9.64,1,0.56109,0.18555,0.75098,0.71484
9.648,1,0.56012,0.17969,0.7451,0.71484
9.656,1,0.55718,0.18945,0.74118,0.70898
9.664,1,0.55327,0.18945,0.7451,0.71484
9.672,1,0.54839,0.18555,0.73529,0.71484
9.68,1,0.54252,0.18555,0.7451,0.7207
9.688,1,0.53568,0.18555,0.74118,0.7207
9.696,1,0.52786,0.18945,0.73529,0.72461
9.704,1,0.52004,0.18555,0.74118,0.73047
9.712,1,0.51026,0.18945,0.74118,0.73047
9.72,1,0.50049,0.17578,0.73529,0.73047
9.728,1,0.49071,0.18555,0.73529,0.73047
9.736,1,0.48289,0.17578,0.73529,0.73438
9.744,1,0.47507,0.17578,0.73137,0.75
9.752,1,0.46823,0.17578,0.72549,0.74414
9.76,1,0.46139,0.18945,0.73137,0.74414
9.768,1,0.45552,0.20117,0.72549,0.74414
9.776,1,0.45064,0.20508,0.72157,0.74023
9.784,1,0.44477,0.22461,0.7098,0.72461
9.792,1,0.43988,0.22461,0.7098,0.7207
9.8,1,0.435,0.22461,0.69608,0.71484
9.808,1,0.43011,0.24023,0.6902,0.70508
9.816,1,0.4262,0.24609,0.67647,0.68555
9.824,1,0.42131,0.26562,0.67059,0.66016
9.832,1,0.41642,0.26562,0.66471,0.64453
9.84,1,0.41251,0.25586,0.66078,0.63477
9.848,1,0.40665,0.26562,0.6549,0.63477
9.856,1,0.40078,0.25586,0.66078,0.61914
9.864,1,0.39492,0.25977,0.66471,0.61523
9.872,1,0.39003,0.23047,0.68039,0.63477
9.88,1,0.38514,0.24609,0.68627,0.63477
9.888,1,0.38123,0.23047,0.6902,0.65039
9.896,1,0.3783,0.24023,0.6902,0.64062
9.904,1,0.37439,0.22461,0.6902,0.65039
9.912,1,0.37146,0.22461,0.6902,0.65039
9.92,1,0.36755,0.2207,0.69608,0.64453
9.928,1,0.36364,0.24023,0.69608,0.63477
9.936,1,0.3607,0.24609,0.6902,0.63477
9.944,1,0.35875,0.22461,0.7,0.63477
9.952,1,0.35679,0.24609,0.70588,0.62891
9.96,1,0.35484,0.25586,0.7098,0.61523
9.968,1,0.35191,0.26562,0.7098,0.60547
9.976,1,0.34897,0.28516,0.7098,0.58984
9.984,1,0.34506,0.30078,0.7,0.58008
9.992,1,0.34018,0.30469,0.7098,0.58398
10,1,0.33627,0.29102,0.70588,0.58984
10.008,1,0.33138,0.29102,0.69608,0.58984
10.016,1,0.32747,0.29492,0.68039,0.60938
10.024,1,0.32551,0.24023,0.67647,0.64062
10.032,1,0.32551,0.23438,0.67647,0.65039
10.04,1,0.32942,0.2207,0.68627,0.66016
10.048,1,0.33431,0.22461,0.68039,0.65039
10.056,1,0.34311,0.21484,0.67647,0.66016
10.064,1,0.35484,0.20508,0.68039,0.66992
10.072,1,0.36755,0.20117,0.68039,0.67578
10.08,1,0.38221,0.19531,0.67647,0.68555
10.088,1,0.39785,0.18945,0.67059,0.67969
10.096,1,0.41349,0.20117,0.67059,0.68555
10.104,1,0.42913,0.20117,0.68039,0.68555
10.112,1,0.44477,0.18555,0.68627,0.68945
10.12,1,0.45943,0.125,0.68627,0.70508
10.128,1,0.47312,0.16016,0.67647,0.64453
10.136,1,0.48387,0.32422,0.57059,0.47461
10.144,1,0.49365,0.61914,0.3549,0.20117
10.152,1,0.50342,0.875,0.12353,-0.0097656
10.16,1,0.51222,0.90039,0.07451,0.16602
10.168,1,0.52004,0.43945,0.26471,0.61914
10.176,1,0.52688,0.14062,0.4549,0.83398
10.184,1,0.53177,0.070312,0.6,0.84961
10.192,1,0.53763,0.085938,0.68039,0.79492
10.2,1,0.54252,0.11133,0.72157,0.76953
10.208,1,0.54741,0.13086,0.73529,0.75391
10.216,1,0.5523,0.125,0.74118,0.75
10.224,1,0.55523,0.13477,0.74118,0.75391
10.232,1,0.55718,0.125,0.7549,0.74414
10.24,1,0.55816,0.13086,0.75098,0.75391
10.248,1,0.55914,0.14062,0.74118,0.74414
10.256,1,0.55816,0.13086,0.7451,0.75391
10.264,1,0.55523,0.14453,0.74118,0.73438
10.272,1,0.55132,0.14062,0.7451,0.74023
10.28,1,0.54545,0.14453,0.73529,0.75
10.288,1,0.53861,0.13477,0.74118,0.74414
10.296,1,0.53177,0.13477,0.74118,0.75391
10.304,1,0.52493,0.13086,0.73529,0.75
10.312,1,0.51808,0.14062,0.73529,0.74414
10.32,1,0.51124,0.13086,0.73529,0.75391
10.328,1,0.5044,0.13477,0.73137,0.75
10.336,1,0.49853,0.13086,0.73137,0.75391
10.344,1,0.49169,0.13477,0.73529,0.75391
10.352,1,0.48485,0.125,0.73529,0.76562
10.36,1,0.47801,0.12109,0.73137,0.76953
10.368,1,0.47019,0.13086,0.72549,0.76562
10.376,1,0.46237,0.14062,0.72549,0.77539
10.384,1,0.45455,0.15039,0.72157,0.76562
10.392,1,0.4477,0.16992,0.7098,0.75391
10.4,1,0.44086,0.17969,0.7,0.75
10.408,1,0.43402,0.19531,0.6902,0.73438
10.416,1,0.42815,0.20508,0.68039,0.72461
10.424,1,0.42229,0.21484,0.66471,0.71484
10.432,1,0.41838,0.2207,0.66471,0.69922
10.44,1,0.41447,0.2207,0.6549,0.68945
10.448,1,0.40958,0.22461,0.65098,0.67969
10.456,1,0.40469,0.22461,0.65098,0.66406
10.464,1,0.3998,0.21484,0.6549,0.66016
10.472,1,0.39589,0.21094,0.66078,0.66406
10.48,1,0.39198,0.21484,0.66471,0.66016
10.488,1,0.38807,0.20117,0.67647,0.66992
10.496,1,0.38319,0.20117,0.68627,0.67578
10.504,1,0.37732,0.20117,0.68627,0.67578
10.512,1,0.37146,0.19531,0.6902,0.67578
10.52,1,0.36657,0.19531,0.6902,0.67969
10.528,1,0.36168,0.18945,0.69608,0.68555
10.536,1,0.35679,0.18555,0.69608,0.67969
10.544,1,0.35288,0.18555,0.69608,0.68555
10.552,1,0.348,0.19531,0.6902,0.67969
10.56,1,0.34311,0.18945,0.7,0.68555
10.568,1,0.33822,0.21094,0.70588,0.66406
10.576,1,0.33529,0.22461,0.70588,0.65039
10.584,1,0.33333,0.24023,0.7098,0.63477
10.592,1,0.33138,0.25,0.70588,0.625
10.6,1,0.32942,0.25586,0.7098,0.62891
10.608,1,0.32747,0.24609,0.7,0.63477
10.616,1,0.32649,0.25586,0.69608,0.62891
10.624,1,0.32454,0.23047,0.68039,0.6543
10.632,1,0.32356,0.20508,0.68039,0.67578
10.64,1,0.32356,0.20117,0.68627,0.68555
10.648,1,0.32454,0.18555,0.68627,0.69531
10.656,1,0.32747,0.17969,0.68039,0.69922
10.664,1,0.33333,0.16992,0.68039,0.70898
10.672,1,0.34115,0.16016,0.68039,0.71484
10.68,1,0.35191,0.16016,0.68039,0.70898
10.688,1,0.36559,0.15625,0.68039,0.7207
10.696,1,0.38123,0.16992,0.68039,0.71484
10.704,1,0.39687,0.16016,0.68039,0.72461
10.712,1,0.41447,0.16602,0.67647,0.7207
10.72,1,0.43109,0.14062,0.68627,0.73047
10.728,1,0.44575,0.099609,0.68627,0.73047
10.736,1,0.45846,0.14062,0.67059,0.66406
10.744,1,0.47116,0.3457,0.53922,0.48047
10.752,1,0.48485,0.63477,0.3098,0.20508
10.76,1,0.49756,0.86523,0.088235,0.041016
10.768,1,0.51026,0.75,0.052941,0.26562
10.776,1,0.52102,0.37109,0.28431,0.70508
10.784,1,0.53079,0.099609,0.47059,0.86914
10.792,1,0.53959,0.060547,0.61961,0.83984
10.8,1,0.54643,0.076172,0.69608,0.81055
10.808,1,0.5523,0.080078,0.73137,0.79883
10.816,1,0.55718,0.089844,0.7451,0.79492
10.824,1,0.56012,0.085938,0.75098,0.78906
10.832,1,0.56305,0.089844,0.7549,0.78516
10.84,1,0.565,0.085938,0.75098,0.78906
10.848,1,0.56794,0.099609,0.75098,0.78516
10.856,1,0.56989,0.099609,0.7451,0.7793
10.864,1,0.57087,0.11133,0.7451,0.7793
10.872,1,0.56989,0.10547,0.74118,0.77539
10.88,1,0.56891,0.10547,0.74118,0.78516
10.888,1,0.56598,0.099609,0.73529,0.78516
10.896,1,0.56207,0.10547,0.73529,0.7793
10.904,1,0.55718,0.099609,0.73529,0.78906
10.912,1,0.5523,0.10547,0.73529,0.7793
10.92,1,0.54545,0.10547,0.73529,0.78516
10.928,1,0.53959,0.099609,0.73137,0.78906
10.936,1,0.53275,0.095703,0.72549,0.79492
10.944,1,0.5259,0.099609,0.73529,0.79492
10.952,1,0.51808,0.099609,0.73137,0.79883
10.96,1,0.50831,0.10547,0.73529,0.79883
10.968,1,0.49853,0.10547,0.73137,0.79883
10.976,1,0.48876,0.10547,0.73137,0.81055
10.984,1,0.47898,0.11133,0.73137,0.80469
10.992,1,0.47116,0.12109,0.72549,0.81055
11,1,0.46334,0.13086,0.7098,0.79883
11.008,1,0.45748,0.14062,0.7098,0.79492
11.016,1,0.45161,0.15625,0.69608,0.78516
11.024,1,0.44673,0.16602,0.68627,0.76953
11.032,1,0.44086,0.17969,0.67647,0.75391
11.04,1,0.43597,0.18555,0.66471,0.74414
11.048,0.99902,0.43109,0.19531,0.6549,0.73047
11.056,0.99804,0.42522,0.18945,0.65098,0.70898
11.064,0.97361,0.42033,0.19531,0.6451,0.70508
11.072,0.95015,0.41544,0.18945,0.6451,0.69922
11.08,0.92278,0.41056,0.18555,0.6549,0.69531
11.088,0.89443,0.40567,0.17578,0.6549,0.69922
11.096,0.86804,0.40078,0.17969,0.66078,0.69922
11.104,0.84164,0.39589,0.17578,0.66471,0.69531
11.112,0.81525,0.39101,0.18555,0.67059,0.69531
11.12,0.78886,0.3871,0.18555,0.67647,0.70508
11.128,0.75855,0.38416,0.18945,0.68039,0.69922
11.136,0.72923,0.38123,0.18555,0.68039,0.69922
11.144,0.69599,0.37732,0.18555,0.68627,0.69922
11.152,0.66276,0.37341,0.17969,0.68039,0.70508
11.16,0.63148,0.3695,0.17969,0.68627,0.70508
11.168,0.6002,0.36461,0.17578,0.68039,0.69922
11.176,0.56989,0.36168,0.18945,0.6902,0.69531
11.184,0.53959,0.35777,0.20117,0.69608,0.68555
11.192,0.50635,0.35386,0.21094,0.7,0.66992
11.2,0.47312,0.34995,0.22461,0.7,0.6543
11.208,0.43597,0.34604,0.23047,0.69608,0.65039
11.216,0.3998,0.34311,0.23438,0.7,0.65039
11.224,0.36168,0.34018,0.23047,0.70588,0.65039
11.232,0.32356,0.3392,0.24023,0.69608,0.64453
11.24,0.28543,0.3392,0.22461,0.67647,0.66016
11.248,0.24633,0.3392,0.20117,0.66471,0.68555
11.256,0.21212,0.34311,0.17969,0.66471,0.70508
11.264,0.17791,0.34897,0.17969,0.67059,0.70898
11.272,0.14761,0.35777,0.17578,0.66471,0.70898
11.28,0.11632,0.3695,0.16992,0.66471,0.70898
11.288,0.084066,0.38319,0.16602,0.66471,0.71484
11.296,0.051808,0.39883,0.16016,0.66471,0.7207
11.304,0.025415,0.41544,0.16016,0.66471,0.73047
11.312,0,0.43402,0.16016,0.66471,0.72461
11.32,0,0.45161,0.16602,0.66471,0.7207
11.328,0,0.46628,0.16602,0.66471,0.72461
11.336,0,0.47898,0.15625,0.66471,0.73047
11.344,0,0.49169,0.125,0.66471,0.73438
11.352,0,0.50538,0.11523,0.66078,0.67969
11.36,0,0.51808,0.31055,0.52941,0.5
11.368,0,0.53079,0.56445,0.3,0.21484
11.376,0,0.54154,0.83398,0.033333,-0.025391
11.384,0,0.5523,0.84375,-0.027451,0.14453
11.392,0,0.56207,0.45508,0.18824,0.61523
11.4,0,0.57087,0.17969,0.39412,0.82422
11.408,0,0.57869,0.125,0.56078,0.83008
11.416,0,0.58553,0.13086,0.67059,0.79883
11.424,0,0.59042,0.10547,0.7098,0.79883
11.432,0,0.59433,0.10547,0.73137,0.79883
11.44,0,0.59726,0.099609,0.74118,0.79883
11.448,0,0.6002,0.10547,0.7451,0.79492
11.456,0,0.60313,0.10547,0.7451,0.79492
11.464,0,0.60508,0.11133,0.7451,0.79492
11.472,0,0.60606,0.11523,0.74118,0.78906
11.48,0,0.60508,0.125,0.74118,0.78516
11.488,0,0.60313,0.12109,0.73529,0.7793
11.496,0,0.6002,0.12109,0.73529,0.78516
11.504,0,0.59629,0.125,0.73529,0.7793
11.512,0,0.59922,0.13086,0.73529,0.7793
11.52,0,0.60508,0.13086,0.73529,0.7793
11.528,0,0.60508,0.13086,0.73529,0.78516
11.536,0,0.60117,0.125,0.73137,0.78516
11.544,0,0.59531,0.13086,0.73529,0.78516
11.552,0,0.58847,0.12109,0.72549,0.78906
11.56,0,0.58065,0.125,0.72549,0.79492
11.568,0,0.57283,0.12109,0.73137,0.79492
11.576,0,0.565,0.12109,0.73529,0.79883
11.584,0,0.55621,0.125,0.73137,0.79883
11.592,0,0.54839,0.12109,0.73529,0.81445
11.6,0,0.53959,0.13086,0.73137,0.81055
11.608,0,0.53079,0.13477,0.73137,0.81445
11.616,0,0.52102,0.15039,0.72157,0.80469
11.624,0,0.5132,0.15625,0.7098,0.79492
11.632,0,0.50538,0.17578,0.7,0.7793
11.64,0,0.49951,0.18555,0.6902,0.76953
11.648,0,0.49169,0.19531,0.68039,0.75391
11.656,0,0.48485,0.20117,0.66471,0.73438
11.664,0,0.47801,0.21094,0.66078,0.7207
11.672,0,0.47312,0.21094,0.65098,0.70508
11.68,0,0.46725,0.2207,0.6451,0.68945
11.688,0,0.46334,0.21094,0.6451,0.68555
11.696,0,0.45943,0.21484,0.6451,0.67969
11.704,0,0.4565,0.20117,0.6451,0.67969
11.712,0,0.45357,0.20508,0.65098,0.67578
11.72,0,0.44966,0.20117,0.66078,0.68555
11.728,0,0.44575,0.20117,0.66471,0.67969
11.736,0,0.44184,0.20117,0.66078,0.68555
11.744,0,0.43695,0.20117,0.66471,0.68555
11.752,0,0.43109,0.20117,0.66471,0.68555
11.76,0,0.42522,0.20117,0.66471,0.67969
11.768,0,0.42033,0.18945,0.66471,0.68555
11.776,0,0.41544,0.18945,0.67059,0.68555
11.784,0,0.41056,0.18945,0.67059,0.68555
11.792,0,0.40665,0.19531,0.67059,0.67969
11.8,0,0.40176,0.19531,0.68039,0.67969
11.808,0,0.39687,0.20508,0.6902,0.66992
11.816,0,0.39394,0.2207,0.6902,0.6543
11.824,0,0.39101,0.23438,0.6902,0.64062
11.832,0,0.39003,0.24609,0.6902,0.63477
11.84,0,0.39003,0.24609,0.69608,0.64062
11.848,0,0.39101,0.23438,0.7,0.64453
11.856,0,0.39296,0.23047,0.68627,0.64062
11.864,0,0.39589,0.24023,0.66471,0.6543
11.872,0,0.3998,0.20117,0.66078,0.68555
11.88,0,0.40567,0.18555,0.66471,0.69922
11.888,0,0.41447,0.17578,0.66471,0.70508
11.896,0,0.4262,0.18555,0.66078,0.69922
11.904,0,0.44086,0.17578,0.66078,0.70898
11.912,0,0.4565,0.17578,0.66078,0.70898
11.92,0,0.4741,0.16602,0.66078,0.7207
11.928,0,0.48974,0.16992,0.66078,0.71484
11.936,0,0.50342,0.16602,0.66078,0.71484
11.944,0,0.51906,0.16992,0.66078,0.71484
11.952,0,0.5347,0.16602,0.66078,0.71484
11.96,0,0.55034,0.16016,0.66078,0.71484
11.968,0,0.565,0.125,0.66078,0.72461
11.976,0,0.57967,0.16016,0.6451,0.65039
11.984,0,0.59238,0.33008,0.5,0.46094
11.992,0,0.60508,0.59961,0.23922,0.14062
12,0,0.61584,0.82031,-0.021569,-0.064453
12.008,0,0.62463,0.73438,-0.060784,0.17969
12.016,0,0.63245,0.40039,0.20392,0.66016
12.024,0,0.6393,0.15039,0.40392,0.83008
12.032,0,0.64321,0.13086,0.57451,0.79883
12.04,0,0.64712,0.125,0.67647,0.79492
12.048,0,0.652,0.11523,0.71569,0.78906
12.056,0,0.65494,0.10547,0.73529,0.79883
12.064,0,0.65885,0.11133,0.73529,0.78906
12.072,0,0.66178,0.10547,0.74118,0.79492
12.08,0,0.66471,0.11133,0.73529,0.78516
12.088,0,0.66569,0.11523,0.74118,0.7793
12.096,0,0.66667,0.11523,0.73529,0.78516
12.104,0,0.66471,0.10547,0.74118,0.78906
12.112,0,0.66276,0.11523,0.74118,0.7793
12.12,0,0.65885,0.11523,0.7451,0.7793
12.128,0,0.65494,0.125,0.74118,0.7793
12.136,0,0.64907,0.11523,0.7451,0.7793
12.144,0,0.64321,0.125,0.74118,0.7793
12.152,0,0.63539,0.12109,0.74118,0.7793
12.16,0,0.62561,0.12109,0.7451,0.7793
12.168,0,0.61584,0.125,0.74118,0.78516
12.176,0,0.60606,0.11523,0.7451,0.78906
12.184,0,0.59726,0.12109,0.7451,0.78516
12.192,0,0.58847,0.11133,0.74118,0.79492
12.2,0,0.57967,0.10547,0.73529,0.79883
12.208,0,0.57185,0.11133,0.74118,0.80469
12.216,0,0.56403,0.11523,0.74118,0.81055
12.224,0,0.55816,0.11133,0.7451,0.81445
12.232,0,0.5523,0.125,0.74118,0.81055
12.24,0,0.54545,0.13086,0.73529,0.80469
12.248,0,0.53666,0.15039,0.72549,0.79883
12.256,0,0.52786,0.15625,0.71569,0.79492
12.264,0,0.52004,0.16992,0.7,0.7793
12.272,0,0.5132,0.16992,0.6902,0.76953
12.28,0,0.50733,0.18945,0.68039,0.74414
12.288,0,0.50147,0.18945,0.66471,0.73047
12.296,0,0.49658,0.19531,0.66078,0.70898
12.304,0,0.49071,0.19531,0.6549,0.69922
12.312,0,0.48583,0.19531,0.65098,0.68945
12.32,0,0.48094,0.18945,0.65098,0.68555
12.328,0,0.47703,0.18945,0.66078,0.67969
12.336,0,0.47312,0.18945,0.66471,0.68555
12.344,0,0.46823,0.18945,0.66471,0.68555
12.352,0,0.46432,0.18555,0.66471,0.68555
12.36,0,0.46041,0.18555,0.67647,0.68555
12.368,0,0.4565,0.17578,0.68039,0.68555
12.376,0,0.45259,0.18555,0.68627,0.68555
12.384,0,0.44868,0.17578,0.68627,0.68945
12.392,0,0.44282,0.17578,0.68039,0.68555
12.4,0,0.43793,0.18945,0.68627,0.67969
12.408,0,0.43304,0.20117,0.69608,0.66992
12.416,0,0.42717,0.21094,0.70588,0.66016
12.424,0,0.42326,0.22461,0.7098,0.64453
12.432,0,0.41935,0.24023,0.7098,0.63477
12.44,0,0.41447,0.23438,0.71569,0.62891
12.448,0,0.41056,0.2207,0.7098,0.64062
12.456,0,0.4086,0.22461,0.7098,0.63477
12.464,0,0.40567,0.21484,0.68627,0.6543
12.472,0,0.40469,0.18945,0.67059,0.67578
12.48,0,0.40469,0.17578,0.68039,0.69531
12.488,0,0.40665,0.16602,0.67647,0.70508
12.496,0,0.41153,0.17578,0.67647,0.70898
12.504,0,0.41838,0.15625,0.67647,0.71484
12.512,0,0.42717,0.15625,0.67059,0.71484
12.52,0,0.43891,0.15039,0.67059,0.7207
12.528,0,0.45161,0.15039,0.67059,0.7207
12.536,0,0.46432,0.14453,0.67059,0.7207
12.544,0,0.47996,0.15039,0.67059,0.70898
12.552,0,0.49658,0.15039,0.67059,0.7207
12.56,0,0.5132,0.15039,0.67647,0.7207
12.568,0,0.52981,0.12109,0.67647,0.72461
12.576,0,0.54643,0.10547,0.66471,0.67969
12.584,0,0.56207,0.24023,0.57059,0.53516
12.592,0,0.57771,0.49023,0.33529,0.24023
12.6,0,0.5914,0.75,0.04902,-0.044922
12.608,0,0.60411,0.80469,-0.031373,-0.054688
12.616,0,0.61584,0.47461,0.16471,0.55469
12.624,0,0.62463,0.19531,0.38039,0.82422
12.632,0,0.63245,0.11523,0.5451,0.84375
12.64,0,0.64125,0.13086,0.67059,0.79883
12.648,0,0.65103,0.11133,0.71569,0.78906
12.656,0,0.65885,0.095703,0.74118,0.79883
12.664,0,0.66471,0.095703,0.76078,0.79492
12.672,0,0.67058,0.099609,0.76078,0.79492
12.68,0,0.67546,0.095703,0.76078,0.79883
12.688,0,0.6784,0.099609,0.76078,0.79492
12.696,0,0.68035,0.10547,0.76078,0.78906
12.704,0,0.68133,0.099609,0.76078,0.78516
12.712,0,0.68035,0.10547,0.76078,0.78906
12.72,0,0.67937,0.099609,0.76078,0.78516
12.728,0,0.67742,0.10547,0.76078,0.78906
12.736,0,0.67351,0.10547,0.7549,0.78516
12.744,0,0.6696,0.10547,0.7549,0.78906
12.752,0,0.66373,0.11133,0.75098,0.7793
12.76,0,0.65787,0.10547,0.7451,0.79492
12.768,0,0.65103,0.11133,0.7549,0.78516
12.776,0,0.64223,0.10547,0.76078,0.78906
12.784,0,0.63343,0.10547,0.76078,0.78516
12.792,0,0.62366,0.10547,0.7549,0.79883
12.8,0,0.61486,0.10547,0.7549,0.80469
12.808,0,0.60606,0.10547,0.7549,0.81055
12.816,0,0.59726,0.10547,0.76078,0.81445
12.824,0,0.58944,0.10547,0.76078,0.82031
12.832,0,0.58162,0.11523,0.7549,0.82422
12.84,0,0.5738,0.125,0.75098,0.81445
12.848,0,0.56696,0.13086,0.74118,0.81055
12.856,0,0.56012,0.14453,0.73529,0.79883
12.864,0,0.55327,0.16992,0.7098,0.77539
12.872,0,0.54545,0.17578,0.7098,0.76562
12.88,0,0.53763,0.18555,0.6902,0.74023
12.888,0,0.53079,0.18945,0.68039,0.72461
12.896,0,0.52395,0.19531,0.67059,0.70508
12.904,0,0.51711,0.17969,0.66471,0.69922
12.912,0,0.51222,0.18555,0.66078,0.67969
12.92,0,0.50733,0.19531,0.66471,0.67578
12.928,0,0.50342,0.19531,0.66471,0.67578
12.936,0,0.49951,0.18945,0.66471,0.67578
12.944,0,0.4956,0.18555,0.67647,0.67969
12.952,0,0.49071,0.17969,0.68039,0.68555
12.96,0,0.48485,0.18945,0.68627,0.67969
12.968,0,0.47996,0.19531,0.68627,0.67578
12.976,0,0.4741,0.18555,0.6902,0.67969
12.984,0,0.46921,0.18945,0.6902,0.66992
12.992,0,0.46432,0.17969,0.68627,0.67969
13,0,0.46041,0.18555,0.6902,0.67578
13.008,0,0.4565,0.19531,0.7,0.66992
13.016,0,0.45357,0.20117,0.7098,0.66016
13.024,0,0.45064,0.2207,0.7098,0.64062
13.032,0,0.44868,0.23047,0.71569,0.63477
13.04,0,0.44477,0.23438,0.7098,0.62891
13.048,0,0.44086,0.24609,0.7098,0.625
13.056,0,0.43695,0.23438,0.7098,0.625
13.064,0,0.43206,0.2207,0.6902,0.64453
13.072,0,0.42717,0.20117,0.67647,0.66406
13.08,0,0.42424,0.18945,0.68039,0.68555
13.088,0,0.42326,0.17578,0.68627,0.69531
13.096,0,0.4262,0.17578,0.68627,0.69922
13.104,0,0.43109,0.16602,0.68039,0.70898
13.112,0,0.43891,0.16016,0.67647,0.70898
13.12,0,0.44966,0.16602,0.68039,0.70898
13.128,0,0.46139,0.16016,0.67647,0.70898
13.136,0,0.47312,0.15625,0.67647,0.70898
13.144,0,0.48876,0.16602,0.67647,0.70508
13.152,0,0.50538,0.15625,0.67647,0.70898
13.16,0,0.52199,0.15625,0.67059,0.70898
13.168,0,0.53861,0.14453,0.67647,0.71484
13.176,0,0.55523,0.10547,0.67059,0.7207
13.184,0,0.57087,0.18945,0.61569,0.58398
13.192,0,0.58553,0.40039,0.41961,0.3457
13.2,0,0.6002,0.67578,0.12941,0.0097656
13.208,0,0.6129,0.79883,-0.047059,-0.074219
13.216,0,0.62366,0.60547,0.084314,0.375
13.224,0,0.63245,0.29492,0.31961,0.75977
13.232,0,0.6393,0.125,0.4902,0.82422
13.24,0,0.64614,0.13477,0.63529,0.78906
13.248,0,0.652,0.13086,0.7098,0.7793
13.256,0,0.65885,0.11523,0.74118,0.7793
13.264,0,0.66471,0.11133,0.7549,0.7793
13.272,0,0.6696,0.10547,0.76078,0.78906
13.28,0,0.67253,0.11133,0.76078,0.7793
13.288,0,0.67546,0.11523,0.76078,0.7793
13.296,0,0.67742,0.11523,0.76078,0.7793
13.304,0,0.6784,0.11523,0.7549,0.7793
13.312,0,0.6784,0.13086,0.7549,0.76953
13.32,0,0.67742,0.12109,0.7549,0.76953
13.328,0,0.67546,0.125,0.7549,0.77539
13.336,0,0.67253,0.12109,0.75098,0.77539
13.344,0,0.6696,0.13086,0.7549,0.76953
13.352,0,0.66569,0.125,0.75098,0.7793
13.36,0,0.66178,0.125,0.7549,0.7793
13.368,0,0.65689,0.12109,0.75098,0.78516
13.376,0,0.65103,0.125,0.7451,0.7793
13.384,0,0.64321,0.13086,0.75098,0.7793
13.392,0,0.63343,0.12109,0.7451,0.78516
13.4,0,0.62366,0.11133,0.75098,0.79883
13.408,0,0.6129,0.11523,0.75098,0.79492
13.416,0,0.60313,0.12109,0.75098,0.80469
13.424,0,0.59433,0.125,0.7549,0.80469
13.432,0,0.58651,0.13477,0.7451,0.79883
13.44,0,0.57869,0.13477,0.7451,0.80469
13.448,0,0.57087,0.15039,0.73529,0.79883
13.456,0,0.56403,0.15625,0.72549,0.78516
13.464,0,0.55718,0.17578,0.7098,0.77539
13.472,0,0.55034,0.17969,0.7,0.76562
13.48,0,0.5435,0.19531,0.6902,0.73047
13.488,0,0.53666,0.19531,0.68039,0.7207
13.496,0,0.52981,0.20117,0.66471,0.69922
13.504,0,0.52297,0.20117,0.66078,0.68555
13.512,0,0.51711,0.21094,0.6549,0.66992
13.52,0,0.51124,0.20117,0.6549,0.66406
13.528,0,0.50538,0.21484,0.66078,0.66016
13.536,0,0.50049,0.20508,0.66078,0.66016
13.544,0,0.49462,0.20117,0.66471,0.67578
13.552,0.00097752,0.48876,0.20117,0.67059,0.67578
13.56,0.0029325,0.47507,0.20508,0.68039,0.66016
13.568,0.0048876,0.45748,0.20117,0.68039,0.66992
13.576,0.0068426,0.4477,0.20117,0.6902,0.66992
13.584,0.0087977,0.44184,0.18945,0.6902,0.67578
13.592,0.010753,0.43695,0.19531,0.6902,0.67969
13.6,0.012708,0.43304,0.19531,0.6902,0.66992
13.608,0.014663,0.43011,0.20117,0.69608,0.66016
13.616,0.01564,0.4262,0.21484,0.7,0.66406
13.624,0.017595,0.42424,0.22461,0.7098,0.64453
13.632,0.01955,0.42131,0.24023,0.7098,0.625
13.64,0.021505,0.41838,0.24609,0.7098,0.61914
13.648,0.02346,0.41544,0.24609,0.7098,0.61914
13.656,0.026393,0.41251,0.24023,0.7098,0.625
13.664,0.029326,0.40958,0.24609,0.7,0.61914
13.672,0.032258,0.40762,0.2207,0.68039,0.64453
13.68,0.035191,0.40665,0.20508,0.66471,0.66016
13.688,0.038123,0.40665,0.18945,0.67059,0.68555
13.696,0.041056,0.40762,0.18945,0.67647,0.68555
13.704,0.044966,0.41153,0.17969,0.67647,0.69531
13.712,0.048876,0.4174,0.17578,0.67059,0.69922
13.72,0.052786,0.4262,0.16016,0.67059,0.70898
13.728,0.056696,0.43597,0.16992,0.67059,0.70508
13.736,0.060606,0.4477,0.16992,0.66471,0.70508
13.744,0.064516,0.46237,0.17578,0.66471,0.70898
13.752,0.068426,0.47898,0.16992,0.66471,0.70508
13.76,0.072336,0.49462,0.16992,0.66471,0.70508
13.768,0.076246,0.51026,0.15625,0.66471,0.70898
13.776,0.080156,0.5259,0.14062,0.67059,0.70898
13.784,0.084066,0.54057,0.12109,0.66078,0.68945
13.792,0.087977,0.55425,0.24023,0.56471,0.53516
13.8,0.091887,0.56696,0.46094,0.34902,0.25586
13.808,0.095797,0.57869,0.73438,0.058824,-0.058594
13.816,0.099707,0.58944,0.80469,-0.047059,-0.089844
13.824,0.10362,0.59824,0.51562,0.13922,0.5
13.832,0.10753,0.60606,0.22461,0.36471,0.80469
13.84,0.11144,0.61388,0.13086,0.52549,0.83008
13.848,0.11535,0.6217,0.14453,0.6549,0.78516
13.856,0.11828,0.62854,0.13477,0.71569,0.7793
13.864,0.12121,0.63441,0.125,0.73529,0.7793
13.872,0.12414,0.6393,0.11523,0.7451,0.78516
13.88,0.12708,0.64223,0.12109,0.7549,0.7793
13.888,0.12903,0.64516,0.125,0.75098,0.7793
13.896,0.13196,0.64614,0.12109,0.7549,0.77539
13.904,0.13392,0.64614,0.12109,0.7549,0.77539
13.912,0.13587,0.64516,0.13086,0.75098,0.76953
13.92,0.13783,0.64418,0.13086,0.7549,0.77539
13.928,0.13978,0.64223,0.125,0.75098,0.77539
13.936,0.14076,0.64027,0.13086,0.7549,0.7793
13.944,0.14272,0.63734,0.14062,0.7549,0.76562
13.952,0.14565,0.63343,0.13086,0.7549,0.7793
13.96,0.14761,0.62952,0.13477,0.7549,0.76953
13.968,0.14956,0.62366,0.13477,0.7549,0.77539
13.976,0.15152,0.61681,0.13086,0.76078,0.7793
13.984,0.15347,0.60899,0.125,0.7549,0.7793
13.992,0.15543,0.6002,0.125,0.75098,0.78906
14,0.1564,0.59042,0.13086,0.7549,0.78516
14.008,0.15836,0.58162,0.125,0.7549,0.79492
14.016,0.16031,0.5738,0.13086,0.7549,0.79883
14.024,0.16227,0.56696,0.13086,0.7549,0.79883
14.032,0.16422,0.56109,0.13477,0.7549,0.81055
14.04,0.16618,0.55523,0.13477,0.76078,0.80469
14.048,0.16813,0.54741,0.15039,0.7549,0.79883
14.056,0.17009,0.54057,0.15625,0.74118,0.79492
14.064,0.17204,0.53275,0.16992,0.73529,0.78516
14.072,0.174,0.5259,0.18555,0.72549,0.77539
14.08,0.17498,0.51906,0.19531,0.70588,0.75
14.088,0.17693,0.51222,0.20117,0.6902,0.73047
14.096,0.17791,0.50635,0.20508,0.68039,0.70898
14.104,0.17889,0.49951,0.21094,0.66471,0.68945
14.112,0.17986,0.49365,0.2207,0.66078,0.66992
14.12,0.17986,0.48778,0.21484,0.66078,0.66016
14.128,0.18084,0.48387,0.2207,0.6549,0.6543
14.136,0.18084,0.47898,0.21094,0.66471,0.66016
14.144,0.18182,0.47605,0.20508,0.66471,0.66016
14.152,0.18182,0.47214,0.20508,0.66471,0.66992
14.16,0.18182,0.46921,0.20508,0.67647,0.66992
14.168,0.18182,0.4653,0.20117,0.68039,0.67578
14.176,0.18182,0.46139,0.20508,0.68627,0.66992
14.184,0.18084,0.45748,0.21094,0.6902,0.66992
14.192,0.17986,0.45259,0.20117,0.6902,0.67578
14.2,0.17986,0.4477,0.20117,0.6902,0.66406
14.208,0.17889,0.44282,0.20117,0.68627,0.66992
14.216,0.17889,0.43793,0.21484,0.6902,0.66016
14.224,0.17791,0.43402,0.23047,0.7,0.65039
14.232,0.17791,0.43206,0.23438,0.7098,0.64062
14.24,0.17791,0.42913,0.24609,0.70588,0.625
14.248,0.17791,0.4262,0.26562,0.69608,0.61523
14.256,0.17791,0.42326,0.25977,0.70588,0.61523
14.264,0.17791,0.42033,0.25586,0.7098,0.625
14.272,0.17791,0.4174,0.25,0.69608,0.61523
14.28,0.17791,0.41544,0.24023,0.67059,0.62891
14.288,0.17791,0.41447,0.21484,0.66078,0.6543
14.296,0.17791,0.41447,0.21094,0.66471,0.66992
14.304,0.17791,0.41642,0.20117,0.66471,0.68555
14.312,0.17791,0.42033,0.20117,0.66471,0.68555
14.32,0.17791,0.42522,0.17969,0.66471,0.69531
14.328,0.17791,0.43304,0.17578,0.66471,0.70508
14.336,0.17791,0.44379,0.17578,0.66078,0.69922
14.344,0.17791,0.45748,0.17969,0.66471,0.69531
14.352,0.17791,0.47214,0.17578,0.66471,0.68945
14.36,0.17791,0.48778,0.16992,0.66471,0.70508
14.368,0.17889,0.50342,0.17578,0.66471,0.69922
14.376,0.17986,0.51906,0.17578,0.66471,0.69922
14.384,0.18084,0.5347,0.15039,0.67059,0.70898
14.392,0.18182,0.55132,0.125,0.66078,0.68555
14.4,0.1828,0.56598,0.22461,0.58039,0.54492
14.408,0.1828,0.57967,0.44531,0.37059,0.27539
14.416,0.18377,0.59238,0.7207,0.07451,-0.054688
14.424,0.18377,0.60215,0.79492,-0.047059,-0.10352
14.432,0.18475,0.60997,0.52539,0.12941,0.47461
14.44,0.18573,0.61681,0.23438,0.35882,0.79492
14.448,0.18768,0.62268,0.13477,0.51961,0.82422
14.456,0.18866,0.62757,0.15039,0.65098,0.78516
14.464,0.18964,0.63343,0.14062,0.71569,0.77539
14.472,0.19062,0.63832,0.13086,0.73529,0.7793
14.48,0.19257,0.64321,0.125,0.7451,0.7793
14.488,0.19257,0.64809,0.12109,0.7549,0.7793
14.496,0.19355,0.652,0.13086,0.76078,0.77539
14.504,0.19453,0.65494,0.125,0.76078,0.7793
14.512,0.1955,0.65591,0.13086,0.76078,0.7793
14.52,0.1955,0.65591,0.13477,0.7549,0.7793
14.528,0.1955,0.65396,0.13086,0.7549,0.76953
14.536,0.1955,0.65103,0.13477,0.7549,0.7793
14.544,0.1955,0.64712,0.14062,0.75098,0.77539
14.552,0.1955,0.64223,0.14062,0.7549,0.76953
14.56,0.1955,0.63636,0.13086,0.75098,0.77539
14.568,0.1955,0.62952,0.13086,0.7549,0.77539
14.576,0.1955,0.62268,0.13086,0.75098,0.7793
14.584,0.19453,0.61584,0.13477,0.7549,0.7793
14.592,0.19355,0.60704,0.14062,0.75098,0.77539
14.6,0.19257,0.59824,0.13477,0.75098,0.7793
14.608,0.19159,0.58847,0.13086,0.7451,0.78906
14.616,0.19062,0.57967,0.13477,0.7451,0.79883
14.624,0.18964,0.57185,0.125,0.7451,0.79492
14.632,0.18866,0.56598,0.14062,0.75098,0.80469
14.64,0.18866,0.56012,0.125,0.7549,0.81445
14.648,0.18768,0.55523,0.14062,0.75098,0.81055
14.656,0.18768,0.55034,0.15039,0.75098,0.80469
14.664,0.18671,0.54545,0.16992,0.75098,0.79492
14.672,0.18671,0.53861,0.16992,0.73529,0.78516
14.68,0.18573,0.53177,0.18945,0.72157,0.76562
14.688,0.18573,0.5259,0.21094,0.70588,0.74023
14.696,0.18573,0.51906,0.20117,0.69608,0.73047
14.704,0.18573,0.51222,0.20508,0.68039,0.70898
14.712,0.18475,0.50635,0.2207,0.67059,0.68555
14.72,0.18475,0.50049,0.21484,0.66471,0.66992
14.728,0.18475,0.49658,0.21484,0.66078,0.66406
14.736,0.18475,0.49169,0.21094,0.66078,0.66016
14.744,0.18377,0.4868,0.21484,0.66471,0.66016
14.752,0.1828,0.48192,0.21094,0.66471,0.66016
14.76,0.18182,0.47898,0.2207,0.67059,0.66016
14.768,0.18084,0.47605,0.22461,0.67059,0.66016
14.776,0.17986,0.47214,0.2207,0.68039,0.66406
14.784,0.17986,0.46921,0.21094,0.68627,0.66406
14.792,0.17889,0.4653,0.21094,0.6902,0.66992
14.8,0.17791,0.46041,0.21484,0.68627,0.66406
14.808,0.17693,0.45552,0.21094,0.68627,0.66406
14.816,0.17693,0.45161,0.21484,0.68039,0.66016
14.824,0.17595,0.4477,0.22461,0.6902,0.65039
14.832,0.17498,0.44379,0.24023,0.69608,0.64453
14.84,0.174,0.43988,0.24023,0.70588,0.62891
14.848,0.17302,0.435,0.26562,0.70588,0.60547
14.856,0.17204,0.43109,0.26953,0.70588,0.60938
14.864,0.17204,0.42717,0.26562,0.7098,0.61523
14.872,0.17204,0.42424,0.25586,0.7098,0.61914
14.88,0.17204,0.42131,0.25977,0.6902,0.60938
14.888,0.17302,0.42033,0.23438,0.67059,0.63477
14.896,0.174,0.41935,0.22461,0.66471,0.66016
14.904,0.174,0.41935,0.21484,0.66471,0.66992
14.912,0.17498,0.42229,0.21094,0.67059,0.67578
14.92,0.17498,0.4262,0.20508,0.66471,0.67578
14.928,0.17595,0.43206,0.20117,0.67059,0.67969
14.936,0.17595,0.44086,0.18555,0.66471,0.68555
14.944,0.17693,0.45259,0.18945,0.66471,0.68945
14.952,0.17693,0.46628,0.18555,0.66471,0.68555
14.96,0.17693,0.48192,0.19531,0.66471,0.68945
14.968,0.17791,0.49658,0.18945,0.66471,0.68555
14.976,0.17889,0.51222,0.20117,0.66471,0.68555
14.984,0.17986,0.52688,0.17969,0.66471,0.68945
14.992,0.18084,0.54154,0.15039,0.66078,0.69922
15,0.18182,0.55425,0.13477,0.66471,0.65039
15.008,0.18377,0.56696,0.29492,0.52549,0.4707
15.016,0.18475,0.57967,0.5293,0.27843,0.15039
15.024,0.18671,0.58944,0.77539,0.0039216,-0.099609
15.032,0.18768,0.59922,0.79883,-0.056863,0.11133
15.04,0.18964,0.60899,0.42969,0.2098,0.61523
15.048,0.19062,0.61877,0.17578,0.4098,0.82422
15.056,0.19257,0.62757,0.13086,0.57059,0.78906
15.064,0.19355,0.63539,0.16992,0.67647,0.77539
15.072,0.1955,0.64125,0.14062,0.73137,0.77539
15.08,0.19648,0.64614,0.13477,0.74118,0.76953
15.088,0.19844,0.65005,0.13086,0.75098,0.77539
15.096,0.19941,0.65298,0.13477,0.7549,0.7793
15.104,0.20137,0.65494,0.125,0.7451,0.7793
15.112,0.20235,0.65591,0.13086,0.75098,0.7793
15.12,0.2043,0.65591,0.14062,0.7549,0.77539
15.128,0.20528,0.65396,0.13477,0.75098,0.76953
15.136,0.20723,0.65103,0.14453,0.7549,0.76562
15.144,0.20821,0.64712,0.14062,0.7549,0.76562
15.152,0.20919,0.64223,0.14453,0.7549,0.76953
15.16,0.21017,0.63734,0.15039,0.75098,0.76562
15.168,0.21212,0.63343,0.14453,0.7549,0.76953
15.176,0.2131,0.62757,0.14453,0.75098,0.76562
15.184,0.21408,0.62268,0.13477,0.75098,0.77539
15.192,0.21505,0.61584,0.14062,0.75098,0.7793
15.2,0.21603,0.60997,0.14453,0.75098,0.7793
15.208,0.21701,0.60313,0.14453,0.75098,0.77539
15.216,0.21799,0.59531,0.14062,0.75098,0.7793
15.224,0.21896,0.58749,0.13477,0.76078,0.79492
15.232,0.21994,0.57967,0.14062,0.7549,0.78906
15.24,0.22092,0.57185,0.14062,0.76078,0.79883
15.248,0.2219,0.56403,0.16016,0.75098,0.78906
15.256,0.22287,0.55718,0.16602,0.7549,0.78516
15.264,0.22385,0.55034,0.15625,0.75098,0.79492
15.272,0.22483,0.5435,0.16992,0.74118,0.78906
15.28,0.22581,0.53568,0.18945,0.73137,0.77539
15.288,0.22581,0.52884,0.19531,0.72157,0.75391
15.296,0.22678,0.52199,0.20508,0.7098,0.74023
15.304,0.22776,0.51613,0.21094,0.6902,0.7207
15.312,0.22874,0.51124,0.21484,0.67647,0.69531
15.32,0.22874,0.50635,0.22461,0.66471,0.67969
15.328,0.22972,0.50342,0.22461,0.66078,0.66016
15.336,0.23069,0.49951,0.2207,0.6549,0.6543
15.344,0.23069,0.49658,0.22461,0.66078,0.65039
15.352,0.23069,0.49267,0.2207,0.66471,0.6543
15.36,0.23069,0.48876,0.21484,0.66471,0.66016
15.368,0.22972,0.48289,0.22461,0.67059,0.65039
15.376,0.22972,0.47801,0.21484,0.67647,0.66016
15.384,0.22874,0.47312,0.20117,0.68039,0.66992
15.392,0.22776,0.46921,0.21094,0.68627,0.66016
15.4,0.22678,0.4653,0.2207,0.6902,0.66016
15.408,0.22678,0.46237,0.21484,0.6902,0.6543
15.416,0.22581,0.45846,0.21484,0.6902,0.66016
15.424,0.22581,0.45552,0.2207,0.6902,0.6543
15.432,0.22483,0.45259,0.23047,0.69608,0.64453
15.44,0.22483,0.44868,0.24609,0.7,0.63477
15.448,0.22483,0.44477,0.26562,0.7,0.61523
15.456,0.22385,0.43988,0.26953,0.70588,0.60547
15.464,0.22385,0.435,0.26953,0.7,0.60547
15.472,0.22385,0.43206,0.26953,0.70588,0.59961
15.48,0.22385,0.43011,0.26562,0.7,0.60938
15.488,0.22385,0.42913,0.25977,0.6902,0.61523
15.496,0.22385,0.42913,0.24609,0.66471,0.62891
15.504,0.22483,0.42913,0.22461,0.66471,0.6543
15.512,0.22483,0.42913,0.22461,0.67059,0.66016
15.52,0.22483,0.43109,0.21094,0.66471,0.67578
15.528,0.22385,0.43402,0.21484,0.66471,0.67969
15.536,0.22287,0.43891,0.20117,0.66471,0.68945
15.544,0.2219,0.44575,0.20117,0.66471,0.68555
15.552,0.22092,0.45552,0.19531,0.66078,0.69531
15.56,0.21994,0.46823,0.19531,0.66471,0.69531
15.568,0.21896,0.48192,0.18945,0.66471,0.69531
15.576,0.21799,0.49756,0.19531,0.66471,0.69531
15.584,0.21701,0.5132,0.20117,0.66471,0.68945
15.592,0.21701,0.52884,0.18555,0.66471,0.69922
15.6,0.21603,0.5435,0.14062,0.66471,0.70508
15.608,0.21603,0.55034,0.13086,0.65098,0.64453
15.616,0.21505,0.5523,0.31445,0.50588,0.43945
15.624,0.21408,0.55816,0.56445,0.24902,0.11133
15.632,0.2131,0.565,0.78516,-0.021569,-0.10938
15.64,0.2131,0.5738,0.78906,-0.056863,0.16016
15.648,0.21212,0.58456,0.4043,0.22941,0.65039
15.656,0.21212,0.59335,0.16602,0.41961,0.82422
15.664,0.21212,0.60117,0.14062,0.58431,0.7793
15.672,0.21212,0.60704,0.16602,0.68039,0.76953
15.68,0.21212,0.61095,0.15039,0.72157,0.75977
15.688,0.21212,0.6129,0.14453,0.7451,0.76953
15.696,0.21212,0.61486,0.13477,0.75098,0.77539
15.704,0.21212,0.61584,0.14062,0.7549,0.76953
15.712,0.21114,0.61681,0.14453,0.7549,0.77539
15.72,0.21114,0.61584,0.13477,0.7549,0.76953
15.728,0.21114,0.61486,0.15039,0.7549,0.77539
15.736,0.21114,0.6129,0.15039,0.7549,0.76562
15.744,0.21114,0.61095,0.15625,0.7549,0.75977
15.752,0.21212,0.60899,0.14453,0.7549,0.76953
15.76,0.21212,0.60606,0.15039,0.76078,0.75977
15.768,0.2131,0.60313,0.15039,0.76078,0.75977
15.776,0.21408,0.59922,0.14453,0.76078,0.76953
15.784,0.21408,0.59629,0.14453,0.76078,0.77539
15.792,0.21505,0.5914,0.14062,0.76078,0.76562
15.8,0.21505,0.58553,0.15039,0.76078,0.76953
15.808,0.21603,0.57771,0.14062,0.76078,0.7793
15.816,0.21603,0.56696,0.15039,0.76078,0.7793
15.824,0.21603,0.55621,0.15039,0.76078,0.7793
15.832,0.21603,0.54643,0.15039,0.7549,0.78906
15.84,0.21701,0.53568,0.13477,0.76078,0.79883
15.848,0.21701,0.5259,0.15039,0.7549,0.79492
15.856,0.21701,0.51711,0.15039,0.76078,0.80469
15.864,0.21701,0.50831,0.16992,0.7549,0.79492
15.872,0.21799,0.50147,0.17578,0.7451,0.78906
15.88,0.21799,0.4956,0.17578,0.74118,0.78516
15.888,0.21799,0.48974,0.17969,0.73529,0.76953
15.896,0.21896,0.48485,0.20117,0.72157,0.75391
15.904,0.21896,0.48094,0.22461,0.7098,0.72461
15.912,0.21994,0.47605,0.22461,0.69608,0.70898
15.92,0.22092,0.47214,0.23047,0.68039,0.68555
15.928,0.22092,0.46823,0.22461,0.67647,0.66992
15.936,0.2219,0.46432,0.23047,0.66471,0.65039
15.944,0.2219,0.45846,0.23047,0.66078,0.64453
15.952,0.22287,0.45259,0.22461,0.66471,0.65039
15.96,0.22287,0.44673,0.23047,0.66471,0.64453
15.968,0.22287,0.44086,0.2207,0.67059,0.66016
15.976,0.22287,0.435,0.22461,0.68039,0.66016
15.984,0.22287,0.43011,0.22461,0.67647,0.6543
15.992,0.22287,0.42424,0.22461,0.6902,0.66016
16,0.2219,0.41935,0.2207,0.6902,0.6543
16.008,0.22092,0.41544,0.21094,0.6902,0.66016
16.016,0.22092,0.41153,0.2207,0.6902,0.66016
16.024,0.21994,0.40958,0.21094,0.6902,0.66406
16.032,0.21896,0.40567,0.23047,0.6902,0.64062
16.04,0.21701,0.40274,0.22461,0.6902,0.64062
16.048,0.21603,0.3998,0.23438,0.7,0.63477
16.056,0.21505,0.39687,0.24023,0.7098,0.63477
16.064,0.21505,0.39394,0.26562,0.7098,0.60938
16.072,0.21408,0.39003,0.2793,0.7,0.59961
16.08,0.21408,0.38612,0.27539,0.69608,0.59961
16.088,0.21408,0.38221,0.25586,0.70588,0.61523
16.096,0.2131,0.38025,0.26953,0.6902,0.59961
16.104,0.2131,0.3783,0.25,0.67059,0.625
16.112,0.21408,0.37634,0.23438,0.66078,0.65039
16.12,0.21408,0.37732,0.21484,0.67059,0.66992
16.128,0.21505,0.37928,0.20508,0.67059,0.68555
16.136,0.21505,0.38319,0.20117,0.66471,0.68555
16.144,0.21603,0.39003,0.20508,0.66471,0.67969
16.152,0.21701,0.3998,0.19531,0.66471,0.68555
16.16,0.21799,0.41251,0.18555,0.66471,0.68945
16.168,0.21799,0.42815,0.17969,0.66471,0.68945
16.176,0.21896,0.44379,0.20117,0.6549,0.68555
16.184,0.21896,0.46139,0.18945,0.66078,0.68555
16.192,0.21994,0.47801,0.18555,0.66471,0.68945
16.2,0.22092,0.49462,0.20117,0.66078,0.68555
16.208,0.2219,0.51124,0.14453,0.66471,0.70898
16.216,0.22287,0.52493,0.13086,0.6549,0.66992
16.224,0.22385,0.53666,0.25,0.5549,0.51562
16.232,0.22483,0.54741,0.48438,0.32353,0.21484
16.24,0.22678,0.55816,0.74023,0.039216,-0.099609
16.248,0.22776,0.56891,0.79492,-0.041176,-0.10352
16.256,0.22972,0.57967,0.48047,0.17451,0.54492
16.264,0.23069,0.58944,0.20117,0.3902,0.81445
16.272,0.23265,0.59824,0.125,0.55098,0.83398
16.28,0.2346,0.60411,0.16992,0.67059,0.77539
16.288,0.23558,0.61095,0.14453,0.72549,0.7793
16.296,0.23656,0.61584,0.13477,0.74118,0.77539
16.304,0.23851,0.61975,0.13086,0.7549,0.76953
16.312,0.23949,0.62268,0.14062,0.7549,0.77539
16.32,0.24047,0.62366,0.13086,0.7549,0.7793
16.328,0.24047,0.62463,0.13086,0.7549,0.7793
16.336,0.24145,0.62366,0.14062,0.75098,0.76953
16.344,0.24242,0.62268,0.14062,0.75098,0.76562
16.352,0.24242,0.62072,0.13477,0.75098,0.76953
16.36,0.2434,0.61681,0.14062,0.75098,0.76953
16.368,0.2434,0.61193,0.13086,0.7549,0.7793
16.376,0.24438,0.60508,0.14062,0.76078,0.77539
16.384,0.24438,0.59824,0.14453,0.75098,0.76562
16.392,0.24536,0.59042,0.14453,0.75098,0.77539
16.4,0.24536,0.58065,0.13477,0.75098,0.7793
16.408,0.24536,0.57087,0.14453,0.75098,0.77539
16.416,0.24633,0.56109,0.14062,0.7549,0.7793
16.424,0.24633,0.55425,0.13477,0.75098,0.78516
16.432,0.24633,0.54839,0.13477,0.7549,0.78906
16.44,0.24731,0.54252,0.13086,0.7549,0.79883
16.448,0.24731,0.53666,0.14453,0.76078,0.79492
16.456,0.24829,0.53079,0.14062,0.76078,0.79883
16.464,0.24927,0.52493,0.14453,0.76078,0.80469
16.472,0.25024,0.51808,0.14453,0.76078,0.79883
16.48,0.2522,0.51026,0.16602,0.7549,0.79883
16.488,0.25318,0.50244,0.16602,0.75098,0.78906
16.496,0.25513,0.49462,0.18555,0.73529,0.77539
16.504,0.25611,0.48778,0.18945,0.72157,0.75391
16.512,0.25806,0.48094,0.20117,0.7098,0.73438
16.52,0.26002,0.47703,0.20508,0.69608,0.7207
16.528,0.26197,0.47312,0.2207,0.68627,0.68945
16.536,0.26295,0.46823,0.22461,0.67647,0.67969
16.544,0.26491,0.46334,0.22461,0.66471,0.66406
16.552,0.26588,0.45846,0.22461,0.66471,0.66016
16.56,0.26686,0.45357,0.23047,0.66471,0.65039
16.568,0.26784,0.4477,0.2207,0.67059,0.6543
16.576,0.26882,0.44379,0.2207,0.68039,0.6543
16.584,0.26882,0.43988,0.21484,0.68627,0.66016
16.592,0.26979,0.43597,0.2207,0.6902,0.66016
16.6,0.27077,0.43206,0.21094,0.6902,0.66406
16.608,0.27077,0.42815,0.20117,0.69608,0.66992
16.616,0.27077,0.42424,0.21484,0.6902,0.66406
16.624,0.27077,0.42131,0.20508,0.69608,0.66016
16.632,0.26979,0.41838,0.2207,0.6902,0.66016
16.64,0.26979,0.41447,0.20508,0.6902,0.6543
16.648,0.26784,0.40958,0.22461,0.69608,0.64453
16.656,0.26588,0.40469,0.23438,0.7098,0.64062
16.664,0.26491,0.39883,0.25586,0.7098,0.62891
16.672,0.26295,0.39492,0.26953,0.7,0.60938
16.68,0.26197,0.39101,0.26953,0.70588,0.59961
16.688,0.261,0.3871,0.26953,0.7098,0.60938
16.696,0.26002,0.38514,0.26953,0.71569,0.60938
16.704,0.25904,0.38319,0.25977,0.70588,0.61523
16.712,0.25806,0.38221,0.24609,0.68627,0.62891
16.72,0.25806,0.38221,0.22461,0.67059,0.6543
16.728,0.25611,0.38221,0.2207,0.67647,0.66992
16.736,0.25513,0.38221,0.20117,0.68039,0.68555
16.744,0.25415,0.38416,0.20508,0.67647,0.68555
16.752,0.25318,0.38807,0.18945,0.67059,0.67969
16.76,0.25122,0.39394,0.19531,0.67059,0.68555
16.768,0.25024,0.40469,0.17969,0.67647,0.69531
16.776,0.25024,0.41838,0.18555,0.67059,0.68945
16.784,0.24927,0.435,0.17969,0.67059,0.69531
16.792,0.24829,0.45259,0.17969,0.67647,0.69922
16.8,0.24829,0.47214,0.17578,0.67059,0.69922
16.808,0.24731,0.48974,0.17578,0.67059,0.70508
16.816,0.24731,0.50538,0.14062,0.67647,0.7207
16.824,0.24731,0.51906,0.12109,0.66471,0.67578
16.832,0.24633,0.53372,0.24609,0.57059,0.51953
16.84,0.24633,0.54741,0.46484,0.33922,0.22461
16.848,0.24633,0.56012,0.7207,0.04902,-0.09375
16.856,0.24536,0.57087,0.7793,-0.037255,-0.10352
16.864,0.24536,0.58065,0.48438,0.17451,0.53516
16.872,0.24438,0.58944,0.20508,0.3902,0.82422
16.88,0.2434,0.59629,0.13477,0.5451,0.83398
16.888,0.24242,0.60215,0.15039,0.67059,0.7793
16.896,0.24145,0.60606,0.15039,0.72549,0.7793
16.904,0.24145,0.60997,0.13086,0.75098,0.7793
16.912,0.24047,0.6129,0.125,0.7549,0.78906
16.92,0.24047,0.61486,0.11523,0.76078,0.79492
16.928,0.23949,0.61584,0.125,0.76078,0.7793
16.936,0.23949,0.61681,0.13086,0.76078,0.77539
16.944,0.23949,0.61681,0.13477,0.7549,0.77539
16.952,0.23949,0.61486,0.125,0.7549,0.7793
16.96,0.23949,0.61095,0.14062,0.76078,0.77539
16.968,0.23949,0.60704,0.13086,0.76078,0.7793
16.976,0.23949,0.60313,0.14062,0.76078,0.7793
16.984,0.23949,0.59824,0.13477,0.7549,0.77539
16.992,0.23949,0.59238,0.13477,0.76078,0.7793
17,0.23949,0.58651,0.14453,0.76078,0.77539
17.008,0.23949,0.57869,0.14062,0.76078,0.7793
17.016,0.23949,0.57185,0.13086,0.76078,0.78516
17.024,0.24047,0.56305,0.13477,0.76078,0.7793
17.032,0.24145,0.55425,0.14453,0.76078,0.78516
17.04,0.24242,0.54448,0.13477,0.76078,0.78906
17.048,0.2434,0.5347,0.13477,0.76078,0.78906
17.056,0.24536,0.52688,0.13086,0.76078,0.80469
17.064,0.24633,0.52004,0.14062,0.76078,0.80469
17.072,0.24829,0.51417,0.14453,0.76667,0.79883
17.08,0.24927,0.50831,0.15039,0.76078,0.80469
17.088,0.25024,0.50244,0.14453,0.7549,0.81055
17.096,0.25122,0.49658,0.16992,0.73529,0.78516
17.104,0.2522,0.48974,0.17578,0.73137,0.77539
17.112,0.25318,0.48289,0.20117,0.72157,0.75
17.12,0.25415,0.47703,0.20117,0.7098,0.73438
17.128,0.25415,0.47116,0.2207,0.69608,0.71484
17.136,0.25513,0.46628,0.21484,0.68627,0.69531
17.144,0.25513,0.46041,0.22461,0.67059,0.67578
17.152,0.25513,0.45455,0.22461,0.66471,0.66016
17.16,0.25513,0.44868,0.23047,0.66078,0.6543
17.168,0.25611,0.44379,0.21484,0.66471,0.66016
17.176,0.25513,0.43988,0.2207,0.66471,0.66016
17.184,0.25513,0.43695,0.22461,0.67059,0.66016
17.192,0.25415,0.43402,0.2207,0.67647,0.66016
17.2,0.25318,0.43206,0.21484,0.68039,0.66016
17.208,0.2522,0.42913,0.20508,0.6902,0.66992
17.216,0.25122,0.42717,0.20117,0.6902,0.67578
17.224,0.24927,0.42522,0.21094,0.68627,0.66406
17.232,0.24829,0.42131,0.21484,0.68627,0.66016
17.24,0.24633,0.41642,0.20508,0.6902,0.66016
17.248,0.24536,0.41153,0.21484,0.6902,0.66016
17.256,0.2434,0.40665,0.22461,0.6902,0.64453
17.264,0.24145,0.40176,0.23047,0.70588,0.64453
17.272,0.23851,0.39883,0.24023,0.7098,0.63477
17.28,0.23656,0.39492,0.25977,0.7098,0.61523
17.288,0.23363,0.39101,0.26953,0.70588,0.60938
17.296,0.23167,0.3871,0.28516,0.7,0.59961
17.304,0.22874,0.38319,0.26953,0.7098,0.61523
17.312,0.22581,0.37928,0.26953,0.7,0.60547
17.32,0.22385,0.37634,0.25586,0.68039,0.61523
17.328,0.2219,0.37537,0.24023,0.66471,0.64453
17.336,0.21896,0.37439,0.21484,0.67647,0.66992
17.344,0.21701,0.37634,0.20508,0.67647,0.68555
17.352,0.21505,0.38025,0.20117,0.67059,0.68555
17.36,0.2131,0.3871,0.20117,0.66471,0.68555
17.368,0.21212,0.39589,0.18945,0.67059,0.69531
17.376,0.21017,0.40762,0.18555,0.67059,0.69922
17.384,0.20919,0.42033,0.17578,0.67059,0.70508
17.392,0.20919,0.435,0.17969,0.67647,0.69922
17.4,0.20821,0.45161,0.19531,0.67059,0.68945
17.408,0.20821,0.46823,0.18555,0.67647,0.69531
17.416,0.20723,0.48192,0.17578,0.67059,0.70508
17.424,0.20723,0.49267,0.15625,0.68039,0.71484
17.432,0.20723,0.5044,0.12109,0.67059,0.69531
17.44,0.20723,0.51711,0.21484,0.59608,0.55078
17.448,0.20723,0.52884,0.43555,0.38039,0.27539
17.456,0.20821,0.54154,0.69531,0.088235,-0.058594
17.464,0.20821,0.5523,0.76953,-0.041176,-0.11914
17.472,0.20821,0.56403,0.54492,0.14314,0.46094
17.48,0.20919,0.57478,0.24609,0.37059,0.79883
17.488,0.20919,0.58456,0.13086,0.52549,0.83984
17.496,0.21017,0.59335,0.15625,0.65098,0.78516
17.504,0.21017,0.6002,0.14453,0.72157,0.7793
17.512,0.21017,0.60704,0.14453,0.74118,0.76953
17.52,0.21114,0.61095,0.125,0.7549,0.78516
17.528,0.21114,0.6129,0.13086,0.76078,0.7793
17.536,0.21114,0.61486,0.13086,0.76078,0.7793
17.544,0.21017,0.61584,0.14062,0.76078,0.76953
17.552,0.21017,0.61486,0.14453,0.76078,0.77539
17.56,0.21017,0.61193,0.13477,0.76078,0.76953
17.568,0.20919,0.60606,0.14062,0.76078,0.76953
17.576,0.20919,0.6002,0.14062,0.76078,0.77539
17.584,0.20919,0.59335,0.13477,0.76078,0.76953
17.592,0.21017,0.58651,0.15039,0.76078,0.76953
17.6,0.21017,0.57967,0.15039,0.76078,0.76953
17.608,0.21017,0.57283,0.13086,0.76078,0.7793
17.616,0.21114,0.56696,0.14453,0.76078,0.7793
17.624,0.21114,0.56109,0.15039,0.7549,0.7793
17.632,0.21212,0.55523,0.14453,0.76078,0.7793
17.64,0.21408,0.54936,0.15039,0.76078,0.77539
17.648,0.21505,0.5435,0.14453,0.76078,0.7793
17.656,0.21701,0.53763,0.14453,0.76078,0.78906
17.664,0.21799,0.53079,0.15039,0.76078,0.79492
17.672,0.21994,0.52297,0.13477,0.76667,0.80469
17.68,0.2219,0.51515,0.14453,0.76667,0.80469
17.688,0.22385,0.50635,0.15039,0.76078,0.80469
17.696,0.22678,0.49853,0.16016,0.76078,0.79883
17.704,0.22874,0.49169,0.16992,0.75098,0.79492
17.712,0.23069,0.48583,0.18555,0.73529,0.77539
17.72,0.23265,0.48094,0.19531,0.73137,0.75391
17.728,0.23558,0.47507,0.20117,0.71569,0.74023
17.736,0.23754,0.46921,0.20117,0.70588,0.72461
17.744,0.23949,0.46237,0.2207,0.68627,0.68945
17.752,0.24145,0.45552,0.22461,0.66471,0.67969
17.76,0.24242,0.44868,0.2207,0.66471,0.66406
17.768,0.24438,0.44282,0.22461,0.66471,0.66016
17.776,0.24536,0.43793,0.22461,0.66471,0.6543
17.784,0.24536,0.435,0.22461,0.66471,0.66016
17.792,0.24633,0.43206,0.2207,0.66471,0.66016
17.8,0.24633,0.43011,0.22461,0.68039,0.66016
17.808,0.24536,0.42815,0.21094,0.6902,0.66016
17.816,0.24536,0.4262,0.20117,0.6902,0.66406
17.824,0.24438,0.42326,0.20508,0.6902,0.66016
17.832,0.2434,0.42033,0.21094,0.69608,0.66406
17.84,0.24242,0.41544,0.20117,0.69608,0.66016
17.848,0.24145,0.41056,0.21094,0.7,0.66406
17.856,0.23949,0.40567,0.20117,0.69608,0.66016
17.864,0.23851,0.3998,0.2207,0.6902,0.65039
17.872,0.23656,0.39394,0.23047,0.7,0.64453
17.88,0.23558,0.3871,0.24023,0.7098,0.63477
17.888,0.23363,0.38123,0.25586,0.70588,0.625
17.896,0.23167,0.37537,0.27539,0.7098,0.59961
17.904,0.23069,0.37048,0.26953,0.70588,0.59961
17.912,0.22874,0.36852,0.25977,0.7098,0.61523
17.92,0.22678,0.36755,0.25586,0.7,0.60938
17.928,0.22483,0.36657,0.24609,0.68039,0.61914
17.936,0.22385,0.36559,0.2207,0.66471,0.6543
17.944,0.2219,0.36559,0.20508,0.67059,0.67969
17.952,0.21994,0.36657,0.20117,0.67059,0.68555
17.96,0.21799,0.3695,0.19531,0.67059,0.68555
17.968,0.21701,0.37439,0.17969,0.66471,0.69531
17.976,0.21505,0.38319,0.17578,0.66471,0.70508
17.984,0.21408,0.39492,0.17578,0.66471,0.70898
17.992,0.21408,0.40762,0.18945,0.66471,0.69531
18,0.2131,0.42326,0.17969,0.66471,0.69531
18.008,0.21212,0.43988,0.18555,0.67059,0.68945
18.016,0.21212,0.45552,0.17969,0.66471,0.69531
18.024,0.21212,0.47019,0.17578,0.67059,0.69922
18.032,0.21212,0.4868,0.15625,0.68039,0.70508
18.04,0.21212,0.50342,0.125,0.67059,0.68555
18.048,0.21212,0.52004,0.21484,0.59608,0.55078
18.056,0.21212,0.53568,0.43945,0.37451,0.25586
18.064,0.21212,0.54936,0.69531,0.088235,-0.074219
18.072,0.21212,0.56207,0.76562,-0.037255,-0.11523
18.08,0.21114,0.57478,0.52539,0.15882,0.48438
18.088,0.21114,0.58553,0.24023,0.37451,0.80469
18.096,0.21017,0.59531,0.12109,0.52549,0.83984
18.104,0.21017,0.60313,0.14453,0.6549,0.78906
18.112,0.21017,0.60802,0.14453,0.72549,0.7793
18.12,0.20919,0.61193,0.13086,0.75098,0.7793
18.128,0.20919,0.61388,0.13086,0.7549,0.7793
18.136,0.20919,0.61584,0.13086,0.76078,0.7793
18.144,0.20919,0.61584,0.125,0.76078,0.7793
18.152,0.20821,0.61681,0.13086,0.7549,0.7793
18.16,0.20723,0.61681,0.13086,0.76078,0.7793
18.168,0.20723,0.61681,0.125,0.76078,0.7793
18.176,0.20626,0.61681,0.12109,0.76667,0.77539
18.184,0.20626,0.61584,0.13086,0.76078,0.77539
18.192,0.20626,0.6129,0.14062,0.76078,0.77539
18.2,0.20528,0.60802,0.14062,0.76078,0.76953
18.208,0.20528,0.6002,0.14062,0.76078,0.7793
18.216,0.2043,0.5914,0.13086,0.76078,0.7793
18.224,0.2043,0.5826,0.13477,0.76078,0.7793
18.232,0.2043,0.5738,0.14062,0.76078,0.7793
18.24,0.2043,0.56403,0.13086,0.76078,0.78516
18.248,0.20528,0.55621,0.13086,0.76078,0.78906
18.256,0.20626,0.54741,0.13477,0.76078,0.78516
18.264,0.20626,0.53959,0.13086,0.76078,0.79883
18.272,0.20723,0.53177,0.13086,0.76078,0.79883
18.28,0.20821,0.52395,0.14453,0.76078,0.79883
18.288,0.20919,0.51515,0.14062,0.76078,0.80469
18.296,0.20919,0.50635,0.15039,0.7549,0.79883
18.304,0.21017,0.49853,0.15625,0.7549,0.79883
18.312,0.21114,0.49267,0.17578,0.7451,0.78906
18.32,0.21212,0.4868,0.17578,0.73529,0.7793
18.328,0.21212,0.48094,0.20117,0.72549,0.75
18.336,0.2131,0.47507,0.20117,0.7098,0.73438
18.344,0.21408,0.47019,0.21094,0.69608,0.71484
18.352,0.21408,0.46432,0.2207,0.68039,0.68945
18.36,0.21505,0.45846,0.22461,0.67059,0.67578
18.368,0.21505,0.45161,0.2207,0.66471,0.66992
18.376,0.21603,0.44379,0.22461,0.66471,0.6543
18.384,0.21603,0.43695,0.21484,0.66471,0.66016
18.392,0.21603,0.43206,0.22461,0.66471,0.65039
18.4,0.21701,0.42717,0.21484,0.67059,0.66016
18.408,0.21603,0.42326,0.2207,0.67647,0.66016
18.416,0.21603,0.42033,0.21484,0.67647,0.66016
18.424,0.21408,0.4174,0.21484,0.68627,0.66016
18.432,0.2131,0.41349,0.21094,0.6902,0.66016
18.44,0.21114,0.4086,0.21484,0.6902,0.66016
18.448,0.20919,0.40371,0.22461,0.6902,0.6543
18.456,0.20723,0.39785,0.21094,0.6902,0.66016
18.464,0.20626,0.39198,0.22461,0.68627,0.65039
18.472,0.2043,0.38612,0.2207,0.68627,0.65039
18.48,0.20235,0.38123,0.23438,0.68627,0.64062
18.488,0.20137,0.37732,0.25,0.6902,0.63477
18.496,0.20039,0.37537,0.25586,0.7,0.61914
18.504,0.19941,0.37341,0.26953,0.69608,0.60547
18.512,0.19844,0.37243,0.2793,0.69608,0.5957
18.52,0.19844,0.37146,0.25977,0.70588,0.61523
18.528,0.19746,0.37048,0.25977,0.70588,0.60938
18.536,0.19648,0.3695,0.26953,0.68627,0.60547
18.544,0.1955,0.36755,0.24609,0.66471,0.63477
18.552,0.19453,0.36657,0.21484,0.66078,0.66016
18.56,0.19355,0.36657,0.20508,0.66471,0.68555
18.568,0.19257,0.36755,0.20117,0.66078,0.68555
18.576,0.19159,0.37146,0.18555,0.66471,0.68945
18.584,0.19062,0.3783,0.17969,0.66078,0.69922
18.592,0.18964,0.38807,0.18945,0.66471,0.68945
18.6,0.18964,0.40176,0.17578,0.66078,0.69922
18.608,0.18964,0.41838,0.16992,0.66078,0.70508
18.616,0.18964,0.43402,0.17969,0.66471,0.68945
18.624,0.18964,0.44868,0.17578,0.66078,0.69531
18.632,0.18964,0.46628,0.17578,0.66471,0.69922
18.64,0.18964,0.48387,0.16602,0.67059,0.70508
18.648,0.19062,0.49951,0.125,0.66471,0.70898
18.656,0.19062,0.51417,0.16602,0.63529,0.61523
18.664,0.19159,0.52786,0.32422,0.48039,0.41602
18.672,0.19159,0.54154,0.57422,0.20392,0.064453
18.68,0.19257,0.55425,0.76953,-0.037255,-0.10938
18.688,0.19257,0.56598,0.66016,-0.041176,0.24023
18.696,0.19355,0.57576,0.3457,0.27843,0.70898
18.704,0.19453,0.58456,0.11523,0.4549,0.84961
18.712,0.19453,0.5914,0.11133,0.60588,0.79492
18.72,0.19453,0.59726,0.15039,0.7,0.7793
18.728,0.19453,0.60313,0.14062,0.73529,0.77539
18.736,0.19453,0.60802,0.12109,0.75098,0.78906
18.744,0.19355,0.61193,0.125,0.76078,0.78516
18.752,0.19355,0.61388,0.13086,0.76078,0.78516
18.76,0.19257,0.61584,0.13086,0.76078,0.7793
18.768,0.19159,0.61584,0.13086,0.76078,0.7793
18.776,0.19062,0.61584,0.13086,0.76667,0.7793
18.784,0.19062,0.6129,0.13477,0.7549,0.77539
18.792,0.18964,0.60997,0.13477,0.76078,0.7793
18.8,0.18866,0.60411,0.13086,0.7549,0.7793
18.808,0.18768,0.59726,0.13086,0.7549,0.7793
18.816,0.18768,0.59042,0.13477,0.7549,0.7793
18.824,0.18768,0.58358,0.13086,0.7549,0.78516
18.832,0.18768,0.57674,0.13477,0.76078,0.7793
18.84,0.18768,0.56891,0.13086,0.76078,0.7793
18.848,0.18768,0.56109,0.14062,0.76078,0.78516
18.856,0.18768,0.55327,0.13086,0.76078,0.78906
18.864,0.18866,0.5435,0.13477,0.76078,0.78906
18.872,0.18964,0.5347,0.13086,0.76078,0.79883
18.88,0.19062,0.52688,0.13086,0.76078,0.80469
18.888,0.19159,0.51906,0.13477,0.76078,0.80469
18.896,0.19355,0.51124,0.14062,0.76078,0.80469
18.904,0.1955,0.50244,0.14062,0.76078,0.81445
18.912,0.19746,0.4956,0.15039,0.76078,0.79883
18.92,0.19941,0.48876,0.16992,0.7549,0.79492
18.928,0.20137,0.48094,0.17969,0.73529,0.7793
18.936,0.20332,0.4741,0.18945,0.72157,0.76562
18.944,0.20528,0.46628,0.20117,0.71569,0.75
18.952,0.20626,0.46041,0.20117,0.70588,0.73438
18.96,0.20821,0.45552,0.21484,0.6902,0.70508
18.968,0.20919,0.45064,0.2207,0.67647,0.68555
18.976,0.21017,0.44673,0.22461,0.66471,0.66992
18.984,0.21114,0.44282,0.22461,0.66078,0.66406
18.992,0.21212,0.43891,0.2207,0.66471,0.66016
19,0.2131,0.435,0.22461,0.66471,0.66016
19.008,0.21408,0.43011,0.21484,0.67059,0.66016
19.016,0.21505,0.4262,0.21484,0.68039,0.66016
19.024,0.21603,0.42229,0.21484,0.6902,0.66016
19.032,0.21603,0.41642,0.21094,0.6902,0.66016
19.04,0.21505,0.41153,0.20508,0.69608,0.66406
19.048,0.21408,0.40567,0.21484,0.7,0.66016
19.056,0.2131,0.3998,0.21484,0.7,0.66016
19.064,0.21114,0.39394,0.21484,0.70588,0.66016
19.072,0.20919,0.38807,0.2207,0.69608,0.6543
19.08,0.20723,0.38319,0.22461,0.69608,0.64453
19.088,0.20528,0.37928,0.23047,0.70588,0.64062
19.096,0.20332,0.37634,0.24609,0.71569,0.63477
19.104,0.20137,0.37341,0.25586,0.72157,0.61914
19.112,0.20039,0.37243,0.27539,0.72549,0.60547
19.12,0.19941,0.37048,0.27539,0.71569,0.60547
19.128,0.19746,0.3695,0.2793,0.72157,0.60547
19.136,0.19648,0.36755,0.26953,0.72157,0.60938
19.144,0.19453,0.36461,0.26953,0.7098,0.60547
19.152,0.19257,0.36168,0.24609,0.68627,0.625
19.16,0.19062,0.35973,0.23047,0.68039,0.64453
19.168,0.18964,0.35875,0.21484,0.68627,0.66406
19.176,0.18866,0.35973,0.2207,0.68627,0.66992
19.184,0.18768,0.36364,0.20508,0.68627,0.67578
19.192,0.18573,0.3695,0.20117,0.68627,0.68555
19.2,0.18475,0.37928,0.20117,0.68039,0.68555
19.208,0.1828,0.39101,0.20117,0.68039,0.68555
19.216,0.18084,0.40371,0.20117,0.68039,0.68555
19.224,0.17889,0.4174,0.20117,0.68039,0.68555
19.232,0.17791,0.43402,0.20117,0.67647,0.68555
19.24,0.17595,0.45161,0.20117,0.67647,0.68555
19.248,0.17498,0.47019,0.19531,0.68627,0.68555
19.256,0.174,0.48876,0.15039,0.68627,0.68945
19.264,0.17302,0.50538,0.18555,0.67059,0.61914
19.272,0.17204,0.52004,0.33008,0.53922,0.42969
19.28,0.17204,0.53372,0.57422,0.29412,0.10547
19.288,0.17204,0.54448,0.79492,0.039216,-0.10938
19.296,0.17204,0.55425,0.79883,-0.0058823,0.14453
19.304,0.17204,0.56207,0.41016,0.26471,0.6543
19.312,0.17302,0.56891,0.16602,0.4451,0.83984
19.32,0.174,0.57478,0.13086,0.5902,0.78906
19.328,0.17498,0.57967,0.17578,0.68627,0.75391
19.336,0.17693,0.58456,0.17578,0.73137,0.75
19.344,0.17889,0.58847,0.17578,0.7451,0.74414
19.352,0.1828,0.59042,0.16602,0.75098,0.75391
19.36,0.18573,0.59238,0.16602,0.76078,0.75391
19.368,0.19159,0.5914,0.16992,0.76078,0.75
19.376,0.19648,0.58944,0.16602,0.76078,0.74023
19.384,0.2043,0.58651,0.17578,0.76078,0.73438
19.392,0.21114,0.5826,0.17578,0.76078,0.74023
19.4,0.21994,0.57674,0.16992,0.76078,0.74023
19.408,0.22874,0.57087,0.17578,0.76078,0.73438
19.416,0.23851,0.565,0.17578,0.75098,0.73438
19.424,0.24731,0.55816,0.16992,0.7549,0.73438
19.432,0.25709,0.55132,0.17578,0.7549,0.73438
19.44,0.26686,0.54252,0.16992,0.7549,0.74023
19.448,0.28055,0.53275,0.17578,0.76078,0.74414
19.456,0.29423,0.52199,0.16992,0.7549,0.75
19.464,0.30987,0.51026,0.17578,0.76078,0.75
19.472,0.32649,0.49756,0.17578,0.7549,0.75
19.48,0.34311,0.4868,0.17578,0.7549,0.75391
19.488,0.35875,0.47703,0.17578,0.76078,0.75977
19.496,0.37537,0.46921,0.17578,0.76078,0.75977
19.504,0.39198,0.46041,0.17578,0.76078,0.76562
19.512,0.41153,0.45357,0.18555,0.76078,0.76562
19.52,0.43206,0.44673,0.17969,0.75098,0.76562
19.528,0.45552,0.43988,0.19531,0.75098,0.75391
19.536,0.47898,0.43402,0.20117,0.74118,0.75
19.544,0.50538,0.42815,0.2207,0.72549,0.73047
19.552,0.53275,0.42131,0.22461,0.71569,0.7207
19.56,0.56207,0.41544,0.23047,0.7098,0.70508
19.568,0.59042,0.40762,0.24023,0.69608,0.67969
19.576,0.61779,0.3998,0.24609,0.68627,0.66016
19.584,0.64418,0.39198,0.24609,0.68039,0.65039
19.592,0.66862,0.38514,0.25,0.67647,0.63477
19.6,0.69404,0.37928,0.25,0.67647,0.625
19.608,0.72141,0.37537,0.25,0.68039,0.62891
19.616,0.74878,0.37243,0.24023,0.67647,0.62891
19.624,0.7781,0.36852,0.24609,0.68627,0.63477
19.632,0.80743,0.36461,0.24609,0.6902,0.62891
19.64,0.8348,0.3607,0.24023,0.69608,0.63477
19.648,0.86119,0.35679,0.24609,0.7,0.62891
19.656,0.88661,0.35288,0.24609,0.7,0.62891
19.664,0.91105,0.348,0.25,0.7,0.63477
19.672,0.93744,0.34213,0.24609,0.70588,0.625
19.68,0.96481,0.33822,0.24023,0.7098,0.625
19.688,0.9824,0.33431,0.24609,0.70588,0.625
19.696,1,0.32942,0.25,0.69608,0.61914
19.704,1,0.33431,0.25,0.7,0.625
19.712,1,0.34311,0.26953,0.7098,0.61523
19.72,1,0.34604,0.2793,0.7098,0.59961
19.728,1,0.34506,0.29492,0.7098,0.58008
19.736,1,0.34115,0.30078,0.70588,0.57422
19.744,1,0.33822,0.30469,0.7098,0.57422
19.752,1,0.33431,0.29492,0.7098,0.58008
19.76,1,0.33138,0.30078,0.70588,0.57031
19.768,1,0.32845,0.29102,0.68627,0.58984
19.776,1,0.32649,0.26953,0.67647,0.60938
19.784,1,0.32649,0.24023,0.68039,0.63477
19.792,1,0.32845,0.24023,0.68627,0.64453
19.8,1,0.33236,0.23047,0.68039,0.65039
19.808,1,0.3392,0.2207,0.68627,0.66016
19.816,1,0.348,0.2207,0.68627,0.66016
19.824,1,0.35973,0.21484,0.67647,0.66016
19.832,1,0.37341,0.22461,0.67647,0.66016
19.84,1,0.39003,0.21484,0.67647,0.66016
19.848,1,0.40665,0.22461,0.67059,0.66406
19.856,1,0.42326,0.2207,0.67647,0.66406
19.864,1,0.43988,0.22461,0.67647,0.66016
19.872,1,0.45552,0.16602,0.68627,0.67969
19.88,1,0.47116,0.14453,0.67647,0.64453
19.888,1,0.48583,0.2793,0.58431,0.49023
19.896,1,0.49853,0.5293,0.37059,0.21094
19.904,1,0.50929,0.78906,0.11373,-0.058594
19.912,1,0.51711,0.83398,0.033333,0.060547
19.92,1,0.52297,0.5,0.22353,0.54492
19.928,1,0.52884,0.21484,0.41961,0.81055
19.936,1,0.5347,0.13086,0.56471,0.83008
19.944,1,0.54057,0.16016,0.67059,0.75977
19.952,1,0.54448,0.15625,0.72157,0.74023
19.96,1,0.54936,0.16602,0.74118,0.73047
19.968,1,0.5523,0.15039,0.7549,0.74023
19.976,1,0.55523,0.15625,0.75098,0.73438
19.984,1,0.55621,0.15039,0.76078,0.74023
19.992,1,0.55621,0.15625,0.75098,0.73438
20,1,0.55327,0.16016,0.7549,0.73047
20.008,1,0.54936,0.16016,0.7549,0.73438
20.016,1,0.54448,0.15625,0.7451,0.73438
20.024,1,0.53959,0.16016,0.75098,0.73047
20.032,1,0.53275,0.16602,0.74118,0.73047
20.04,1,0.5259,0.16016,0.7451,0.74023
20.048,1,0.51808,0.15625,0.75098,0.74414
20.056,1,0.51124,0.16602,0.74118,0.73438
20.064,1,0.50342,0.16016,0.73529,0.74023
20.072,1,0.4956,0.15625,0.73529,0.74414
20.08,1,0.48876,0.15039,0.73529,0.74414
20.088,1,0.48094,0.16016,0.73529,0.74023
20.096,1,0.4741,0.16602,0.73529,0.75
20.104,1,0.46725,0.15625,0.73529,0.75391
20.112,1,0.46237,0.16602,0.73529,0.75391
20.12,1,0.45748,0.16602,0.73529,0.75391
20.128,1,0.45259,0.16992,0.73529,0.75391
20.136,1,0.4477,0.17578,0.73137,0.75977
20.144,1,0.44184,0.17969,0.73137,0.75391
20.152,1,0.43597,0.18945,0.71569,0.75391
20.16,1,0.43011,0.20117,0.70588,0.73438
20.168,1,0.42326,0.21484,0.6902,0.73047
20.176,1,0.41544,0.2207,0.68039,0.70898
20.184,1,0.40958,0.22461,0.67059,0.68945
20.192,1,0.40371,0.23047,0.66471,0.67578
20.2,1,0.39785,0.23047,0.66078,0.66016
20.208,1,0.39394,0.22461,0.6549,0.65039
20.216,1,0.39101,0.23438,0.6549,0.64453
20.224,1,0.3871,0.22461,0.66471,0.64062
20.232,1,0.38416,0.24609,0.66471,0.625
20.24,1,0.38025,0.22461,0.66471,0.64062
20.248,1,0.37634,0.21484,0.67647,0.65039
20.256,1,0.37243,0.21094,0.6902,0.6543
20.264,1,0.36852,0.22461,0.6902,0.64453
20.272,1,0.36461,0.21094,0.69608,0.65039
20.28,1,0.35973,0.21484,0.7,0.6543
20.288,1,0.35484,0.21484,0.7,0.6543
20.296,1,0.34995,0.22461,0.69608,0.64453
20.304,1,0.34604,0.2207,0.69608,0.64453
20.312,1,0.34409,0.22461,0.6902,0.63477
20.32,1,0.34115,0.22461,0.6902,0.63477
20.328,1,0.33822,0.24023,0.70588,0.62891
20.336,1,0.33431,0.24609,0.7098,0.61523
20.344,1,0.32942,0.26562,0.7098,0.59961
20.352,1,0.32356,0.27539,0.7098,0.58984
20.36,1,0.31867,0.2793,0.7,0.58984
20.368,1,0.31476,0.26953,0.7098,0.59961
20.376,1,0.31183,0.27539,0.70588,0.5957
20.384,1,0.3089,0.26953,0.69608,0.60547
20.392,1,0.30792,0.25,0.68627,0.61914
20.4,1,0.30987,0.22461,0.68039,0.64453
20.408,1,0.31281,0.22461,0.68039,0.66016
20.416,1,0.31867,0.20508,0.68039,0.66992
20.424,1,0.32649,0.20117,0.67647,0.67969
20.432,1,0.33529,0.19531,0.68039,0.67578
20.44,1,0.34604,0.18945,0.68039,0.68555
20.448,1,0.35973,0.19531,0.68039,0.68945
20.456,1,0.37439,0.17969,0.68039,0.69531
20.464,1,0.39101,0.17969,0.68039,0.68555
20.472,1,0.40762,0.18945,0.68039,0.68555
20.48,1,0.42522,0.19531,0.68039,0.68555
20.488,1,0.44184,0.15039,0.68627,0.69531
20.496,1,0.4565,0.125,0.6902,0.69922
20.504,1,0.47116,0.2207,0.62941,0.57031
20.512,1,0.48289,0.45508,0.46471,0.33008
20.52,1,0.49365,0.74023,0.21961,0.054688
20.528,1,0.5044,0.86523,0.058824,-0.019531
20.536,1,0.51417,0.62891,0.15882,0.41016
20.544,1,0.52199,0.26562,0.37451,0.77539
20.552,1,0.52786,0.076172,0.52549,0.84961
20.56,1,0.5347,0.095703,0.65098,0.80469
20.568,1,0.54057,0.10547,0.70588,0.76953
20.576,1,0.54643,0.125,0.73529,0.75977
20.584,1,0.55132,0.10547,0.7451,0.76562
20.592,1,0.55425,0.11133,0.75098,0.76953
20.6,1,0.55718,0.11523,0.75098,0.75977
20.608,1,0.55816,0.11523,0.7549,0.76562
20.616,1,0.55816,0.125,0.74118,0.75391
20.624,1,0.55621,0.13086,0.74118,0.75391
20.632,1,0.55327,0.13086,0.73529,0.75391
20.64,1,0.54936,0.13086,0.7451,0.75
20.648,1,0.5435,0.13477,0.7451,0.75391
20.656,1,0.53861,0.13086,0.7451,0.74414
20.664,1,0.53275,0.13477,0.73529,0.75
20.672,1,0.5259,0.13086,0.73529,0.75391
20.68,1,0.51808,0.14062,0.73529,0.74414
20.688,1,0.51124,0.13086,0.73529,0.75391
20.696,1,0.50342,0.13477,0.73529,0.75977
20.704,1,0.49462,0.13086,0.74118,0.75391
20.712,1,0.48778,0.13477,0.73529,0.76562
20.72,1,0.48094,0.125,0.73137,0.76562
20.728,1,0.47312,0.14062,0.73137,0.75977
20.736,1,0.46628,0.13086,0.73137,0.77539
20.744,1,0.45846,0.14062,0.72549,0.76953
20.752,1,0.45161,0.14453,0.73137,0.77539
20.76,1,0.44477,0.15625,0.7098,0.76953
20.768,1,0.43891,0.16992,0.70588,0.75977
20.776,1,0.43304,0.19531,0.69608,0.74414
20.784,1,0.4262,0.19531,0.6902,0.74023
20.792,1,0.41838,0.20508,0.68039,0.7207
20.8,1,0.41153,0.21484,0.67059,0.70898
20.808,1,0.40567,0.2207,0.66471,0.69531
20.816,1,0.40078,0.22461,0.6549,0.67969
20.824,1,0.39492,0.22461,0.6549,0.66406
20.832,1,0.38807,0.21484,0.6549,0.66016
20.84,1,0.38221,0.21484,0.6549,0.66406
20.848,1,0.37732,0.21094,0.66078,0.66406
20.856,1,0.37341,0.21484,0.66471,0.66016
20.864,1,0.36852,0.20117,0.67059,0.66406
20.872,1,0.36266,0.20117,0.68039,0.66016
20.88,1,0.35679,0.20508,0.68039,0.66016
20.888,1,0.35191,0.20117,0.6902,0.66406
20.896,1,0.348,0.20117,0.6902,0.66406
20.904,1,0.34409,0.19531,0.6902,0.67969
20.912,1,0.34213,0.19531,0.6902,0.67969
20.92,1,0.3392,0.20117,0.69608,0.67578
20.928,1,0.33529,0.20117,0.6902,0.66406
20.936,1,0.3304,0.20117,0.6902,0.66992
20.944,1,0.32551,0.21094,0.6902,0.6543
20.952,1,0.31965,0.2207,0.69608,0.65039
20.96,1,0.31476,0.23438,0.7,0.62891
20.968,1,0.30987,0.24609,0.7,0.61523
20.976,1,0.30499,0.25977,0.7,0.61914
20.984,1,0.3001,0.25586,0.7,0.61523
20.992,1,0.29619,0.25977,0.69608,0.625
21,1,0.29326,0.26562,0.6902,0.61914
21.008,1,0.2913,0.25,0.67059,0.63477
21.016,1,0.2913,0.2207,0.67059,0.66406
21.024,1,0.29228,0.20508,0.67647,0.67969
21.032,1,0.29619,0.19531,0.67059,0.68555
21.04,1,0.30401,0.18555,0.67059,0.68945
21.048,1,0.31476,0.17969,0.67059,0.69922
21.056,1,0.32747,0.17578,0.66471,0.69922
21.064,1,0.34213,0.17578,0.67059,0.70508
21.072,1,0.35973,0.17969,0.66471,0.69922
21.08,1,0.37732,0.18555,0.66471,0.70508
21.088,1,0.39589,0.17969,0.66078,0.70508
21.096,1,0.41251,0.17578,0.66471,0.70898
21.104,1,0.42913,0.16602,0.66471,0.70898
21.112,1,0.44282,0.12109,0.67059,0.7207
21.12,1,0.4565,0.16016,0.66078,0.65039
21.128,1,0.46921,0.35547,0.52941,0.46094
21.136,1,0.48289,0.65039,0.3,0.17969
21.144,1,0.4956,0.875,0.078431,0
21.152,1,0.50831,0.76953,0.039216,0.23438
21.16,1,0.51906,0.39062,0.27451,0.69531
21.168,1,0.52981,0.125,0.4451,0.85938
21.176,1,0.53959,0.085938,0.59608,0.83008
21.184,1,0.54936,0.095703,0.67647,0.79883
21.192,1,0.55718,0.10547,0.7098,0.78516
21.2,1,0.56403,0.11133,0.73137,0.7793
21.208,1,0.56794,0.10547,0.73529,0.78906
21.216,1,0.57087,0.10547,0.73529,0.7793
21.224,1,0.57185,0.10547,0.73529,0.7793
21.232,1,0.57283,0.11523,0.73529,0.7793
21.24,1,0.57185,0.11133,0.73529,0.7793
21.248,1,0.57087,0.12109,0.73137,0.77539
21.256,1,0.56891,0.11523,0.73529,0.7793
21.264,1,0.56598,0.12109,0.73137,0.7793
21.272,1,0.56207,0.12109,0.72549,0.7793
21.28,1,0.55718,0.125,0.72549,0.7793
21.288,1,0.55132,0.11523,0.72549,0.7793
21.296,1,0.54545,0.12109,0.72549,0.7793
21.304,1,0.53861,0.11133,0.72157,0.78516
21.312,1,0.53177,0.11523,0.72157,0.78906
21.32,1,0.52493,0.11133,0.72157,0.78516
21.328,1,0.51808,0.11523,0.72157,0.79492
21.336,1,0.51026,0.10547,0.71569,0.79883
21.344,1,0.50049,0.11133,0.71569,0.79883
21.352,1,0.48876,0.11133,0.71569,0.80469
21.36,1,0.47801,0.11523,0.71569,0.81055
21.368,1,0.46725,0.11523,0.7098,0.81055
21.376,1,0.45748,0.13086,0.70588,0.80469
21.384,1,0.44868,0.13477,0.69608,0.79883
21.392,1,0.44184,0.15039,0.6902,0.78516
21.4,0.98143,0.435,0.16992,0.68627,0.77539
21.408,0.96383,0.43011,0.17969,0.67647,0.76562
21.416,0.94526,0.42522,0.18555,0.66471,0.75391
21.424,0.92571,0.42033,0.20117,0.6549,0.73438
21.432,0.90225,0.41447,0.20117,0.64118,0.72461
21.44,0.87879,0.4086,0.20117,0.64118,0.70898
21.448,0.85142,0.40274,0.20117,0.64118,0.70508
21.456,0.82405,0.39687,0.19531,0.64118,0.69531
21.464,0.79081,0.39003,0.18945,0.64118,0.68945
21.472,0.75855,0.38319,0.18555,0.6549,0.68945
21.48,0.72141,0.37634,0.18945,0.66078,0.68945
21.488,0.68524,0.36852,0.18555,0.66471,0.69531
21.496,0.65103,0.36168,0.18555,0.66471,0.69531
21.504,0.61584,0.35777,0.18555,0.66471,0.68945
21.512,0.58162,0.35484,0.18555,0.67059,0.68945
21.52,0.54839,0.35093,0.18945,0.67059,0.69531
21.528,0.51222,0.348,0.18945,0.67647,0.69531
21.536,0.47507,0.34409,0.17969,0.67647,0.69531
21.544,0.43695,0.34213,0.17969,0.67647,0.69922
21.552,0.3998,0.3392,0.18555,0.68039,0.68945
21.56,0.36461,0.33627,0.20117,0.6902,0.68555
21.568,0.3304,0.33333,0.21484,0.6902,0.66992
21.576,0.29912,0.3304,0.23047,0.7,0.65039
21.584,0.26784,0.32649,0.24023,0.69608,0.63477
21.592,0.23558,0.32258,0.24609,0.70588,0.64062
21.6,0.2043,0.31769,0.24023,0.70588,0.64453
21.608,0.17204,0.31476,0.23438,0.7,0.64453
21.616,0.13978,0.31281,0.22461,0.68039,0.66016
21.624,0.10753,0.31085,0.21094,0.67059,0.66992
21.632,0.076246,0.30987,0.18555,0.67059,0.69531
21.64,0.044966,0.31085,0.17969,0.67647,0.70898
21.648,0.014663,0.31378,0.17578,0.67059,0.70898
21.656,0.0068426,0.32063,0.17578,0.67059,0.71484
21.664,0,0.33138,0.17578,0.66471,0.70898
21.672,0,0.34506,0.16602,0.66471,0.71484
21.68,0,0.36266,0.16016,0.66471,0.72461
21.688,0,0.38221,0.15625,0.66471,0.72461
21.696,0,0.40371,0.16602,0.66471,0.7207
21.704,0,0.42326,0.16602,0.66471,0.7207
21.712,0,0.44086,0.16992,0.66471,0.72461
21.72,0,0.45846,0.13086,0.66471,0.73047
21.728,0,0.47605,0.11523,0.67059,0.69922
21.736,0,0.49267,0.24609,0.5902,0.56445
21.744,0,0.50831,0.49023,0.36471,0.29102
21.752,0,0.53861,0.77539,0.068627,0
21.76,0,0.57478,0.83984,-0.05098,-0.035156
21.768,0,0.59824,0.5293,0.11961,0.50977
21.776,0,0.61388,0.24023,0.33922,0.80469
21.784,0,0.62659,0.125,0.51569,0.83398
21.792,0,0.63734,0.13086,0.65098,0.79883
21.8,0,0.64614,0.11133,0.70588,0.79883
21.808,0,0.65298,0.10547,0.73529,0.79883
21.816,0,0.65885,0.089844,0.74118,0.79883
21.824,0,0.66373,0.095703,0.74118,0.80469
21.832,0,0.66764,0.10547,0.74118,0.79492
21.84,0,0.67253,0.10547,0.74118,0.78906
21.848,0,0.67644,0.11523,0.73529,0.78906
21.856,0,0.67937,0.11133,0.73529,0.79492
21.864,0,0.68035,0.11523,0.74118,0.78516
21.872,0,0.67937,0.11523,0.74118,0.78516
21.88,0,0.67546,0.12109,0.74118,0.78516
21.888,0,0.6696,0.11523,0.73529,0.78906
21.896,0,0.66178,0.11523,0.73529,0.78516
21.904,0,0.65298,0.11133,0.74118,0.78906
21.912,0,0.64614,0.11523,0.73529,0.78516
21.92,0,0.64027,0.10547,0.74118,0.79883
21.928,0,0.63343,0.11523,0.7451,0.79492
21.936,0,0.62659,0.10547,0.74118,0.79883
21.944,0,0.61877,0.11133,0.74118,0.79883
21.952,0,0.61095,0.10547,0.73529,0.81055
21.96,0,0.60117,0.11133,0.73529,0.81445
21.968,0,0.59238,0.10547,0.73529,0.81445
21.976,0,0.58162,0.11523,0.74118,0.82031
21.984,0,0.57087,0.13086,0.73529,0.81445
21.992,0,0.56012,0.13477,0.73137,0.81445
22,0,0.55034,0.15039,0.72549,0.79883
22.008,0,0.54154,0.16602,0.7098,0.78906
22.016,0,0.5347,0.17578,0.7,0.7793
22.024,0,0.52786,0.18555,0.6902,0.75977
22.032,0,0.52199,0.20117,0.67647,0.74023
22.04,0,0.51417,0.20508,0.66471,0.73047
22.048,0,0.50733,0.20117,0.6549,0.70898
22.056,0,0.50147,0.20117,0.6549,0.69922
22.064,0,0.4956,0.20508,0.65098,0.68945
22.072,0,0.48876,0.19531,0.65098,0.68555
22.08,0,0.48192,0.20117,0.6549,0.67578
22.088,0,0.47605,0.19531,0.6549,0.67969
22.096,0,0.47116,0.20117,0.66078,0.67578
22.104,0,0.46628,0.19531,0.66078,0.67969
22.112,0,0.46237,0.20117,0.66471,0.67578
22.12,0,0.45748,0.19531,0.66471,0.67969
22.128,0,0.45357,0.19531,0.67059,0.67969
22.136,0,0.44966,0.18945,0.67647,0.68555
22.144,0,0.44477,0.19531,0.67647,0.68555
22.152,0,0.43988,0.18555,0.68039,0.68555
22.16,0,0.43402,0.18555,0.68039,0.68555
22.168,0,0.42815,0.19531,0.6902,0.67969
22.176,0,0.42131,0.21094,0.69608,0.66406
22.184,0,0.41447,0.2207,0.70588,0.6543
22.192,0,0.40762,0.24023,0.7098,0.63477
22.2,0,0.40176,0.24609,0.70588,0.63477
22.208,0,0.39785,0.24023,0.7098,0.64062
22.216,0,0.39492,0.24023,0.70588,0.63477
22.224,0,0.39296,0.23438,0.69608,0.63477
22.232,0,0.39296,0.2207,0.67059,0.66016
22.24,0,0.39394,0.20117,0.66471,0.67969
22.248,0,0.39785,0.18555,0.67647,0.69531
22.256,0,0.40274,0.17578,0.67059,0.70508
22.264,0,0.40958,0.17969,0.66471,0.70508
