Time [s], RESP, II, V, AVR, PLETH
0,-0.11262,0.8,0.74118,0.025391,0.65396
0.008,-0.11068,0.8,0.73529,0.015625,0.68231
0.016,-0.1068,0.81569,0.74118,0,0.70479
0.024,-0.10291,0.82157,0.70588,-0.0039062,0.72239
0.032,-0.10097,0.77647,0.68039,0.0097656,0.73412
0.04,-0.097087,0.76667,0.67647,0.0058594,0.74291
0.048,-0.093204,0.79608,0.6902,0,0.74878
0.056,-0.08932,0.77059,0.72157,0.025391,0.75073
0.064,-0.087379,0.72157,0.71569,0.064453,0.74976
0.072,-0.083495,0.67059,0.7098,0.089844,0.74682
0.08,-0.081553,0.6549,0.70588,0.099609,0.74096
0.088,-0.07767,0.66078,0.71569,0.099609,0.73314
0.096,-0.075728,0.6549,0.71569,0.095703,0.72336
0.104,-0.073786,0.66471,0.71569,0.095703,0.71163
0.112,-0.071845,0.67059,0.73137,0.089844,0.69795
0.12,-0.071845,0.66078,0.82549,0.12109,0.68133
0.128,-0.069903,0.82549,0.87647,0.035156,0.66373
0.136,-0.069903,1.2118,0.97647,-0.20508,0.64418
0.144,-0.067961,1.5039,0.95686,-0.49805,0.62268
0.152,-0.067961,1.5039,0.67059,-0.49805,0.60117
0.16,-0.067961,0.73529,0.052941,-0.089844,0.57967
0.168,-0.067961,0.22353,-0.10588,0.24023,0.55816
0.176,-0.067961,0.31961,0.32941,0.25977,0.53763
0.184,-0.067961,0.55098,0.66471,0.15625,0.51808
0.192,-0.069903,0.70588,0.83529,0.085938,0.50244
0.2,-0.069903,0.75098,0.88039,0.064453,0.48876
0.208,-0.071845,0.77647,0.90196,0.054688,0.47507
0.216,-0.071845,0.78627,0.92549,0.044922,0.46237
0.224,-0.071845,0.78627,0.93725,0.044922,0.45064
0.232,-0.071845,0.79608,0.94118,0.044922,0.43891
0.24,-0.071845,0.81176,0.95098,0.035156,0.42913
0.248,-0.071845,0.82157,0.96078,0.025391,0.42033
0.256,-0.069903,0.84118,0.97647,0.015625,0.41251
0.264,-0.069903,0.86078,0.98627,0.0058594,0.40469
0.272,-0.067961,0.88039,1.002,-0.0039062,0.39785
0.28,-0.067961,0.8902,1.0216,-0.0097656,0.39198
0.288,-0.066019,0.91569,1.0471,-0.025391,0.3871
0.296,-0.066019,0.94706,1.051,-0.044922,0.38221
0.304,-0.064078,0.97647,1.0667,-0.054688,0.37928
0.312,-0.064078,1.0118,1.0922,-0.080078,0.37634
0.32,-0.062136,1.0471,1.1216,-0.09375,0.37243
0.328,-0.062136,1.0922,1.151,-0.125,0.3695
0.336,-0.062136,1.1275,1.1824,-0.14453,0.36657
0.344,-0.062136,1.1765,1.2176,-0.17383,0.36364
0.352,-0.062136,1.2471,1.2471,-0.21484,0.36168
0.36,-0.062136,1.2824,1.2824,-0.24023,0.35875
0.368,-0.064078,1.3118,1.302,-0.25977,0.35679
0.376,-0.064078,1.3529,1.3176,-0.28516,0.35386
0.384,-0.066019,1.3882,1.3118,-0.30469,0.35191
0.392,-0.067961,1.3922,1.302,-0.30859,0.34897
0.4,-0.069903,1.3784,1.2627,-0.30469,0.348
0.408,-0.069903,1.3431,1.2216,-0.2793,0.34702
0.416,-0.071845,1.2667,1.1667,-0.23438,0.34506
0.424,-0.071845,1.1863,1.1059,-0.18359,0.34311
0.432,-0.073786,1.0765,1.051,-0.11914,0.34018
0.44,-0.073786,0.98627,1.0059,-0.064453,0.33724
0.448,-0.073786,0.91569,0.96667,-0.019531,0.33529
0.456,-0.073786,0.86078,0.93725,0.015625,0.33236
0.464,-0.073786,0.81569,0.91569,0.041016,0.32942
0.472,-0.075728,0.7902,0.90588,0.060547,0.32649
0.48,-0.075728,0.77647,0.90588,0.070312,0.32356
0.488,-0.075728,0.77059,0.90588,0.080078,0.32063
0.496,-0.075728,0.77059,0.91569,0.076172,0.31672
0.504,-0.073786,0.77647,0.92157,0.080078,0.31378
0.512,-0.073786,0.78627,0.92549,0.076172,0.31183
0.52,-0.071845,0.77647,0.92549,0.085938,0.30792
0.528,-0.071845,0.78039,0.93137,0.080078,0.30401
0.536,-0.071845,0.78039,0.93725,0.085938,0.3001
0.544,-0.071845,0.78627,0.94118,0.085938,0.29521
0.552,-0.071845,0.7902,0.94706,0.085938,0.29032
0.56,-0.071845,0.79608,0.93725,0.076172,0.28641
0.568,-0.071845,0.77647,0.94706,0.089844,0.28348
0.576,-0.071845,0.78039,0.94706,0.089844,0.28446
0.584,-0.071845,0.77647,0.94118,0.089844,0.29032
0.592,-0.071845,0.77059,0.94118,0.089844,0.30401
0.6,-0.071845,0.77647,0.94118,0.095703,0.32747
0.608,-0.069903,0.78039,0.93725,0.089844,0.35386
0.616,-0.069903,0.76667,0.94118,0.099609,0.38514
0.624,-0.067961,0.77647,0.94706,0.095703,0.4262
0.632,-0.064078,0.77647,0.94118,0.095703,0.47312
0.64,-0.062136,0.78627,0.94706,0.089844,0.52199
0.648,-0.060194,0.81176,0.96078,0.080078,0.56891
0.656,-0.058252,0.85098,0.99216,0.060547,0.61193
0.664,-0.056311,0.88627,1.0059,0.044922,0.64907
0.672,-0.054369,0.90196,1.0118,0.03125,0.67937
0.68,-0.052427,0.92157,1.002,0.015625,0.70479
0.688,-0.050485,0.95098,0.99216,-0.0097656,0.72336
0.696,-0.048544,0.92157,0.95098,0,0.73705
0.704,-0.046602,0.90588,0.94118,0,0.74682
0.712,-0.042718,0.92157,0.93725,0,0.75171
0.72,-0.040777,0.92549,0.97059,0.0058594,0.75269
0.728,-0.038835,0.88627,0.98235,0.041016,0.75269
0.736,-0.036893,0.8451,0.97647,0.070312,0.75073
0.744,-0.03301,0.81569,0.97059,0.085938,0.74682
0.752,-0.031068,0.81176,0.97059,0.089844,0.73998
0.76,-0.029126,0.81176,0.96667,0.089844,0.73118
0.768,-0.027184,0.81176,0.97059,0.089844,0.72043
0.776,-0.025243,0.82549,0.97647,0.089844,0.70674
0.784,-0.021359,0.81176,1.0059,0.10547,0.6911
0.792,-0.021359,0.88627,1.1118,0.080078,0.67449
0.8,-0.019417,1.1627,1.1627,-0.089844,0.65494
0.808,-0.017476,1.5039,1.2176,-0.41406,0.63539
0.816,-0.017476,1.5039,1.0725,-0.49805,0.61584
0.824,-0.017476,1.4373,0.60588,-0.37891,0.59824
0.832,-0.017476,0.51569,0.11961,0.11133,0.57869
0.84,-0.017476,0.38431,0.38431,0.22461,0.55914
0.848,-0.017476,0.61961,0.7549,0.16992,0.53959
0.856,-0.017476,0.85686,1.002,0.064453,0.52102
0.864,-0.019417,0.93137,1.0961,0.025391,0.5044
0.872,-0.019417,0.95686,1.1176,0.019531,0.48876
0.88,-0.019417,0.96667,1.1275,0.015625,0.4741
0.888,-0.019417,0.97647,1.1412,0.0058594,0.46139
0.896,-0.019417,0.99216,1.1471,0,0.44966
0.904,-0.019417,1.002,1.151,-0.0097656,0.43891
0.912,-0.019417,1.0157,1.1627,-0.019531,0.42913
0.92,-0.019417,1.0275,1.1627,-0.025391,0.42229
0.928,-0.019417,1.0471,1.1765,-0.029297,0.41544
0.936,-0.019417,1.0569,1.1824,-0.039062,0.4086
0.944,-0.019417,1.0824,1.1863,-0.048828,0.40274
0.952,-0.017476,1.0961,1.1961,-0.064453,0.39296
0.96,-0.017476,1.1176,1.2118,-0.074219,0.38025
0.968,-0.015534,1.1471,1.2216,-0.089844,0.37243
0.976,-0.013592,1.1824,1.2373,-0.10352,0.36657
0.984,-0.01165,1.2118,1.2569,-0.125,0.36168
0.992,-0.007767,1.2529,1.2725,-0.14844,0.35777
1,-0.0058252,1.2922,1.302,-0.17969,0.35484
1.008,-0.0019417,1.3373,1.3275,-0.20508,0.35288
1.016,0.0019417,1.3882,1.3569,-0.23438,0.34995
1.024,0.0058252,1.4373,1.3824,-0.26367,0.348
1.032,0.007767,1.4882,1.398,-0.28906,0.34702
1.04,0.0097087,1.5039,1.4176,-0.30859,0.34604
1.048,0.013592,1.5039,1.4235,-0.33008,0.34506
1.056,0.015534,1.5039,1.4078,-0.33984,0.34311
1.064,0.017476,1.5039,1.3784,-0.33398,0.34213
1.072,0.021359,1.5039,1.3333,-0.32422,0.34018
1.08,0.023301,1.4627,1.2882,-0.28906,0.33822
1.088,0.027184,1.3824,1.2216,-0.24023,0.33724
1.096,0.029126,1.2922,1.1627,-0.18945,0.33529
1.104,0.03301,1.202,1.1059,-0.12891,0.33333
1.112,0.034951,1.1275,1.0608,-0.080078,0.33138
1.12,0.038835,1.0471,1.0216,-0.035156,0.32942
1.128,0.040777,1.002,1.002,-0.0039062,0.32649
1.136,0.042718,0.96667,0.98235,0.015625,0.32454
1.144,0.046602,0.94118,0.97647,0.03125,0.32356
1.152,0.048544,0.92549,0.97059,0.041016,0.3216
1.16,0.052427,0.92157,0.97059,0.044922,0.31867
1.168,0.054369,0.91569,0.96667,0.054688,0.31574
1.176,0.058252,0.91569,0.97059,0.050781,0.31183
1.184,0.062136,0.92157,0.97059,0.050781,0.30792
1.192,0.064078,0.91569,0.96667,0.050781,0.30401
1.2,0.067961,0.91569,0.97059,0.050781,0.29912
1.208,0.069903,0.91176,0.96078,0.054688,0.29423
1.216,0.071845,0.91569,0.95686,0.054688,0.28935
1.224,0.071845,0.90588,0.95098,0.060547,0.28543
1.232,0.073786,0.90588,0.95098,0.060547,0.28446
1.24,0.075728,0.90196,0.95686,0.064453,0.28543
1.248,0.075728,0.89608,0.95098,0.070312,0.29228
1.256,0.07767,0.8902,0.95098,0.070312,0.30499
1.264,0.07767,0.8902,0.94118,0.070312,0.32551
1.272,0.079612,0.88039,0.93725,0.070312,0.35582
1.28,0.081553,0.88627,0.93137,0.070312,0.39394
1.288,0.083495,0.88039,0.93725,0.076172,0.43793
1.296,0.087379,0.88039,0.93137,0.076172,0.48485
1.304,0.091262,0.88039,0.92549,0.076172,0.53177
1.312,0.095146,0.88039,0.92549,0.070312,0.57576
1.32,0.099029,0.89608,0.93137,0.064453,0.61584
1.328,0.10291,0.93137,0.95686,0.050781,0.65103
1.336,0.1068,0.97647,0.97647,0.025391,0.67937
1.344,0.11068,1.002,0.98235,0,0.6999
1.352,0.11456,1.0118,0.97647,-0.0039062,0.71457
1.36,0.11845,1.0471,0.97647,-0.025391,0.7263
1.368,0.12233,1.0275,0.93725,-0.029297,0.73607
1.376,0.12427,1.002,0.91176,-0.019531,0.74291
1.384,0.12816,1.002,0.90588,-0.019531,0.74682
1.392,0.1301,1.0059,0.92549,-0.019531,0.7478
1.4,0.13398,0.96667,0.93725,0.019531,0.74585
1.408,0.13592,0.91569,0.92157,0.060547,0.74194
1.416,0.13981,0.87647,0.91176,0.085938,0.73509
1.424,0.14175,0.86078,0.90588,0.089844,0.7263
1.432,0.14369,0.85686,0.90588,0.095703,0.71457
1.44,0.14563,0.86078,0.90588,0.089844,0.70088
1.448,0.14757,0.85686,0.90588,0.095703,0.68622
1.456,0.14951,0.86667,0.90588,0.095703,0.67058
1.464,0.14951,0.85686,0.98235,0.11133,0.652
1.472,0.14951,0.99608,1.0471,0.054688,0.63245
1.48,0.14951,1.3078,1.1059,-0.1543,0.61095
1.488,0.14951,1.5039,1.0569,-0.46875,0.58847
1.496,0.14951,1.5039,0.76667,-0.49805,0.56696
1.504,0.14951,0.94706,0.20392,-0.11914,0.54545
1.512,0.14757,0.31373,-0.011765,0.26562,0.52493
1.52,0.14757,0.42941,0.40392,0.30078,0.50635
1.528,0.14563,0.69608,0.7549,0.17578,0.48876
1.536,0.14369,0.90196,0.94118,0.076172,0.47214
1.544,0.14175,0.95098,1.002,0.044922,0.45748
1.552,0.14175,0.97059,1.0216,0.035156,0.44575
1.56,0.13981,0.98235,1.0314,0.03125,0.435
1.568,0.13981,0.98627,1.0412,0.025391,0.42522
1.576,0.13981,1.002,1.0412,0.019531,0.41642
1.584,0.13981,1.0059,1.0471,0.015625,0.40762
1.592,0.14175,1.0216,1.051,0,0.39883
1.6,0.14175,1.0275,1.0569,0,0.39198
1.608,0.14369,1.0471,1.0608,-0.013672,0.38514
1.616,0.14563,1.0667,1.0667,-0.025391,0.37928
1.624,0.14757,1.0824,1.0765,-0.039062,0.37341
1.632,0.14951,1.102,1.0863,-0.048828,0.36852
1.64,0.15146,1.1216,1.0922,-0.058594,0.36364
1.648,0.1534,1.1471,1.1059,-0.074219,0.35973
1.656,0.15534,1.1725,1.1216,-0.09375,0.35679
1.664,0.15728,1.2078,1.1471,-0.10352,0.35386
1.672,0.15922,1.2431,1.1627,-0.12891,0.35093
1.68,0.16117,1.2882,1.1863,-0.16016,0.348
1.688,0.15922,1.3275,1.2078,-0.18945,0.34506
1.696,0.15922,1.3725,1.2314,-0.21484,0.34213
1.704,0.15922,1.402,1.2529,-0.24414,0.3392
1.712,0.15728,1.4431,1.2627,-0.26953,0.33627
1.72,0.15534,1.4686,1.2667,-0.28906,0.33333
1.728,0.1534,1.4882,1.2627,-0.30469,0.32942
1.736,0.14951,1.4922,1.2529,-0.30859,0.32649
1.744,0.14757,1.4784,1.2275,-0.30469,0.32356
1.752,0.14369,1.4471,1.1863,-0.28906,0.32063
1.76,0.14175,1.3882,1.1373,-0.25391,0.31672
1.768,0.13786,1.3118,1.0863,-0.19922,0.31476
1.776,0.13592,1.2216,1.0275,-0.14844,0.31281
1.784,0.13398,1.1373,0.97647,-0.09375,0.30987
1.792,0.13204,1.0608,0.93725,-0.048828,0.30596
1.8,0.12816,1.002,0.90588,-0.0097656,0.30303
1.808,0.12621,0.95686,0.88039,0.015625,0.29912
1.816,0.12427,0.92157,0.86667,0.041016,0.29521
1.824,0.12233,0.90588,0.85686,0.050781,0.2913
1.832,0.12233,0.88627,0.85098,0.060547,0.28641
1.84,0.12233,0.88039,0.8451,0.064453,0.28152
1.848,0.12427,0.87647,0.8451,0.070312,0.27664
1.856,0.12427,0.87059,0.8451,0.070312,0.27175
1.864,0.12621,0.87059,0.8451,0.076172,0.26686
1.872,0.12816,0.86667,0.85098,0.080078,0.26295
1.88,0.12816,0.86667,0.84118,0.076172,0.25904
1.888,0.12816,0.87059,0.83529,0.080078,0.25415
1.896,0.1301,0.85686,0.84118,0.080078,0.24927
1.904,0.1301,0.85686,0.83137,0.080078,0.24438
1.912,0.1301,0.85686,0.83137,0.080078,0.24242
1.92,0.1301,0.8451,0.82157,0.085938,0.24536
1.928,0.13204,0.8451,0.82157,0.089844,0.25513
1.936,0.13204,0.83529,0.81569,0.089844,0.27273
1.944,0.13398,0.83137,0.81176,0.095703,0.29912
1.952,0.13398,0.82549,0.8,0.095703,0.33627
1.96,0.13398,0.82157,0.8,0.099609,0.37928
1.968,0.13592,0.81569,0.79608,0.095703,0.42717
1.976,0.13592,0.81569,0.79608,0.099609,0.47019
1.984,0.13592,0.81569,0.79608,0.095703,0.50929
1.992,0.13592,0.81176,0.79608,0.099609,0.55034
2,0.13786,0.84118,0.80588,0.080078,0.58944
2.008,0.13786,0.88039,0.83529,0.060547,0.62268
2.016,0.13786,0.92157,0.8451,0.041016,0.65103
2.024,0.13592,0.93137,0.84118,0.019531,0.67449
2.032,0.13592,0.96078,0.85098,0,0.6911
2.04,0.13592,0.97647,0.83137,-0.013672,0.70381
2.048,0.13398,0.94118,0.7902,-0.0039062,0.71261
2.056,0.13398,0.93137,0.78039,0,0.7175
2.064,0.13398,0.94118,0.78627,0,0.71945
2.072,0.13398,0.92549,0.80588,0.015625,0.71848
2.08,0.13398,0.87059,0.79608,0.064453,0.71554
2.088,0.13398,0.81569,0.78627,0.095703,0.70968
2.096,0.13398,0.78627,0.78039,0.11523,0.70186
2.104,0.13592,0.78039,0.77647,0.12109,0.69208
2.112,0.13592,0.77647,0.77647,0.11523,0.67937
2.12,0.13592,0.77647,0.77647,0.12109,0.66569
2.128,0.13786,0.78039,0.78039,0.12109,0.64907
2.136,0.13592,0.77059,0.77647,0.12109,0.6305
2.144,0.13592,0.8,0.90588,0.13477,0.60997
2.152,0.13592,0.97647,0.93725,0.025391,0.58847
2.16,0.13592,1.3784,0.99216,-0.23438,0.56696
2.168,0.13398,1.5039,0.88039,-0.49805,0.54448
2.176,0.13398,1.498,0.5098,-0.41992,0.52297
2.184,0.13398,0.52941,-0.066667,0.085938,0.5044
2.192,0.13398,0.22941,-0.10196,0.32422,0.48778
2.2,0.13204,0.4,0.4098,0.29102,0.47019
2.208,0.13204,0.67059,0.7098,0.16992,0.45357
2.216,0.13204,0.81569,0.86078,0.095703,0.43793
2.224,0.13204,0.85098,0.89608,0.080078,0.42424
2.232,0.1301,0.85686,0.90588,0.076172,0.41056
2.24,0.1301,0.87059,0.92157,0.076172,0.3998
2.248,0.13204,0.87647,0.93137,0.070312,0.38905
2.256,0.13204,0.88039,0.94118,0.070312,0.38025
2.264,0.13398,0.88627,0.94706,0.064453,0.37243
2.272,0.13592,0.90588,0.95098,0.044922,0.36461
2.28,0.13786,0.91569,0.95686,0.041016,0.35875
2.288,0.13981,0.92549,0.97059,0.03125,0.35386
2.296,0.14369,0.94118,0.98235,0.019531,0.34995
2.304,0.14563,0.95686,0.99216,0.0097656,0.34506
2.312,0.14757,0.97647,1.002,0,0.34115
2.32,0.15146,0.99608,1.0118,-0.013672,0.33724
2.328,0.1534,1.0157,1.0216,-0.025391,0.33431
2.336,0.15534,1.0471,1.0412,-0.044922,0.33138
2.344,0.15728,1.0765,1.0608,-0.064453,0.32845
2.352,0.15922,1.1118,1.0863,-0.083984,0.32551
2.36,0.16117,1.151,1.1118,-0.11523,0.32356
2.368,0.16311,1.1922,1.1373,-0.14453,0.32063
2.376,0.16117,1.2373,1.1569,-0.16992,0.31867
2.384,0.16117,1.2765,1.1824,-0.19922,0.31574
2.392,0.16117,1.302,1.1922,-0.22461,0.31476
2.4,0.15922,1.3275,1.202,-0.24414,0.31378
2.408,0.15728,1.3431,1.202,-0.25977,0.31183
2.416,0.15534,1.3471,1.1863,-0.25977,0.30987
2.424,0.15146,1.3275,1.1569,-0.25391,0.30694
2.432,0.14951,1.2882,1.1216,-0.22852,0.30499
2.44,0.14563,1.2216,1.0765,-0.18359,0.30205
2.448,0.14369,1.1471,1.0275,-0.13477,0.29912
2.456,0.13981,1.0569,0.98235,-0.080078,0.29619
2.464,0.13786,0.96667,0.93725,-0.019531,0.29326
2.472,0.13398,0.89608,0.89608,0.019531,0.29032
2.48,0.13204,0.84118,0.87059,0.060547,0.28739
2.488,0.12816,0.8,0.85686,0.085938,0.28446
2.496,0.12621,0.76667,0.85686,0.11133,0.28152
2.504,0.12621,0.7451,0.8451,0.11523,0.27957
2.512,0.12621,0.74118,0.84118,0.125,0.27664
2.52,0.12816,0.73529,0.84118,0.13086,0.27273
2.528,0.1301,0.73137,0.8451,0.13086,0.26882
2.536,0.13398,0.73529,0.85098,0.13086,0.26393
2.544,0.13592,0.74118,0.85098,0.13086,0.25904
2.552,0.13981,0.73529,0.85098,0.13086,0.25415
2.56,0.14175,0.72549,0.85686,0.13477,0.24927
2.568,0.14563,0.72157,0.85686,0.13477,0.2434
2.576,0.14757,0.72157,0.85686,0.13477,0.23851
2.584,0.14951,0.71569,0.85686,0.14062,0.2346
2.592,0.15146,0.7098,0.85686,0.14062,0.2346
2.6,0.15146,0.70588,0.85686,0.14062,0.23851
2.608,0.1534,0.70588,0.85686,0.14062,0.24829
2.616,0.15534,0.69608,0.85686,0.15039,0.26588
2.624,0.15534,0.69608,0.85686,0.15039,0.29228
2.632,0.15534,0.69608,0.85686,0.15039,0.32942
2.64,0.15728,0.69608,0.85686,0.14453,0.37341
2.648,0.15728,0.69608,0.85686,0.15625,0.42229
2.656,0.15728,0.69608,0.86078,0.15039,0.47312
2.664,0.15728,0.69608,0.85686,0.15625,0.52199
2.672,0.15922,0.70588,0.86078,0.14453,0.56696
2.68,0.15922,0.74118,0.88627,0.125,0.60704
2.688,0.16117,0.78039,0.91569,0.10547,0.6393
2.696,0.16117,0.81569,0.92549,0.076172,0.66569
2.704,0.16117,0.82549,0.92157,0.070312,0.68622
2.712,0.16117,0.86078,0.93725,0.044922,0.69892
2.72,0.16117,0.87059,0.91569,0.03125,0.70674
2.728,0.16117,0.83137,0.88627,0.044922,0.71261
2.736,0.16117,0.83529,0.87647,0.044922,0.71652
2.744,0.16117,0.83529,0.8902,0.044922,0.7175
2.752,0.16117,0.81569,0.91569,0.076172,0.71554
2.76,0.16117,0.7549,0.90588,0.12109,0.71163
2.768,0.16311,0.7098,0.89608,0.15625,0.70479
2.776,0.16311,0.69608,0.8902,0.16602,0.69599
2.784,0.16311,0.6902,0.89608,0.16992,0.68426
2.792,0.16311,0.6902,0.90196,0.16602,0.6696
2.8,0.16311,0.69608,0.90588,0.16992,0.65396
2.808,0.16505,0.69608,0.90588,0.16602,0.63539
2.816,0.16505,0.68627,0.93725,0.17969,0.61779
2.824,0.16699,0.75098,1.0608,0.18555,0.6002
2.832,0.16699,0.96078,1.0961,0.041016,0.58065
2.84,0.16699,1.3824,1.1373,-0.25,0.55914
2.848,0.16699,1.5039,0.99216,-0.49805,0.53763
2.856,0.16699,1.2882,0.56471,-0.30469,0.51613
2.864,0.16699,0.35882,0.043137,0.20117,0.49658
2.872,0.16699,0.18431,0.2549,0.37109,0.47801
2.88,0.16505,0.3902,0.62941,0.32031,0.46041
2.888,0.16311,0.67059,0.91176,0.18555,0.44379
2.896,0.16311,0.78627,1.0275,0.125,0.43011
2.904,0.16117,0.81176,1.0667,0.11523,0.4174
2.912,0.15922,0.81569,1.0824,0.11133,0.40567
2.92,0.15922,0.83137,1.0922,0.099609,0.39687
2.928,0.15728,0.8451,1.102,0.089844,0.38905
2.936,0.15728,0.85686,1.1118,0.089844,0.38221
2.944,0.15728,0.86078,1.1176,0.085938,0.37537
2.952,0.15728,0.88039,1.1275,0.070312,0.36852
2.96,0.15922,0.89608,1.1412,0.064453,0.36266
2.968,0.16117,0.91176,1.1471,0.054688,0.35679
2.976,0.16311,0.93137,1.1569,0.041016,0.35191
2.984,0.16505,0.95098,1.1667,0.025391,0.34702
2.992,0.16699,0.97059,1.1765,0.015625,0.34213
3,0.17087,0.99608,1.1922,0,0.34213
3.008,0.17282,1.0314,1.2118,-0.019531,0.34409
3.016,0.17476,1.0608,1.2275,-0.039062,0.34409
3.024,0.1767,1.0961,1.2529,-0.058594,0.34311
3.032,0.17864,1.1373,1.2725,-0.089844,0.34213
3.04,0.18058,1.1824,1.298,-0.11523,0.34115
3.048,0.18058,1.2216,1.3216,-0.14844,0.33822
3.056,0.18058,1.2667,1.3471,-0.16992,0.33627
3.064,0.17864,1.3078,1.3627,-0.19922,0.33431
3.072,0.1767,1.3471,1.3784,-0.23438,0.33138
3.08,0.17476,1.3725,1.3882,-0.25391,0.32942
3.088,0.17282,1.3922,1.3784,-0.26367,0.32649
3.096,0.17087,1.398,1.3667,-0.26367,0.32356
3.104,0.16699,1.3725,1.3373,-0.25977,0.3216
3.112,0.16505,1.3333,1.2922,-0.23438,0.31867
3.12,0.16117,1.2667,1.2471,-0.18945,0.31672
3.128,0.15922,1.1863,1.1961,-0.13867,0.31476
3.136,0.15534,1.102,1.1471,-0.083984,0.31378
3.144,0.1534,1.0275,1.102,-0.029297,0.31183
3.152,0.14951,0.95098,1.0667,0.015625,0.30987
3.16,0.14757,0.90588,1.0471,0.044922,0.30694
3.168,0.14369,0.87059,1.0216,0.070312,0.30401
3.176,0.14369,0.84118,1.0157,0.085938,0.30108
3.184,0.14175,0.83137,1.0118,0.089844,0.29717
3.192,0.14369,0.82157,1.0157,0.099609,0.29326
3.2,0.14369,0.82157,1.0157,0.099609,0.28935
3.208,0.14563,0.82157,1.0216,0.099609,0.28543
3.216,0.14951,0.82549,1.0216,0.099609,0.28055
3.224,0.15146,0.82157,1.0157,0.099609,0.27664
3.232,0.15534,0.83137,1.0157,0.099609,0.2737
3.24,0.15728,0.82157,1.0118,0.099609,0.27077
3.248,0.15922,0.82157,1.0157,0.099609,0.26588
3.256,0.16117,0.82157,1.0118,0.10547,0.26197
3.264,0.16311,0.81569,1.0157,0.099609,0.25904
3.272,0.16505,0.81569,1.0118,0.11133,0.25806
3.28,0.16505,0.81176,1.0118,0.11133,0.26295
3.288,0.16699,0.81176,1.002,0.11133,0.27468
3.296,0.16699,0.80588,1.002,0.11523,0.29521
3.304,0.16699,0.8,0.99608,0.11523,0.32454
3.312,0.16699,0.8,0.98627,0.11523,0.36364
3.32,0.16699,0.80588,0.98627,0.11523,0.40958
3.328,0.16699,0.80588,0.98627,0.11133,0.45846
3.336,0.16699,0.80588,0.99216,0.10547,0.50244
3.344,0.16699,0.81176,0.98627,0.10547,0.54154
3.352,0.16699,0.83137,1.002,0.089844,0.58162
3.36,0.16699,0.86667,1.0216,0.070312,0.61877
3.368,0.16699,0.91176,1.0412,0.044922,0.65103
3.376,0.16505,0.93137,1.0471,0.025391,0.67742
3.384,0.16505,0.94706,1.0373,0.0097656,0.69795
3.392,0.16505,0.99216,1.0471,-0.013672,0.71261
3.4,0.16505,0.97059,1.0059,-0.019531,0.72336
3.408,0.16505,0.94118,0.98627,0,0.73021
3.416,0.16505,0.94118,0.97647,-0.0039062,0.73314
3.424,0.16505,0.95098,1.002,0,0.73412
3.432,0.16699,0.90588,1.0059,0.041016,0.73216
3.44,0.16699,0.85098,0.99608,0.080078,0.72727
3.448,0.16893,0.81176,0.97647,0.11133,0.72043
3.456,0.16893,0.79608,0.97647,0.11523,0.71065
3.464,0.16893,0.79608,0.97647,0.12109,0.6999
3.472,0.17087,0.80588,0.97647,0.11523,0.68719
3.48,0.17087,0.8,0.97647,0.11523,0.67155
3.488,0.17087,0.81176,0.97647,0.11523,0.65396
3.496,0.17087,0.80588,1.051,0.13477,0.63441
3.504,0.17087,0.92157,1.1373,0.085938,0.61388
3.512,0.17087,1.1863,1.1863,-0.09375,0.59335
3.52,0.17087,1.5039,1.1961,-0.4082,0.57185
3.528,0.16893,1.5039,0.92549,-0.49805,0.55034
3.536,0.16893,1.0314,0.39412,-0.17383,0.52981
3.544,0.16699,0.31961,0.11373,0.25,0.51222
3.552,0.16699,0.3,0.4451,0.30078,0.49658
3.56,0.16505,0.61569,0.8,0.20117,0.48094
3.568,0.16311,0.85098,1.0157,0.085938,0.4653
3.576,0.16117,0.91569,1.0922,0.050781,0.45161
3.584,0.15922,0.93725,1.1176,0.035156,0.43891
3.592,0.15728,0.95098,1.1275,0.025391,0.42717
3.6,0.15728,0.96078,1.1314,0.019531,0.4174
3.608,0.15534,0.97647,1.1412,0.019531,0.40762
3.616,0.15534,0.97647,1.1471,0.015625,0.3998
3.624,0.15728,0.99216,1.151,0.0097656,0.39198
3.632,0.15728,1.002,1.1569,0,0.38514
3.64,0.15922,1.0157,1.1627,-0.0097656,0.37928
3.648,0.16117,1.0314,1.1725,-0.019531,0.37341
3.656,0.16117,1.0569,1.1824,-0.029297,0.3695
3.664,0.16311,1.0725,1.1922,-0.044922,0.36657
3.672,0.16505,1.0961,1.202,-0.058594,0.36266
3.68,0.16699,1.1176,1.2118,-0.070312,0.35973
3.688,0.16699,1.1471,1.2314,-0.083984,0.35582
3.696,0.16893,1.1765,1.2471,-0.10352,0.35288
3.704,0.16893,1.2118,1.2667,-0.125,0.35093
3.712,0.16893,1.2471,1.2922,-0.14844,0.348
3.72,0.16893,1.2922,1.3118,-0.17969,0.34604
3.728,0.16893,1.3373,1.3373,-0.20898,0.34409
3.736,0.16699,1.3784,1.3569,-0.24023,0.34115
3.744,0.16699,1.4176,1.3667,-0.26367,0.3392
3.752,0.16311,1.4471,1.3784,-0.28906,0.33724
3.76,0.16117,1.4725,1.3784,-0.30859,0.33529
3.768,0.15728,1.4824,1.3667,-0.31445,0.33431
3.776,0.1534,1.4686,1.3431,-0.31445,0.33236
3.784,0.14951,1.4431,1.3078,-0.29492,0.32942
3.792,0.14757,1.3922,1.2627,-0.26367,0.32747
3.8,0.14369,1.3216,1.2118,-0.21484,0.32454
3.808,0.13981,1.2373,1.1627,-0.16406,0.3216
3.816,0.13592,1.151,1.1118,-0.10938,0.31867
3.824,0.13398,1.0824,1.0725,-0.064453,0.31574
3.832,0.1301,1.0157,1.0373,-0.019531,0.31281
3.84,0.12621,0.96667,1.0118,0.0097656,0.30987
3.848,0.12621,0.93725,1.002,0.03125,0.30596
3.856,0.12427,0.91176,0.99216,0.044922,0.30303
3.864,0.12427,0.90196,0.98235,0.054688,0.3001
3.872,0.12427,0.89608,0.98235,0.060547,0.29814
3.88,0.12621,0.90196,0.98235,0.060547,0.29521
3.888,0.12621,0.89608,0.98235,0.064453,0.2913
3.896,0.1301,0.8902,0.98235,0.060547,0.28739
3.904,0.13204,0.89608,0.98627,0.054688,0.2825
3.912,0.13398,0.8902,0.98235,0.064453,0.27761
3.92,0.13398,0.8902,0.98235,0.064453,0.27273
3.928,0.13592,0.89608,0.97647,0.060547,0.26784
3.936,0.13592,0.8902,0.97647,0.060547,0.26295
3.944,0.13592,0.88627,0.97059,0.060547,0.261
3.952,0.13786,0.88039,0.96667,0.070312,0.26295
3.96,0.13981,0.87647,0.96667,0.070312,0.27175
3.968,0.14175,0.86667,0.96078,0.070312,0.28446
3.976,0.14175,0.86078,0.95686,0.070312,0.30401
3.984,0.14369,0.86667,0.95098,0.070312,0.33431
3.992,0.14369,0.86078,0.95098,0.070312,0.37341
4,0.14369,0.86078,0.95098,0.076172,0.41935
4.008,0.14369,0.86078,0.95098,0.070312,0.46921
4.016,0.14369,0.87059,0.94706,0.070312,0.51906
4.024,0.14369,0.87647,0.95098,0.064453,0.56598
4.032,0.14175,0.89608,0.96667,0.050781,0.60802
4.04,0.14175,0.93137,0.99216,0.03125,0.64418
4.048,0.13981,0.96667,1.002,0.0058594,0.67351
4.056,0.13786,0.97647,1.0059,-0.0097656,0.69697
4.064,0.13786,1.0059,1.002,-0.025391,0.71457
4.072,0.13398,1.0314,0.99216,-0.048828,0.72532
4.08,0.13204,0.99608,0.95098,-0.039062,0.73118
4.088,0.12621,0.98235,0.93725,-0.035156,0.73607
4.096,0.12233,0.97647,0.93137,-0.025391,0.73803
4.104,0.11845,0.97059,0.96078,-0.013672,0.73803
4.112,0.11262,0.92157,0.95098,0.025391,0.73607
4.12,0.10874,0.88039,0.94706,0.054688,0.73118
4.128,0.10291,0.8451,0.93725,0.076172,0.72434
4.136,0.097087,0.83137,0.93725,0.089844,0.71554
4.144,0.091262,0.82549,0.93725,0.089844,0.70381
4.152,0.085437,0.82549,0.93725,0.089844,0.68915
4.16,0.081553,0.83529,0.94118,0.085938,0.67351
4.168,0.073786,0.82549,0.95686,0.089844,0.65494
4.176,0.067961,0.82157,1.0667,0.099609,0.63734
4.184,0.062136,1.0412,1.0961,-0.0097656,0.61975
4.192,0.056311,1.4333,1.1569,-0.26953,0.6002
4.2,0.048544,1.5039,1.0725,-0.49805,0.57967
4.208,0.040777,1.5039,0.7,-0.46875,0.55914
4.216,0.031068,0.62941,0.1098,0.03125,0.53861
4.224,0.023301,0.30392,0.062745,0.27539,0.51906
4.232,0.013592,0.46471,0.56078,0.2793,0.50049
4.24,0.0058252,0.73137,0.86078,0.13086,0.48387
4.248,-0.0038835,0.87647,1.0118,0.050781,0.46823
4.256,-0.01165,0.90588,1.051,0.041016,0.45455
4.264,-0.019417,0.92549,1.0667,0.035156,0.44282
4.272,-0.025243,0.93725,1.0765,0.025391,0.43206
4.28,-0.031068,0.94118,1.0824,0.019531,0.42326
4.288,-0.036893,0.95098,1.0922,0.015625,0.41642
4.296,-0.038835,0.96078,1.0922,0.0097656,0.40958
4.304,-0.042718,0.96667,1.102,0.0058594,0.40274
4.312,-0.04466,0.98235,1.102,-0.0039062,0.39687
4.32,-0.046602,1.002,1.1118,-0.019531,0.39101
4.328,-0.048544,1.0216,1.1216,-0.025391,0.38612
4.336,-0.048544,1.0314,1.1314,-0.039062,0.38123
4.344,-0.050485,1.0471,1.1412,-0.048828,0.37634
4.352,-0.050485,1.0667,1.1569,-0.064453,0.37243
4.36,-0.052427,1.0961,1.1627,-0.083984,0.36852
4.368,-0.054369,1.1275,1.1863,-0.099609,0.36461
4.376,-0.058252,1.1627,1.202,-0.125,0.36168
4.384,-0.060194,1.202,1.2275,-0.13867,0.35875
4.392,-0.064078,1.2471,1.2471,-0.16992,0.35679
4.4,-0.067961,1.2882,1.2765,-0.19922,0.35484
4.408,-0.071845,1.3216,1.298,-0.22461,0.35191
4.416,-0.075728,1.3569,1.3176,-0.25,0.34995
4.424,-0.079612,1.398,1.3275,-0.2793,0.34702
4.432,-0.083495,1.4333,1.3333,-0.30469,0.34409
4.44,-0.087379,1.4471,1.3333,-0.31445,0.34115
4.448,-0.08932,1.4471,1.3118,-0.31836,0.33822
4.456,-0.093204,1.4373,1.2765,-0.31836,0.33627
4.464,-0.095146,1.398,1.2373,-0.29883,0.33333
4.472,-0.099029,1.3275,1.1922,-0.25,0.3304
4.48,-0.10097,1.2431,1.1412,-0.18945,0.32747
4.488,-0.10291,1.151,1.0863,-0.13477,0.32454
4.496,-0.10485,1.0569,1.0373,-0.080078,0.32258
4.504,-0.10485,0.99216,0.99608,-0.035156,0.32063
4.512,-0.1068,0.92549,0.97059,0,0.31867
4.52,-0.10874,0.88039,0.95098,0.035156,0.31574
4.528,-0.10874,0.85098,0.94118,0.050781,0.31281
4.536,-0.10874,0.83529,0.93137,0.060547,0.3089
4.544,-0.10874,0.83137,0.93137,0.070312,0.30596
4.552,-0.10874,0.83137,0.93725,0.070312,0.30205
4.56,-0.1068,0.82549,0.93137,0.070312,0.29814
4.568,-0.10485,0.82549,0.94118,0.076172,0.29326
4.576,-0.10485,0.83137,0.94706,0.070312,0.28935
4.584,-0.10291,0.82157,0.94118,0.076172,0.28446
4.592,-0.10291,0.82157,0.94706,0.080078,0.27957
4.6,-0.10291,0.82549,0.94706,0.076172,0.27566
4.608,-0.10291,0.83137,0.94118,0.070312,0.27273
4.616,-0.10291,0.81569,0.94706,0.076172,0.26979
4.624,-0.10485,0.81569,0.94118,0.076172,0.26686
4.632,-0.10485,0.81569,0.94118,0.085938,0.26882
4.64,-0.10485,0.81176,0.93137,0.080078,0.27566
4.648,-0.10485,0.80588,0.92549,0.085938,0.2913
4.656,-0.10485,0.79608,0.92549,0.089844,0.31574
4.664,-0.10485,0.8,0.92549,0.089844,0.34995
4.672,-0.10485,0.79608,0.92549,0.089844,0.39296
4.68,-0.10291,0.8,0.92549,0.095703,0.44086
4.688,-0.10291,0.7902,0.92549,0.089844,0.49169
4.696,-0.10097,0.7902,0.92549,0.095703,0.54154
4.704,-0.10097,0.80588,0.93137,0.085938,0.5826
4.712,-0.099029,0.84118,0.95686,0.076172,0.61584
4.72,-0.099029,0.88039,0.98235,0.054688,0.64809
4.728,-0.097087,0.90588,0.99216,0.035156,0.67644
4.736,-0.095146,0.90588,0.98235,0.03125,0.69892
4.744,-0.095146,0.95098,0.99216,0,0.71652
4.752,-0.093204,0.95686,0.95686,-0.0097656,0.72923
4.76,-0.091262,0.90588,0.92549,0.0097656,0.73803
4.768,-0.08932,0.90588,0.92157,0.0058594,0.74291
4.776,-0.08932,0.92157,0.95098,0.0097656,0.74487
4.784,-0.087379,0.88627,0.96078,0.041016,0.74389
4.792,-0.085437,0.84118,0.96078,0.076172,0.74096
4.8,-0.085437,0.8,0.95098,0.10547,0.73509
4.808,-0.083495,0.7902,0.95098,0.11133,0.72727
4.816,-0.081553,0.7902,0.94118,0.11133,0.7175
4.824,-0.081553,0.7902,0.94706,0.11133,0.70577
4.832,-0.079612,0.79608,0.95686,0.11133,0.69208
4.84,-0.079612,0.78627,0.96078,0.11133,0.67546
4.848,-0.07767,0.7902,1.0569,0.13477,0.65787
4.856,-0.075728,0.95686,1.1059,0.050781,0.63832
4.864,-0.075728,1.3333,1.1961,-0.19336,0.61779
4.872,-0.075728,1.5039,1.1725,-0.49805,0.59629
4.88,-0.073786,1.5039,0.88627,-0.49805,0.5738
4.888,-0.075728,0.86667,0.2902,-0.089844,0.5523
4.896,-0.075728,0.33922,0.11373,0.24609,0.53177
4.904,-0.075728,0.42941,0.52941,0.2793,0.51222
4.912,-0.075728,0.67059,0.85098,0.16992,0.4956
4.92,-0.075728,0.83529,1.0275,0.089844,0.48192
4.928,-0.075728,0.88039,1.0824,0.070312,0.46725
4.936,-0.075728,0.90196,1.0922,0.064453,0.45455
4.944,-0.075728,0.92549,1.102,0.050781,0.44184
4.952,-0.07767,0.92549,1.1176,0.050781,0.43109
4.96,-0.07767,0.92549,1.1275,0.044922,0.42131
4.968,-0.075728,0.94118,1.1412,0.041016,0.41153
4.976,-0.075728,0.95686,1.1412,0.025391,0.40371
4.984,-0.075728,0.96078,1.1569,0.03125,0.39589
4.992,-0.073786,0.97647,1.1627,0.019531,0.38905
5,-0.071845,1.002,1.1765,0.0097656,0.38319
5.008,-0.069903,1.0216,1.1863,0,0.37732
5.016,-0.066019,1.0471,1.1922,-0.0097656,0.37243
5.024,-0.064078,1.0725,1.2078,-0.025391,0.3695
5.032,-0.062136,1.0922,1.2275,-0.044922,0.36559
5.04,-0.058252,1.1216,1.2431,-0.058594,0.36168
5.048,-0.058252,1.1667,1.2569,-0.089844,0.35679
5.056,-0.056311,1.2275,1.2765,-0.125,0.35191
5.064,-0.056311,1.2667,1.3118,-0.14844,0.348
5.072,-0.054369,1.298,1.3431,-0.16992,0.34506
5.08,-0.054369,1.3333,1.3784,-0.18945,0.34213
5.088,-0.052427,1.3784,1.3922,-0.21875,0.3392
5.096,-0.052427,1.4176,1.4176,-0.24414,0.33627
5.104,-0.052427,1.4529,1.4235,-0.27344,0.33431
5.112,-0.054369,1.4922,1.4235,-0.29883,0.33138
5.12,-0.054369,1.5039,1.4078,-0.30859,0.32942
5.128,-0.056311,1.4882,1.3725,-0.29883,0.32747
5.136,-0.056311,1.4627,1.3216,-0.28516,0.32649
5.144,-0.058252,1.398,1.2765,-0.24414,0.32454
5.152,-0.058252,1.2922,1.2176,-0.18359,0.32258
5.16,-0.058252,1.1922,1.1569,-0.11914,0.31965
5.168,-0.060194,1.1118,1.0922,-0.074219,0.31769
5.176,-0.060194,1.0471,1.051,-0.035156,0.31476
5.184,-0.060194,0.98235,1.0216,0.0097656,0.31183
5.192,-0.060194,0.92549,1.002,0.041016,0.3089
5.2,-0.060194,0.90196,0.98235,0.060547,0.30596
5.208,-0.062136,0.89608,0.97059,0.060547,0.30303
5.216,-0.062136,0.88627,0.97647,0.070312,0.29912
5.224,-0.062136,0.87059,0.97647,0.085938,0.29619
5.232,-0.062136,0.85686,0.97647,0.089844,0.29423
5.24,-0.060194,0.86667,0.97647,0.085938,0.29228
5.248,-0.060194,0.88039,0.97647,0.080078,0.28935
5.256,-0.058252,0.88039,0.97647,0.085938,0.28543
5.264,-0.058252,0.88627,0.97647,0.080078,0.28152
5.272,-0.056311,0.88039,0.97647,0.085938,0.27664
5.28,-0.056311,0.87647,0.98235,0.085938,0.27175
5.288,-0.054369,0.87647,0.97647,0.089844,0.26784
5.296,-0.054369,0.87059,0.97059,0.085938,0.26491
5.304,-0.054369,0.86078,0.96667,0.089844,0.26491
5.312,-0.054369,0.86667,0.96078,0.089844,0.27077
5.32,-0.054369,0.87059,0.95686,0.089844,0.28348
5.328,-0.054369,0.85686,0.96078,0.089844,0.30499
5.336,-0.056311,0.85686,0.96078,0.095703,0.33138
5.344,-0.056311,0.87059,0.94706,0.089844,0.36266
5.352,-0.056311,0.88627,0.94706,0.076172,0.40469
5.36,-0.056311,0.86078,0.95098,0.089844,0.45259
5.368,-0.054369,0.85686,0.94706,0.095703,0.50342
5.376,-0.054369,0.85686,0.96078,0.095703,0.5523
5.384,-0.052427,0.88627,0.97059,0.076172,0.59824
5.392,-0.050485,0.95686,0.98235,0.044922,0.63832
5.4,-0.048544,0.97647,1.002,0.035156,0.67155
5.408,-0.046602,0.97059,0.98627,0.025391,0.69795
5.416,-0.04466,1.0059,0.98627,0,0.71848
5.424,-0.042718,1.0275,0.96078,-0.025391,0.73314
5.432,-0.040777,0.98235,0.93725,-0.0039062,0.74389
5.44,-0.038835,0.97059,0.92549,-0.0097656,0.74878
5.448,-0.034951,0.98235,0.94118,0,0.74976
5.456,-0.03301,0.98627,0.95686,0.0097656,0.74976
5.464,-0.029126,0.94706,0.96078,0.041016,0.7478
5.472,-0.025243,0.89608,0.94706,0.064453,0.74389
5.48,-0.023301,0.85686,0.94118,0.085938,0.73705
5.488,-0.019417,0.86078,0.94118,0.080078,0.72825
5.496,-0.017476,0.86667,0.94706,0.080078,0.71652
5.504,-0.015534,0.85686,0.94118,0.080078,0.70283
5.512,-0.015534,0.8902,0.94706,0.064453,0.68622
5.52,-0.013592,0.90588,1.0118,0.076172,0.66862
5.528,-0.013592,1.0059,1.0765,0.025391,0.64907
5.536,-0.013592,1.3471,1.1627,-0.18945,0.62854
5.544,-0.013592,1.5039,1.1824,-0.49805,0.60997
5.552,-0.01165,1.5039,0.94118,-0.49805,0.5914
5.56,-0.01165,1.1275,0.3549,-0.22461,0.57185
5.568,-0.01165,0.47451,0.1098,0.16016,0.55132
5.576,-0.013592,0.44902,0.4549,0.21094,0.53177
5.584,-0.013592,0.71569,0.79608,0.13086,0.5132
5.592,-0.015534,0.90588,0.98627,0.044922,0.4956
5.6,-0.015534,0.96078,1.0412,0.019531,0.47996
5.608,-0.017476,0.97647,1.0608,0.0058594,0.4653
5.616,-0.017476,0.99608,1.0667,0,0.45161
5.624,-0.017476,1.0118,1.0765,-0.0097656,0.43988
5.632,-0.017476,1.002,1.0824,-0.0039062,0.42913
5.64,-0.017476,1.0216,1.0863,-0.025391,0.41935
5.648,-0.015534,1.0314,1.0922,-0.025391,0.41056
5.656,-0.015534,1.0314,1.102,-0.025391,0.40469
5.664,-0.013592,1.0471,1.0961,-0.044922,0.39687
5.672,-0.01165,1.0725,1.1118,-0.064453,0.39003
5.68,-0.01165,1.0824,1.1216,-0.064453,0.38319
5.688,-0.0097087,1.0961,1.1314,-0.080078,0.37732
5.696,-0.007767,1.1373,1.1373,-0.099609,0.37243
5.704,-0.0058252,1.1627,1.151,-0.11914,0.36755
5.712,-0.0038835,1.1765,1.1667,-0.125,0.36266
5.72,-0.0019417,1.2176,1.1863,-0.14844,0.35777
5.728,0,1.2529,1.2118,-0.17383,0.35386
5.736,0,1.2882,1.2373,-0.19336,0.35093
5.744,0,1.3373,1.2627,-0.22461,0.34702
5.752,0,1.3882,1.2922,-0.26367,0.34506
5.76,0.0019417,1.4373,1.3118,-0.29492,0.34409
5.768,0,1.4824,1.3333,-0.32422,0.34115
5.776,0,1.5039,1.3471,-0.34375,0.3392
5.784,0,1.5039,1.3373,-0.36914,0.33724
5.792,-0.0019417,1.5039,1.3216,-0.38477,0.33431
5.8,-0.0038835,1.5039,1.2922,-0.37891,0.33236
5.808,-0.0058252,1.4882,1.2431,-0.34375,0.32942
5.816,-0.007767,1.4235,1.1824,-0.30859,0.32747
5.824,-0.0097087,1.3333,1.1118,-0.25977,0.32454
5.832,-0.01165,1.2373,1.051,-0.19922,0.3216
5.84,-0.013592,1.1412,0.99216,-0.13867,0.31965
5.848,-0.015534,1.0608,0.94118,-0.089844,0.31672
5.856,-0.015534,0.98627,0.90588,-0.044922,0.31476
5.864,-0.017476,0.93725,0.88039,-0.025391,0.31281
5.872,-0.019417,0.90588,0.86078,-0.0039062,0.31085
5.88,-0.019417,0.88627,0.85098,0.0058594,0.3089
5.888,-0.021359,0.87059,0.84118,0.015625,0.30596
5.896,-0.021359,0.86667,0.8451,0.019531,0.30303
5.904,-0.021359,0.86078,0.8451,0.019531,0.29912
5.912,-0.019417,0.86667,0.8451,0.019531,0.29521
5.92,-0.019417,0.87059,0.85686,0.0097656,0.29228
5.928,-0.019417,0.86667,0.85686,0.015625,0.28837
5.936,-0.019417,0.86667,0.85686,0.015625,0.28446
5.944,-0.019417,0.86667,0.85098,0.015625,0.27957
5.952,-0.021359,0.86078,0.85686,0.019531,0.27566
5.96,-0.023301,0.86078,0.85098,0.019531,0.27273
5.968,-0.023301,0.85686,0.8451,0.015625,0.27077
5.976,-0.025243,0.8451,0.83529,0.019531,0.27077
5.984,-0.027184,0.8451,0.83529,0.025391,0.2737
5.992,-0.027184,0.83529,0.83137,0.03125,0.2825
6,-0.029126,0.83529,0.82549,0.03125,0.29912
6.008,-0.029126,0.83137,0.82157,0.035156,0.32551
6.016,-0.029126,0.82157,0.82157,0.044922,0.3607
6.024,-0.029126,0.81569,0.81569,0.044922,0.40371
6.032,-0.029126,0.81176,0.81569,0.044922,0.45161
6.04,-0.029126,0.81176,0.81569,0.044922,0.50147
6.048,-0.029126,0.81569,0.82157,0.044922,0.55132
6.056,-0.029126,0.85098,0.8451,0.019531,0.59726
6.064,-0.029126,0.8902,0.86667,0.0058594,0.63245
6.072,-0.029126,0.91569,0.87059,-0.0039062,0.6608
6.08,-0.029126,0.92157,0.86667,-0.013672,0.68622
6.088,-0.029126,0.95098,0.87059,-0.035156,0.70772
6.096,-0.027184,0.95686,0.83529,-0.048828,0.72532
6.104,-0.025243,0.90588,0.80588,-0.025391,0.73803
6.112,-0.023301,0.90588,0.80588,-0.029297,0.7478
6.12,-0.019417,0.91569,0.82549,-0.025391,0.75269
6.128,-0.015534,0.88627,0.84118,0,0.75562
6.136,-0.01165,0.83529,0.83529,0.041016,0.75562
6.144,-0.007767,0.78627,0.81569,0.070312,0.75269
6.152,-0.0019417,0.76667,0.81569,0.076172,0.7478
6.16,0.0019417,0.76667,0.82157,0.085938,0.73998
6.168,0.0058252,0.76667,0.82549,0.085938,0.73021
6.176,0.0097087,0.76667,0.83137,0.089844,0.71848
6.184,0.013592,0.76667,0.83529,0.085938,0.70577
6.192,0.017476,0.76078,0.92157,0.099609,0.69013
6.2,0.021359,0.90588,0.98235,0.041016,0.67253
6.208,0.025243,1.2431,1.051,-0.17969,0.65396
6.216,0.029126,1.5039,1.002,-0.49805,0.63441
6.224,0.03301,1.5039,0.70588,-0.49805,0.61388
6.232,0.036893,0.83137,0.12353,-0.099609,0.59335
6.24,0.040777,0.22353,-0.066667,0.26562,0.57283
6.248,0.04466,0.36471,0.38039,0.28516,0.55425
6.256,0.048544,0.61961,0.73137,0.16602,0.53666
6.264,0.052427,0.80588,0.90588,0.076172,0.52004
6.272,0.056311,0.85098,0.96667,0.054688,0.5044
6.28,0.058252,0.86078,0.98235,0.050781,0.49267
6.288,0.062136,0.87647,1.002,0.044922,0.48192
6.296,0.066019,0.88039,1.0059,0.044922,0.47116
6.304,0.069903,0.8902,1.0157,0.035156,0.46041
6.312,0.075728,0.90588,1.0216,0.03125,0.45161
6.32,0.079612,0.91176,1.0275,0.025391,0.44282
6.328,0.085437,0.92549,1.0373,0.015625,0.435
6.336,0.091262,0.93137,1.0471,0.0097656,0.42717
6.344,0.095146,0.95686,1.0569,0,0.42131
6.352,0.10097,0.97647,1.0667,-0.0097656,0.41544
6.36,0.1068,1.002,1.0765,-0.025391,0.41056
6.368,0.11262,1.0216,1.0863,-0.044922,0.40567
6.376,0.1165,1.051,1.0961,-0.054688,0.40078
6.384,0.12039,1.0824,1.1176,-0.074219,0.39687
6.392,0.12039,1.1118,1.1314,-0.083984,0.39492
6.4,0.12233,1.1412,1.1627,-0.10352,0.39101
6.408,0.12427,1.1824,1.1863,-0.12891,0.38807
6.416,0.12621,1.2216,1.2118,-0.1543,0.38514
6.424,0.12621,1.2725,1.2431,-0.18945,0.38221
6.432,0.12816,1.3118,1.2667,-0.21484,0.37928
6.44,0.12816,1.3471,1.2824,-0.23438,0.37634
6.448,0.12816,1.3824,1.298,-0.25977,0.37341
6.456,0.12621,1.402,1.2922,-0.27344,0.37048
6.464,0.12621,1.4078,1.2824,-0.2793,0.36755
6.472,0.12427,1.398,1.2569,-0.2793,0.36559
6.48,0.12233,1.3569,1.2176,-0.25391,0.36266
6.488,0.12039,1.302,1.1667,-0.21875,0.3607
6.496,0.12039,1.2216,1.1118,-0.16992,0.35875
6.504,0.11845,1.1314,1.0608,-0.11523,0.35582
6.512,0.11845,1.051,1.0059,-0.064453,0.35288
6.52,0.11845,0.97059,0.97059,-0.013672,0.34995
6.528,0.1165,0.91176,0.94706,0.025391,0.34702
6.536,0.1165,0.87647,0.92157,0.054688,0.34311
6.544,0.1165,0.8451,0.91176,0.070312,0.3392
6.552,0.11456,0.82549,0.90588,0.089844,0.33529
6.56,0.11456,0.81569,0.90588,0.095703,0.33138
6.568,0.11456,0.81569,0.90588,0.095703,0.32747
6.576,0.11456,0.81176,0.90588,0.095703,0.32356
6.584,0.1165,0.81176,0.90588,0.095703,0.31867
6.592,0.11845,0.81176,0.90588,0.099609,0.31476
6.6,0.12039,0.81176,0.91176,0.10547,0.31085
6.608,0.12233,0.81176,0.91176,0.095703,0.30694
6.616,0.12427,0.81176,0.91569,0.099609,0.30108
6.624,0.12427,0.81176,0.92549,0.10547,0.29619
6.632,0.12427,0.81176,0.92549,0.11133,0.2913
6.64,0.12427,0.8,0.92157,0.10547,0.28935
6.648,0.12233,0.79608,0.91569,0.11523,0.2913
6.656,0.12233,0.79608,0.92157,0.11523,0.29912
6.664,0.12233,0.7902,0.92157,0.11523,0.31476
6.672,0.12233,0.7902,0.91569,0.11523,0.3392
6.68,0.12233,0.78627,0.91176,0.12109,0.37243
6.688,0.12427,0.78627,0.91176,0.12109,0.41251
6.696,0.12427,0.78627,0.91569,0.12109,0.45064
6.704,0.12621,0.78627,0.91176,0.12109,0.48778
6.712,0.12816,0.7902,0.91176,0.12109,0.52981
6.72,0.12816,0.79608,0.91569,0.12109,0.57087
6.728,0.1301,0.83137,0.93137,0.10547,0.60899
6.736,0.13204,0.87647,0.95098,0.076172,0.64321
6.744,0.13398,0.90196,0.96667,0.060547,0.67058
6.752,0.13592,0.91569,0.96078,0.041016,0.69306
6.76,0.13786,0.95686,0.97647,0.019531,0.71065
6.768,0.13981,0.97059,0.94118,0.0058594,0.72336
6.776,0.14175,0.92549,0.91176,0.019531,0.73216
6.784,0.14369,0.92549,0.90588,0.0097656,0.73803
6.792,0.14369,0.94118,0.92549,0.015625,0.73998
6.8,0.14563,0.91176,0.94118,0.044922,0.739
6.808,0.14563,0.85686,0.93137,0.085938,0.73607
6.816,0.14757,0.80588,0.91569,0.11523,0.73118
6.824,0.14757,0.7902,0.91176,0.12109,0.72434
6.832,0.14757,0.7902,0.91176,0.125,0.71554
6.84,0.14563,0.7902,0.90588,0.13477,0.70381
6.848,0.14563,0.78627,0.91176,0.13086,0.6911
6.856,0.14563,0.79608,0.91176,0.125,0.67546
6.864,0.14369,0.7902,0.95686,0.13477,0.65885
6.872,0.14175,0.88039,1.0667,0.14062,0.6393
6.88,0.14175,1.1216,1.1059,-0.044922,0.61975
6.888,0.13981,1.5039,1.1412,-0.35352,0.59824
6.896,0.13786,1.5039,0.91569,-0.49805,0.57771
6.904,0.13786,1.202,0.42549,-0.25977,0.55914
6.912,0.13592,0.3451,0.0078431,0.2207,0.54154
6.92,0.13592,0.2451,0.30392,0.32422,0.52395
6.928,0.13398,0.53529,0.67059,0.24609,0.50538
6.936,0.13204,0.78627,0.92157,0.125,0.48876
6.944,0.1301,0.87647,1.0157,0.080078,0.47214
6.952,0.12816,0.89608,1.0373,0.076172,0.45748
6.96,0.12816,0.90196,1.0471,0.064453,0.44477
6.968,0.12621,0.91176,1.0608,0.060547,0.43206
6.976,0.12621,0.92157,1.0667,0.054688,0.42131
6.984,0.12427,0.93137,1.0765,0.044922,0.41056
6.992,0.12427,0.94118,1.0824,0.041016,0.40176
7,0.12427,0.95686,1.0863,0.035156,0.39394
7.008,0.12427,0.97647,1.0922,0.019531,0.38612
7.016,0.12621,0.98627,1.102,0.015625,0.38123
7.024,0.12621,1.002,1.1059,0,0.37634
7.032,0.12621,1.0275,1.1176,-0.013672,0.37146
7.04,0.12816,1.051,1.1275,-0.025391,0.36657
7.048,0.12816,1.0725,1.1373,-0.044922,0.36266
7.056,0.1301,1.0922,1.151,-0.058594,0.35777
7.064,0.13204,1.1275,1.1667,-0.074219,0.35386
7.072,0.13204,1.1627,1.1863,-0.09375,0.35093
7.08,0.13398,1.1961,1.2078,-0.125,0.34702
7.088,0.13398,1.2431,1.2314,-0.14844,0.34409
7.096,0.13398,1.2882,1.2569,-0.17969,0.33724
7.104,0.13398,1.3216,1.2765,-0.20508,0.3304
7.112,0.13204,1.3627,1.2922,-0.23438,0.32551
7.12,0.13204,1.3922,1.302,-0.25977,0.3216
7.128,0.1301,1.4118,1.302,-0.27344,0.31965
7.136,0.12816,1.4275,1.2922,-0.28516,0.31769
7.144,0.12816,1.4235,1.2725,-0.28906,0.31476
7.152,0.12621,1.398,1.2314,-0.27344,0.31183
7.16,0.12427,1.3529,1.1863,-0.24414,0.30987
7.168,0.12233,1.2765,1.1412,-0.19336,0.30694
7.176,0.12039,1.1922,1.0922,-0.13867,0.30401
7.184,0.11845,1.102,1.0373,-0.083984,0.30108
7.192,0.11845,1.0314,0.98627,-0.035156,0.29814
7.2,0.1165,0.96078,0.95098,0.015625,0.29521
7.208,0.1165,0.91176,0.92549,0.041016,0.2913
7.216,0.11456,0.87647,0.91176,0.064453,0.28837
7.224,0.11456,0.85098,0.90588,0.076172,0.28543
7.232,0.11456,0.83529,0.90196,0.089844,0.28348
7.24,0.1165,0.83529,0.90196,0.089844,0.28055
7.248,0.11845,0.83137,0.89608,0.099609,0.27664
7.256,0.12233,0.82549,0.89608,0.099609,0.27175
7.264,0.12621,0.82549,0.90196,0.099609,0.26784
7.272,0.1301,0.82157,0.89608,0.099609,0.26295
7.28,0.13398,0.82157,0.90196,0.095703,0.25806
7.288,0.13786,0.82549,0.89608,0.095703,0.25318
7.296,0.14175,0.82157,0.89608,0.099609,0.24731
7.304,0.14563,0.81176,0.8902,0.11133,0.2434
7.312,0.14757,0.81176,0.88627,0.11523,0.24047
7.32,0.15146,0.81176,0.88039,0.11133,0.24145
7.328,0.1534,0.79608,0.88039,0.11523,0.24731
7.336,0.15534,0.79608,0.88039,0.11523,0.25806
7.344,0.15922,0.7902,0.87647,0.11523,0.27664
7.352,0.15922,0.79608,0.87647,0.11523,0.30596
7.36,0.16117,0.79608,0.87647,0.12109,0.34311
7.368,0.16311,0.7902,0.87059,0.12109,0.3871
7.376,0.16311,0.7902,0.87059,0.12109,0.435
7.384,0.16505,0.7902,0.87059,0.12109,0.48387
7.392,0.16505,0.8,0.87647,0.11523,0.53079
7.4,0.16699,0.83137,0.89608,0.089844,0.57283
7.408,0.16699,0.87647,0.91569,0.070312,0.60997
7.416,0.16893,0.91176,0.92549,0.050781,0.64027
7.424,0.17087,0.92157,0.92549,0.035156,0.66471
7.432,0.17087,0.95098,0.93725,0.015625,0.68133
7.44,0.17087,0.96078,0.90588,0,0.69208
7.448,0.17087,0.91569,0.87647,0.019531,0.70088
7.456,0.17087,0.90588,0.86078,0.025391,0.70674
7.464,0.17087,0.91176,0.87647,0.035156,0.70968
7.472,0.17087,0.88627,0.8902,0.054688,0.71065
7.48,0.17282,0.82549,0.88039,0.099609,0.7087
7.488,0.17476,0.78039,0.87647,0.13477,0.70381
7.496,0.17476,0.76667,0.86667,0.14453,0.69599
7.504,0.1767,0.76667,0.87059,0.14453,0.68719
7.512,0.17864,0.76667,0.86667,0.14453,0.67449
7.52,0.17864,0.76667,0.86667,0.14453,0.65982
7.528,0.17864,0.76667,0.87059,0.14453,0.64418
7.536,0.18058,0.76078,0.90196,0.15625,0.62757
7.544,0.18058,0.82549,1.0216,0.16016,0.61095
7.552,0.18058,1.0471,1.0569,0.0058594,0.5914
7.56,0.18058,1.4882,1.0961,-0.28906,0.56989
7.568,0.18058,1.5039,0.92549,-0.49805,0.54936
7.576,0.18058,1.2765,0.46471,-0.29492,0.52786
7.584,0.18058,0.38039,-0.021569,0.20508,0.50733
7.592,0.18058,0.23333,0.22353,0.34961,0.48778
7.6,0.18058,0.47059,0.59608,0.28516,0.46921
7.608,0.17864,0.73529,0.86078,0.16602,0.45259
7.616,0.17864,0.84118,0.96667,0.11133,0.43695
7.624,0.1767,0.87059,1.002,0.089844,0.42326
7.632,0.1767,0.88039,1.0157,0.089844,0.40958
7.64,0.17476,0.8902,1.0216,0.089844,0.3998
7.648,0.17476,0.90196,1.0314,0.085938,0.39198
7.656,0.17476,0.90588,1.0412,0.070312,0.38319
7.664,0.17476,0.92157,1.0471,0.070312,0.37537
7.672,0.1767,0.93725,1.0569,0.054688,0.36852
7.68,0.1767,0.96667,1.0725,0.035156,0.36168
7.688,0.17864,0.99216,1.0824,0.019531,0.35582
7.696,0.18252,1.0157,1.0922,0,0.35093
7.704,0.18447,1.0412,1.102,-0.025391,0.34506
7.712,0.18641,1.0608,1.1118,-0.035156,0.34115
7.72,0.18835,1.0863,1.1216,-0.048828,0.33627
7.728,0.19029,1.1118,1.1373,-0.058594,0.33236
7.736,0.19223,1.1412,1.1569,-0.080078,0.32942
7.744,0.19223,1.1765,1.1765,-0.09375,0.32649
7.752,0.19417,1.2118,1.1961,-0.125,0.32454
7.76,0.19417,1.2569,1.2216,-0.14844,0.32258
7.768,0.19417,1.3078,1.2431,-0.18359,0.32063
7.776,0.19417,1.3471,1.2667,-0.21484,0.31769
7.784,0.19223,1.3824,1.2824,-0.24023,0.31574
7.792,0.19029,1.4118,1.2922,-0.25977,0.31378
7.8,0.18835,1.4431,1.298,-0.28516,0.31183
7.808,0.18447,1.4529,1.2824,-0.29492,0.3089
7.816,0.18252,1.4569,1.2667,-0.29492,0.30694
7.824,0.18058,1.4333,1.2373,-0.28516,0.30401
7.832,0.17864,1.3824,1.1961,-0.25977,0.30205
7.84,0.17476,1.3176,1.1471,-0.20898,0.29912
7.848,0.17282,1.2314,1.0961,-0.14844,0.29814
7.856,0.17087,1.151,1.051,-0.09375,0.29717
7.864,0.16699,1.0725,1.0059,-0.044922,0.29521
7.872,0.16505,1.0059,0.97059,0,0.29228
7.88,0.16311,0.95686,0.94706,0.025391,0.29032
7.888,0.16117,0.92157,0.92549,0.044922,0.28739
7.896,0.16117,0.8902,0.92157,0.070312,0.28446
7.904,0.16117,0.88039,0.91176,0.076172,0.28055
7.912,0.16311,0.87647,0.91176,0.080078,0.27664
7.92,0.16311,0.87059,0.91176,0.085938,0.27273
7.928,0.16699,0.87647,0.91176,0.089844,0.26882
7.936,0.17087,0.87059,0.92157,0.089844,0.26491
7.944,0.17282,0.87059,0.92157,0.089844,0.261
7.952,0.1767,0.87059,0.91569,0.089844,0.25611
7.96,0.17864,0.86667,0.91176,0.095703,0.25318
7.968,0.18252,0.86078,0.91176,0.095703,0.25024
7.976,0.18447,0.85686,0.91176,0.095703,0.24633
7.984,0.18641,0.85686,0.90588,0.095703,0.24242
7.992,0.18835,0.85098,0.90588,0.099609,0.24145
8,0.19029,0.84118,0.90588,0.10547,0.24536
8.008,0.19029,0.8451,0.89608,0.10547,0.25611
8.016,0.19223,0.84118,0.89608,0.11133,0.27566
8.024,0.19223,0.83529,0.8902,0.11523,0.30401
8.032,0.19417,0.83137,0.89608,0.11523,0.34213
8.04,0.19417,0.83137,0.8902,0.11523,0.3871
8.048,0.19612,0.83529,0.88627,0.11523,0.43597
8.056,0.19612,0.83529,0.88627,0.11523,0.48583
8.064,0.19806,0.85098,0.8902,0.10547,0.52786
8.072,0.19806,0.88627,0.92157,0.080078,0.56403
8.08,0.19806,0.92549,0.94118,0.060547,0.6002
8.088,0.2,0.95686,0.95098,0.041016,0.63148
8.096,0.2,0.97647,0.94706,0.03125,0.65885
8.104,0.2,1.0118,0.95098,0,0.67937
8.112,0.2,1.0157,0.91569,-0.0039062,0.69501
8.12,0.2,0.96078,0.8902,0.019531,0.70674
8.128,0.2,0.96667,0.88039,0.015625,0.71359
8.136,0.2,0.97647,0.90588,0.019531,0.7175
8.144,0.2,0.93725,0.91176,0.050781,0.71848
8.152,0.2,0.88039,0.90196,0.095703,0.71554
8.16,0.2,0.83529,0.88039,0.12109,0.71065
8.168,0.20194,0.82549,0.87647,0.13477,0.70381
8.176,0.20194,0.82549,0.88039,0.13086,0.69501
8.184,0.20388,0.82157,0.88039,0.13477,0.68328
8.192,0.20583,0.82157,0.88627,0.13086,0.6696
8.2,0.20583,0.83137,0.88627,0.125,0.65396
8.208,0.20777,0.82549,0.94118,0.14062,0.63636
8.216,0.20777,0.92549,1.0471,0.10547,0.61779
8.224,0.20971,1.1863,1.0922,-0.058594,0.59726
8.232,0.20971,1.5039,1.1118,-0.375,0.57576
8.24,0.20971,1.5039,0.85686,-0.49805,0.55425
8.248,0.20971,1.1275,0.3451,-0.19922,0.53372
8.256,0.20971,0.34902,0.0039216,0.24609,0.5132
8.264,0.20971,0.3,0.31373,0.32422,0.49365
8.272,0.20777,0.5902,0.67647,0.24023,0.47703
8.28,0.20583,0.84118,0.90588,0.12109,0.46237
8.288,0.20388,0.91569,0.99216,0.080078,0.4477
8.296,0.20194,0.93725,1.0157,0.070312,0.43402
8.304,0.20194,0.95098,1.0275,0.064453,0.42131
8.312,0.2,0.95686,1.0412,0.064453,0.40958
8.32,0.2,0.97059,1.0471,0.054688,0.3998
8.328,0.2,0.98235,1.051,0.044922,0.39003
8.336,0.2,0.99608,1.0608,0.044922,0.38123
8.344,0.20194,1.002,1.0608,0.03125,0.37341
8.352,0.20194,1.0216,1.0725,0.019531,0.36657
8.36,0.20388,1.0471,1.0725,0.0058594,0.3607
8.368,0.20583,1.0667,1.0824,-0.0039062,0.35484
8.376,0.20777,1.0863,1.0922,-0.019531,0.35093
8.384,0.20777,1.1118,1.1059,-0.035156,0.34702
8.392,0.20971,1.1373,1.1176,-0.048828,0.34311
8.4,0.20971,1.1667,1.1314,-0.074219,0.3392
8.408,0.20971,1.1961,1.1471,-0.083984,0.33627
8.416,0.21165,1.2314,1.1667,-0.10352,0.33236
8.424,0.20971,1.2725,1.1922,-0.13867,0.32942
8.432,0.20971,1.3176,1.2176,-0.16992,0.32747
8.44,0.20583,1.3627,1.2373,-0.19336,0.32454
8.448,0.20388,1.402,1.2569,-0.22461,0.3216
8.456,0.20194,1.4431,1.2725,-0.25391,0.31965
8.464,0.19806,1.4784,1.2824,-0.2793,0.31769
8.472,0.19612,1.4922,1.2882,-0.28906,0.31476
8.48,0.19223,1.5039,1.2667,-0.30469,0.31378
8.488,0.18835,1.502,1.2529,-0.30469,0.31281
8.496,0.18447,1.4784,1.2118,-0.29492,0.31085
8.504,0.18252,1.4275,1.1667,-0.25977,0.3089
8.512,0.17864,1.3529,1.1176,-0.20898,0.30694
8.52,0.17476,1.2725,1.0608,-0.16016,0.30499
8.528,0.17087,1.1922,1.0118,-0.10352,0.30205
8.536,0.16893,1.1118,0.97059,-0.048828,0.3001
8.544,0.16505,1.051,0.93725,-0.0097656,0.29717
8.552,0.16311,1.002,0.91176,0.015625,0.29423
8.56,0.16117,0.97059,0.90196,0.035156,0.29228
8.568,0.16117,0.95098,0.88627,0.044922,0.28935
8.576,0.16117,0.93137,0.8902,0.060547,0.28543
8.584,0.16311,0.93137,0.88627,0.054688,0.28348
8.592,0.16505,0.93137,0.88627,0.060547,0.28152
8.6,0.16893,0.92549,0.88627,0.064453,0.27859
8.608,0.17282,0.92549,0.88039,0.070312,0.27468
8.616,0.17476,0.92549,0.88627,0.070312,0.27077
8.624,0.1767,0.92549,0.88039,0.070312,0.26588
8.632,0.17864,0.92549,0.88039,0.070312,0.261
8.64,0.17864,0.92549,0.88039,0.070312,0.25611
8.648,0.18058,0.91569,0.87647,0.070312,0.25122
8.656,0.18058,0.91569,0.87059,0.070312,0.24829
8.664,0.18252,0.91176,0.87059,0.070312,0.24927
8.672,0.18252,0.90588,0.86667,0.070312,0.25513
8.68,0.18252,0.90196,0.86078,0.076172,0.26979
8.688,0.18447,0.90588,0.85686,0.070312,0.28935
8.696,0.18447,0.90588,0.85686,0.070312,0.31378
8.704,0.18447,0.90196,0.85686,0.076172,0.34995
8.712,0.18447,0.90588,0.85098,0.070312,0.39492
8.72,0.18447,0.90588,0.85686,0.070312,0.44379
8.728,0.18252,0.90588,0.85098,0.060547,0.49365
8.736,0.18252,0.91176,0.85098,0.064453,0.54252
8.744,0.18058,0.94706,0.87059,0.041016,0.58651
8.752,0.18058,0.99216,0.8902,0.0097656,0.62463
8.76,0.18058,1.0216,0.90588,-0.013672,0.65591
8.768,0.18058,1.0373,0.90196,-0.029297,0.68133
8.776,0.18058,1.0667,0.90588,-0.048828,0.6999
8.784,0.18058,1.0824,0.87647,-0.064453,0.71359
8.792,0.18058,1.0373,0.8451,-0.048828,0.72239
8.8,0.18058,1.0275,0.83529,-0.048828,0.72532
8.808,0.18058,1.0471,0.85098,-0.054688,0.72727
8.816,0.18058,1.0216,0.86078,-0.029297,0.72727
8.824,0.18058,0.96667,0.85686,0.0097656,0.72532
8.832,0.18058,0.91569,0.83529,0.041016,0.72043
8.84,0.18058,0.90196,0.83137,0.044922,0.71359
8.848,0.18252,0.90196,0.82549,0.044922,0.70381
8.856,0.18252,0.89608,0.82549,0.044922,0.69208
8.864,0.18252,0.91176,0.83529,0.03125,0.67742
8.872,0.18058,0.91569,0.83529,0.025391,0.6608
8.88,0.18058,0.90588,0.86667,0.03125,0.64321
8.888,0.18058,0.98235,0.97647,0.041016,0.62268
8.896,0.18058,1.202,1.0118,-0.13477,0.60215
8.904,0.18058,1.5039,1.0471,-0.42969,0.5826
8.912,0.17864,1.5039,0.85686,-0.49805,0.56403
8.92,0.17864,1.3824,0.39412,-0.4043,0.54448
8.928,0.17864,0.5,-0.072549,0.085938,0.52395
8.936,0.1767,0.38039,0.18431,0.21484,0.5044
8.944,0.1767,0.62549,0.55098,0.14453,0.48583
8.952,0.17476,0.8902,0.80588,0.015625,0.46921
8.96,0.17282,0.99216,0.90588,-0.035156,0.45357
8.968,0.17282,1.0118,0.93725,-0.044922,0.43891
8.976,0.17087,1.0216,0.94706,-0.048828,0.4262
8.984,0.16893,1.0275,0.95098,-0.058594,0.41447
8.992,0.16893,1.0314,0.95686,-0.064453,0.40469
9,0.16893,1.0471,0.96078,-0.074219,0.39589
9.008,0.16893,1.0471,0.96667,-0.074219,0.38807
9.016,0.16893,1.0667,0.96667,-0.089844,0.38221
9.024,0.17087,1.0765,0.97647,-0.099609,0.37634
9.032,0.17087,1.0922,0.98235,-0.10938,0.37048
9.04,0.17282,1.1059,0.98627,-0.11914,0.36461
9.048,0.17282,1.1216,0.99216,-0.13477,0.35973
9.056,0.17476,1.1412,1.002,-0.14844,0.35484
9.064,0.1767,1.1569,1.0118,-0.16016,0.34995
9.072,0.1767,1.1824,1.0216,-0.17969,0.34604
9.08,0.1767,1.2078,1.0373,-0.19922,0.34311
9.088,0.17864,1.2431,1.0569,-0.21875,0.3392
9.096,0.1767,1.2765,1.0765,-0.24414,0.33627
9.104,0.1767,1.3118,1.0961,-0.26953,0.33333
9.112,0.1767,1.3569,1.1176,-0.30469,0.33138
9.12,0.17476,1.3922,1.1373,-0.33398,0.32942
9.128,0.17282,1.4333,1.151,-0.35938,0.32747
9.136,0.17087,1.4627,1.1627,-0.38477,0.32551
9.144,0.16699,1.4824,1.1627,-0.4043,0.32649
9.152,0.16505,1.4922,1.151,-0.41406,0.32942
9.16,0.16117,1.4824,1.1275,-0.41992,0.32942
9.168,0.15922,1.4627,1.0922,-0.4043,0.32845
9.176,0.15534,1.4078,1.051,-0.375,0.32649
9.184,0.1534,1.3333,1.002,-0.32422,0.32356
9.192,0.14951,1.2431,0.94706,-0.27344,0.3216
9.2,0.14563,1.1569,0.8902,-0.21875,0.31867
9.208,0.14175,1.0765,0.8451,-0.16406,0.31574
9.216,0.13786,1.0059,0.81176,-0.11914,0.31378
9.224,0.13592,0.95686,0.78627,-0.089844,0.31281
9.232,0.13398,0.91569,0.76667,-0.070312,0.31085
9.24,0.13398,0.88039,0.76667,-0.048828,0.30792
9.248,0.13398,0.85686,0.7549,-0.035156,0.30499
9.256,0.13398,0.85686,0.75098,-0.029297,0.30108
9.264,0.13592,0.85686,0.75098,-0.029297,0.29717
9.272,0.13786,0.85098,0.75098,-0.025391,0.29326
9.28,0.13981,0.84118,0.7549,-0.025391,0.28935
9.288,0.13981,0.83529,0.7549,-0.025391,0.28446
9.296,0.14175,0.83137,0.76078,-0.025391,0.28055
9.304,0.14175,0.83137,0.7549,-0.025391,0.27468
9.312,0.14175,0.81569,0.7549,-0.019531,0.26979
9.32,0.14175,0.81176,0.7549,-0.0097656,0.26686
9.328,0.13981,0.79608,0.76078,0,0.26491
9.336,0.13786,0.8,0.75098,0,0.26491
9.344,0.13592,0.79608,0.75098,0,0.26979
9.352,0.13204,0.78627,0.75098,0,0.28152
9.36,0.1301,0.77059,0.7549,0.015625,0.30205
9.368,0.12621,0.76667,0.75098,0.015625,0.33236
9.376,0.12233,0.76667,0.7451,0.0097656,0.37243
9.384,0.1165,0.77059,0.7451,0.0097656,0.41935
9.392,0.11262,0.76667,0.7451,0.015625,0.47019
9.4,0.1068,0.76667,0.75098,0.015625,0.52199
9.408,0.10097,0.78039,0.76078,0,0.57185
9.416,0.093204,0.81176,0.7902,-0.013672,0.61584
9.424,0.087379,0.85098,0.81176,-0.029297,0.65005
9.432,0.079612,0.88039,0.81569,-0.054688,0.67644
9.44,0.073786,0.8902,0.81176,-0.070312,0.6999
9.448,0.066019,0.91569,0.82157,-0.083984,0.72043
9.456,0.060194,0.92157,0.78039,-0.089844,0.73509
9.464,0.052427,0.86078,0.76667,-0.070312,0.74682
9.472,0.046602,0.86667,0.76667,-0.070312,0.75464
9.48,0.040777,0.87647,0.7902,-0.064453,0.75855
9.488,0.034951,0.82549,0.8,-0.025391,0.75953
9.496,0.029126,0.77647,0.79608,0.0097656,0.75855
9.504,0.023301,0.73529,0.7902,0.041016,0.75367
9.512,0.019417,0.72549,0.78627,0.050781,0.7478
9.52,0.017476,0.72549,0.79608,0.044922,0.73803
9.528,0.013592,0.71569,0.8,0.054688,0.72727
9.536,0.01165,0.72549,0.81176,0.050781,0.71457
9.544,0.007767,0.72549,0.81569,0.044922,0.6999
9.552,0.0038835,0.72157,0.91569,0.070312,0.68328
9.56,0.0019417,0.87647,0.98235,0,0.66373
9.568,-0.0019417,1.2118,1.0608,-0.22461,0.64321
9.576,-0.0058252,1.5039,1.0314,-0.49805,0.6217
9.584,-0.0097087,1.5039,0.75098,-0.49805,0.6002
9.592,-0.013592,0.79608,0.16863,-0.14844,0.57771
9.6,-0.017476,0.23333,-0.015686,0.20508,0.55718
9.608,-0.021359,0.33922,0.38431,0.23438,0.53666
9.616,-0.025243,0.57451,0.72157,0.13086,0.51711
9.624,-0.029126,0.7549,0.91176,0.041016,0.49951
9.632,-0.03301,0.8,0.98235,0.025391,0.48485
9.64,-0.036893,0.82157,1.002,0.019531,0.47214
9.648,-0.038835,0.83529,1.0216,0.0097656,0.45943
9.656,-0.042718,0.85098,1.0314,0,0.4477
9.664,-0.04466,0.85686,1.0471,0,0.43597
9.672,-0.046602,0.87059,1.0608,-0.0039062,0.42522
9.68,-0.046602,0.8902,1.0765,-0.019531,0.41642
9.688,-0.048544,0.90196,1.0863,-0.025391,0.40762
9.696,-0.048544,0.91176,1.102,-0.025391,0.39883
9.704,-0.046602,0.92549,1.1176,-0.039062,0.39101
9.712,-0.046602,0.94706,1.1314,-0.048828,0.38416
9.72,-0.04466,0.97059,1.1412,-0.058594,0.3783
9.728,-0.042718,1.002,1.1569,-0.074219,0.37243
9.736,-0.040777,1.0412,1.1765,-0.09375,0.36852
9.744,-0.038835,1.0667,1.2078,-0.10938,0.36461
9.752,-0.036893,1.0863,1.2275,-0.11914,0.3607
9.76,-0.036893,1.1275,1.2529,-0.14453,0.35777
9.768,-0.036893,1.1765,1.2824,-0.16992,0.35386
9.776,-0.036893,1.2216,1.3118,-0.19336,0.34995
9.784,-0.038835,1.2765,1.3431,-0.22852,0.34702
9.792,-0.040777,1.3078,1.3725,-0.25391,0.34409
9.8,-0.042718,1.3569,1.398,-0.28516,0.34115
9.808,-0.042718,1.3882,1.4118,-0.30469,0.33822
9.816,-0.04466,1.402,1.4235,-0.31445,0.33529
9.824,-0.046602,1.4176,1.4118,-0.31836,0.33236
9.832,-0.048544,1.4235,1.3824,-0.32422,0.32942
9.84,-0.050485,1.3824,1.3471,-0.30469,0.32649
9.848,-0.054369,1.3176,1.302,-0.25977,0.32454
9.856,-0.056311,1.2275,1.2529,-0.20508,0.32356
9.864,-0.056311,1.1373,1.1961,-0.13867,0.3216
9.872,-0.058252,1.0569,1.1471,-0.09375,0.31965
9.88,-0.058252,0.98627,1.1059,-0.048828,0.31672
9.888,-0.058252,0.91569,1.0824,0,0.31378
9.896,-0.058252,0.87647,1.0667,0.025391,0.31085
9.904,-0.056311,0.84118,1.0608,0.044922,0.30792
9.912,-0.054369,0.82157,1.0569,0.060547,0.30499
9.92,-0.054369,0.81569,1.0569,0.070312,0.30205
9.928,-0.052427,0.82157,1.0608,0.076172,0.29814
9.936,-0.052427,0.82549,1.0569,0.076172,0.29423
9.944,-0.050485,0.82157,1.0667,0.076172,0.29032
9.952,-0.050485,0.83529,1.0725,0.080078,0.28739
9.96,-0.050485,0.83529,1.0765,0.076172,0.28543
9.968,-0.050485,0.83529,1.0824,0.070312,0.28152
9.976,-0.050485,0.82549,1.0922,0.080078,0.27664
9.984,-0.050485,0.82157,1.0922,0.085938,0.27273
9.992,-0.052427,0.82549,1.0922,0.089844,0.26784
10,-0.052427,0.82549,1.0922,0.085938,0.26393
10.008,-0.052427,0.83137,1.0922,0.089844,0.26393
10.016,-0.052427,0.83529,1.0922,0.085938,0.26882
10.024,-0.052427,0.83137,1.0922,0.089844,0.28152
10.032,-0.052427,0.83529,1.0922,0.089844,0.30303
10.04,-0.052427,0.81569,1.0961,0.099609,0.33431
10.048,-0.052427,0.83529,1.0922,0.089844,0.37439
10.056,-0.050485,0.83529,1.0922,0.089844,0.41447
10.064,-0.050485,0.83529,1.0922,0.095703,0.45552
10.072,-0.048544,0.83529,1.0961,0.089844,0.50244
10.08,-0.046602,0.87059,1.1176,0.076172,0.55132
10.088,-0.046602,0.91176,1.1412,0.054688,0.59726
10.096,-0.04466,0.94706,1.1569,0.041016,0.63734
10.104,-0.042718,0.95098,1.1471,0.03125,0.67058
10.112,-0.042718,0.98235,1.1471,0.015625,0.69795
10.12,-0.040777,0.99608,1.1314,-0.0097656,0.71848
10.128,-0.040777,0.95686,1.0922,0.0058594,0.73412
10.136,-0.038835,0.95098,1.0824,0,0.74487
10.144,-0.038835,0.97059,1.0961,0,0.75171
10.152,-0.036893,0.97647,1.1176,0.015625,0.75464
10.16,-0.036893,0.90588,1.1275,0.060547,0.75367
10.168,-0.034951,0.86078,1.1118,0.089844,0.74976
10.176,-0.034951,0.83529,1.1059,0.10547,0.74487
10.184,-0.03301,0.84118,1.1059,0.095703,0.73803
10.192,-0.03301,0.8451,1.1059,0.099609,0.72923
10.2,-0.031068,0.8451,1.1118,0.095703,0.7175
10.208,-0.029126,0.85098,1.1118,0.099609,0.70381
10.216,-0.029126,0.84118,1.1725,0.11133,0.68719
10.224,-0.029126,0.95686,1.2569,0.070312,0.6696
10.232,-0.029126,1.2431,1.3216,-0.11914,0.64907
10.24,-0.031068,1.5039,1.3627,-0.45898,0.62854
10.248,-0.031068,1.5039,1.1627,-0.49805,0.60606
10.256,-0.03301,1.2314,0.62549,-0.25977,0.58358
10.264,-0.03301,0.46471,0.26471,0.16992,0.56403
10.272,-0.034951,0.4098,0.57451,0.24023,0.54643
10.28,-0.036893,0.67647,0.92549,0.16992,0.52688
10.288,-0.038835,0.87647,1.151,0.076172,0.50929
10.296,-0.040777,0.94706,1.2275,0.044922,0.49169
10.304,-0.042718,0.96667,1.2529,0.041016,0.47605
10.312,-0.04466,0.97647,1.2627,0.035156,0.46139
10.32,-0.046602,0.99216,1.2627,0.025391,0.4477
10.328,-0.046602,1.0059,1.2765,0.015625,0.43597
10.336,-0.048544,1.0275,1.2725,0,0.42522
10.344,-0.048544,1.0275,1.2824,0.0058594,0.41544
10.352,-0.048544,1.0412,1.2922,0,0.40762
10.36,-0.048544,1.051,1.302,-0.013672,0.3998
10.368,-0.046602,1.0725,1.3078,-0.025391,0.39198
10.376,-0.046602,1.0824,1.3275,-0.019531,0.3871
10.384,-0.04466,1.1118,1.3333,-0.048828,0.38221
10.392,-0.04466,1.1373,1.3471,-0.064453,0.37732
10.4,-0.04466,1.1627,1.3529,-0.074219,0.37243
10.408,-0.04466,1.1922,1.3725,-0.09375,0.36852
10.416,-0.042718,1.2275,1.3922,-0.10938,0.36461
10.424,-0.04466,1.2765,1.4118,-0.14453,0.3607
10.432,-0.04466,1.3176,1.4431,-0.16992,0.35679
10.44,-0.04466,1.3569,1.4686,-0.19336,0.35386
10.448,-0.04466,1.398,1.4922,-0.22461,0.35093
10.456,-0.046602,1.4471,1.5039,-0.25977,0.348
10.464,-0.046602,1.4882,1.5039,-0.2793,0.34506
10.472,-0.046602,1.5039,1.5039,-0.30469,0.34311
10.48,-0.048544,1.5039,1.5039,-0.33008,0.34213
10.488,-0.048544,1.5039,1.5039,-0.34375,0.3392
10.496,-0.050485,1.5039,1.502,-0.33008,0.33724
10.504,-0.052427,1.5039,1.4529,-0.30859,0.33529
10.512,-0.054369,1.4627,1.3922,-0.28516,0.33236
10.52,-0.056311,1.3667,1.3333,-0.22461,0.3304
10.528,-0.058252,1.2725,1.2667,-0.16406,0.32845
10.536,-0.058252,1.1824,1.2118,-0.10938,0.32551
10.544,-0.060194,1.0922,1.1627,-0.054688,0.32356
10.552,-0.062136,1.0275,1.1216,-0.013672,0.32063
10.56,-0.062136,0.99216,1.0961,0.0097656,0.31867
10.568,-0.062136,0.95686,1.0765,0.019531,0.31574
10.576,-0.062136,0.93137,1.0667,0.041016,0.31378
10.584,-0.062136,0.91569,1.0569,0.054688,0.31183
10.592,-0.062136,0.91176,1.0608,0.054688,0.30987
10.6,-0.062136,0.90588,1.0725,0.064453,0.30694
10.608,-0.062136,0.90196,1.0667,0.070312,0.30401
10.616,-0.060194,0.90588,1.0608,0.064453,0.3001
10.624,-0.058252,0.90588,1.0667,0.070312,0.29619
10.632,-0.058252,0.90196,1.0569,0.070312,0.29228
10.64,-0.058252,0.90196,1.0569,0.076172,0.28837
10.648,-0.058252,0.90196,1.051,0.070312,0.28446
10.656,-0.060194,0.89608,1.051,0.076172,0.27957
10.664,-0.060194,0.88039,1.0471,0.085938,0.27664
10.672,-0.058252,0.87647,1.0471,0.089844,0.27664
10.68,-0.058252,0.88039,1.0373,0.089844,0.27957
10.688,-0.056311,0.88039,1.0275,0.089844,0.28739
10.696,-0.056311,0.88039,1.0216,0.089844,0.30303
10.704,-0.054369,0.87059,1.0216,0.089844,0.32747
10.712,-0.054369,0.85686,1.0157,0.095703,0.3607
10.72,-0.052427,0.85098,1.0118,0.10547,0.40274
10.728,-0.052427,0.85686,1.0059,0.099609,0.45064
10.736,-0.050485,0.86667,1.002,0.099609,0.50147
10.744,-0.048544,0.88627,1.0118,0.089844,0.5523
10.752,-0.046602,0.92157,1.0412,0.070312,0.59922
10.76,-0.046602,0.95098,1.051,0.064453,0.64125
10.768,-0.04466,0.97059,1.0471,0.044922,0.67644
10.776,-0.042718,0.98235,1.0412,0.035156,0.70479
10.784,-0.040777,1.0118,1.0314,0.0097656,0.72727
10.792,-0.040777,0.98235,0.98627,0.0058594,0.74096
10.8,-0.038835,0.97059,0.97059,0.015625,0.74976
10.808,-0.036893,0.96667,0.96667,0.0097656,0.7566
10.816,-0.034951,0.97647,0.99216,0.019531,0.76149
10.824,-0.03301,0.93725,1.002,0.054688,0.76344
10.832,-0.031068,0.88627,0.98627,0.085938,0.76149
10.84,-0.029126,0.85098,0.98235,0.11523,0.75855
10.848,-0.025243,0.83529,0.97647,0.12109,0.75171
10.856,-0.023301,0.8451,0.97059,0.11523,0.74291
10.864,-0.021359,0.85686,0.97647,0.11523,0.73216
10.872,-0.021359,0.8451,0.97647,0.11523,0.71848
10.88,-0.019417,0.84118,0.99608,0.12109,0.70283
10.888,-0.017476,0.8902,1.102,0.13477,0.68622
10.896,-0.017476,1.1314,1.1373,-0.025391,0.66862
10.904,-0.015534,1.5039,1.2118,-0.34375,0.65103
10.912,-0.015534,1.5039,1.1059,-0.49805,0.6305
10.92,-0.015534,1.5039,0.68039,-0.38867,0.60899
10.928,-0.015534,0.5902,0.12353,0.11133,0.58749
10.936,-0.015534,0.40392,0.31961,0.2793,0.56598
10.944,-0.015534,0.58431,0.68627,0.23047,0.54545
10.952,-0.015534,0.80588,0.95098,0.14062,0.5259
10.96,-0.015534,0.90588,1.051,0.089844,0.50831
10.968,-0.015534,0.93137,1.0824,0.076172,0.49169
10.976,-0.015534,0.94706,1.0922,0.070312,0.47703
10.984,-0.015534,0.95098,1.0961,0.064453,0.46334
10.992,-0.015534,0.94706,1.1059,0.070312,0.45161
11,-0.015534,0.95098,1.1118,0.060547,0.44184
11.008,-0.015534,0.96078,1.1176,0.054688,0.43304
11.016,-0.013592,0.97647,1.1176,0.044922,0.42522
11.024,-0.013592,0.98627,1.1275,0.041016,0.41642
11.032,-0.01165,1.0059,1.1373,0.03125,0.4086
11.04,-0.01165,1.0216,1.1412,0.019531,0.40176
11.048,-0.0097087,1.0569,1.1412,0,0.39492
11.056,-0.007767,1.0765,1.1569,-0.0097656,0.38905
11.064,-0.007767,1.102,1.1667,-0.025391,0.38319
11.072,-0.0058252,1.1275,1.1824,-0.029297,0.3783
11.08,-0.0038835,1.1569,1.202,-0.048828,0.37341
11.088,-0.0038835,1.1961,1.2275,-0.080078,0.3695
11.096,-0.0019417,1.2275,1.2529,-0.099609,0.36559
11.104,-0.0019417,1.2765,1.2765,-0.12891,0.36266
11.112,-0.0019417,1.3275,1.3078,-0.16406,0.3607
11.12,0,1.3784,1.3333,-0.18945,0.35777
11.128,-0.0019417,1.4235,1.3529,-0.21875,0.35484
11.136,-0.0019417,1.4627,1.3667,-0.24414,0.35191
11.144,-0.0038835,1.4882,1.3784,-0.26367,0.34995
11.152,-0.0038835,1.5039,1.3569,-0.2793,0.34702
11.16,-0.0058252,1.498,1.3333,-0.28516,0.34506
11.168,-0.007767,1.4725,1.2882,-0.26953,0.34213
11.176,-0.01165,1.4078,1.2314,-0.23438,0.34018
11.184,-0.013592,1.3275,1.1725,-0.18359,0.33822
11.192,-0.017476,1.2314,1.1059,-0.12891,0.33236
11.2,-0.019417,1.1373,1.0471,-0.074219,0.32649
11.208,-0.023301,1.051,0.99216,-0.019531,0.32258
11.216,-0.025243,0.98235,0.94706,0.015625,0.32063
11.224,-0.027184,0.92549,0.92157,0.050781,0.31769
11.232,-0.029126,0.8902,0.90196,0.076172,0.31476
11.24,-0.03301,0.86078,0.8902,0.089844,0.31183
11.248,-0.034951,0.85098,0.88627,0.095703,0.3089
11.256,-0.036893,0.8451,0.88627,0.095703,0.30596
11.264,-0.038835,0.8451,0.88627,0.099609,0.30303
11.272,-0.038835,0.84118,0.88039,0.099609,0.29912
11.28,-0.038835,0.84118,0.88627,0.10547,0.29619
11.288,-0.038835,0.8451,0.88039,0.099609,0.29228
11.296,-0.038835,0.84118,0.88039,0.099609,0.28837
11.304,-0.040777,0.83529,0.88039,0.11133,0.28446
11.312,-0.040777,0.83529,0.87059,0.10547,0.28055
11.32,-0.042718,0.83137,0.87059,0.11523,0.27761
11.328,-0.04466,0.82157,0.86667,0.11133,0.27468
11.336,-0.04466,0.82157,0.85686,0.11523,0.2737
11.344,-0.046602,0.81176,0.85098,0.11523,0.27468
11.352,-0.046602,0.81176,0.85098,0.11523,0.28152
11.36,-0.046602,0.80588,0.8451,0.12109,0.29521
11.368,-0.046602,0.8,0.84118,0.13086,0.31867
11.376,-0.046602,0.79608,0.84118,0.13086,0.35093
11.384,-0.046602,0.79608,0.83529,0.13477,0.39101
11.392,-0.046602,0.7902,0.83137,0.13477,0.43695
11.4,-0.04466,0.78627,0.83529,0.14062,0.4868
11.408,-0.042718,0.7902,0.83529,0.14062,0.53666
11.416,-0.040777,0.82549,0.85686,0.125,0.57771
11.424,-0.036893,0.86667,0.88039,0.11133,0.6129
11.432,-0.03301,0.88039,0.88039,0.089844,0.64614
11.44,-0.029126,0.90196,0.87647,0.076172,0.67742
11.448,-0.025243,0.92549,0.88039,0.050781,0.70283
11.456,-0.021359,0.91176,0.83529,0.044922,0.72239
11.464,-0.017476,0.88039,0.81176,0.060547,0.73803
11.472,-0.013592,0.88039,0.80588,0.064453,0.74878
11.48,-0.0097087,0.90196,0.83137,0.064453,0.75562
11.488,-0.0058252,0.86078,0.84118,0.089844,0.75953
11.496,0,0.81176,0.83137,0.13086,0.76051
11.504,0.0038835,0.76667,0.81569,0.16016,0.75855
11.512,0.0097087,0.75098,0.81176,0.16602,0.75367
11.52,0.015534,0.7451,0.81176,0.16992,0.74682
11.528,0.021359,0.7451,0.81176,0.17578,0.73705
11.536,0.025243,0.75098,0.81569,0.16992,0.7263
11.544,0.031068,0.7549,0.82157,0.17578,0.71359
11.552,0.036893,0.75098,0.90588,0.18945,0.69795
11.56,0.040777,0.90588,0.96667,0.12109,0.68133
11.568,0.04466,1.2431,1.0373,-0.10352,0.66276
11.576,0.048544,1.5039,0.97059,-0.42969,0.64321
11.584,0.052427,1.5039,0.64118,-0.49805,0.62268
11.592,0.056311,0.77059,0.058824,-0.0039062,0.60215
11.6,0.060194,0.2,-0.11765,0.34961,0.5826
11.608,0.064078,0.3451,0.3549,0.36523,0.56305
11.616,0.066019,0.6098,0.7,0.23047,0.54448
11.624,0.069903,0.80588,0.87647,0.14062,0.52688
11.632,0.071845,0.85686,0.93137,0.11523,0.51222
11.64,0.075728,0.87059,0.95098,0.11523,0.50049
11.648,0.07767,0.87647,0.96078,0.11133,0.48778
11.656,0.081553,0.88627,0.97059,0.10547,0.47507
11.664,0.083495,0.89608,0.97647,0.089844,0.46432
11.672,0.085437,0.90588,0.98235,0.089844,0.45357
11.68,0.08932,0.91176,0.98627,0.085938,0.44379
11.688,0.091262,0.92549,0.99608,0.076172,0.43597
11.696,0.095146,0.94118,1.002,0.064453,0.42815
11.704,0.099029,0.96078,1.0059,0.060547,0.42033
11.712,0.10097,0.97647,1.0216,0.050781,0.41349
11.72,0.10485,1.002,1.0275,0.035156,0.40762
11.728,0.1068,1.0216,1.0373,0.019531,0.40274
11.736,0.10874,1.0569,1.051,0,0.39785
11.744,0.11068,1.0863,1.0667,-0.013672,0.39394
11.752,0.11262,1.1118,1.0863,-0.035156,0.39003
11.76,0.11456,1.151,1.1118,-0.054688,0.38612
11.768,0.11456,1.1922,1.1373,-0.080078,0.38221
11.776,0.1165,1.2314,1.1569,-0.10938,0.37732
11.784,0.1165,1.2765,1.1863,-0.13477,0.37439
11.792,0.1165,1.3176,1.2118,-0.16406,0.37048
11.8,0.11456,1.3627,1.2216,-0.19336,0.36755
11.808,0.11456,1.3922,1.2314,-0.21875,0.36461
11.816,0.11262,1.4118,1.2275,-0.23438,0.36168
11.824,0.11068,1.4235,1.2118,-0.24414,0.35777
11.832,0.1068,1.4078,1.1824,-0.24414,0.35484
11.84,0.10485,1.3667,1.1373,-0.22461,0.35288
11.848,0.10097,1.3078,1.0863,-0.18945,0.35093
11.856,0.099029,1.2314,1.0314,-0.13867,0.348
11.864,0.099029,1.1471,0.97647,-0.083984,0.34506
11.872,0.097087,1.0608,0.93137,-0.029297,0.34115
11.88,0.095146,0.98627,0.8902,0.019531,0.33724
11.888,0.093204,0.92549,0.85686,0.060547,0.33431
11.896,0.091262,0.88039,0.83529,0.080078,0.3304
11.904,0.091262,0.85098,0.82549,0.10547,0.32649
11.912,0.08932,0.83529,0.82157,0.11523,0.32258
11.92,0.08932,0.82549,0.81569,0.12109,0.31769
11.928,0.08932,0.82549,0.81176,0.12109,0.31378
11.936,0.08932,0.82157,0.81569,0.125,0.3089
11.944,0.08932,0.82549,0.81176,0.12109,0.30596
11.952,0.091262,0.82549,0.81569,0.11523,0.30303
11.96,0.093204,0.82549,0.81569,0.11523,0.29814
11.968,0.095146,0.82157,0.81176,0.12109,0.29326
11.976,0.095146,0.82157,0.81176,0.12109,0.28837
11.984,0.097087,0.82157,0.81176,0.125,0.28348
11.992,0.099029,0.81569,0.81176,0.13086,0.27859
12,0.099029,0.81176,0.81176,0.125,0.27664
12.008,0.099029,0.81176,0.80588,0.13086,0.27859
12.016,0.10097,0.81176,0.8,0.125,0.28739
12.024,0.10097,0.8,0.8,0.13086,0.30401
12.032,0.10097,0.8,0.79608,0.125,0.32942
12.04,0.10291,0.79608,0.79608,0.13477,0.36266
12.048,0.10291,0.8,0.7902,0.125,0.39687
12.056,0.10485,0.80588,0.78627,0.12109,0.43206
12.064,0.1068,0.81176,0.78627,0.11523,0.4741
12.072,0.1068,0.81176,0.78627,0.11523,0.51808
12.08,0.10874,0.83529,0.80588,0.089844,0.56012
12.088,0.11068,0.87647,0.82549,0.076172,0.59824
12.096,0.11262,0.91176,0.84118,0.050781,0.63148
12.104,0.11262,0.93725,0.83529,0.025391,0.65982
12.112,0.11456,0.96667,0.8451,0.0097656,0.68231
12.12,0.11456,0.98235,0.82549,-0.0097656,0.69892
12.128,0.1165,0.94118,0.78627,0,0.71163
12.136,0.1165,0.93137,0.78039,0,0.72043
12.144,0.11845,0.92549,0.78627,0.0058594,0.7263
12.152,0.12039,0.94118,0.81176,0,0.72727
12.16,0.12039,0.88039,0.80588,0.050781,0.7263
12.168,0.12233,0.83137,0.78627,0.085938,0.72336
12.176,0.12233,0.80588,0.77059,0.095703,0.71848
12.184,0.12427,0.8,0.77059,0.095703,0.71163
12.192,0.12427,0.8,0.77059,0.089844,0.70283
12.2,0.12427,0.8,0.77059,0.095703,0.6911
12.208,0.12427,0.81176,0.76667,0.089844,0.67644
12.216,0.12427,0.80588,0.7902,0.085938,0.6608
12.224,0.12427,0.85098,0.91176,0.099609,0.64223
12.232,0.12427,1.0373,0.94118,-0.025391,0.62366
12.24,0.12427,1.4431,0.99216,-0.29492,0.60313
12.248,0.12427,1.5039,0.86667,-0.49805,0.58162
12.256,0.12427,1.498,0.46471,-0.44922,0.56305
12.264,0.12427,0.53922,-0.10196,0.054688,0.54545
12.272,0.12427,0.27843,-0.10588,0.26953,0.52688
12.28,0.12233,0.46078,0.41569,0.23047,0.50733
12.288,0.12233,0.73137,0.70588,0.10547,0.48974
12.296,0.12039,0.86667,0.83529,0.035156,0.47214
12.304,0.12039,0.89608,0.87647,0.015625,0.4565
12.312,0.11845,0.90588,0.88627,0.0097656,0.44282
12.32,0.11845,0.91569,0.89608,0,0.43011
12.328,0.11845,0.92549,0.90196,-0.0039062,0.41838
12.336,0.1165,0.92549,0.90588,-0.0097656,0.40762
12.344,0.1165,0.93725,0.91569,-0.019531,0.39785
12.352,0.1165,0.94706,0.92157,-0.025391,0.38905
12.36,0.11845,0.95686,0.92549,-0.039062,0.38319
12.368,0.11845,0.97647,0.92549,-0.048828,0.37732
12.376,0.12233,0.99608,0.93725,-0.058594,0.37146
12.384,0.12427,1.0118,0.94118,-0.074219,0.36559
12.392,0.12621,1.0314,0.95098,-0.089844,0.3607
12.4,0.12816,1.051,0.95686,-0.099609,0.35582
12.408,0.13204,1.0765,0.97059,-0.11914,0.35191
12.416,0.13398,1.102,0.98235,-0.13477,0.348
12.424,0.13592,1.1314,1.002,-0.1543,0.34409
12.432,0.13786,1.1667,1.0314,-0.17969,0.34018
12.44,0.13786,1.2078,1.051,-0.20508,0.33724
12.448,0.13981,1.2471,1.0725,-0.23438,0.33431
12.456,0.13786,1.2882,1.0961,-0.26367,0.33138
12.464,0.13786,1.3216,1.1118,-0.29492,0.32942
12.472,0.13398,1.3569,1.1275,-0.32422,0.32747
12.48,0.13204,1.3784,1.1314,-0.34961,0.32551
12.488,0.1301,1.3922,1.1216,-0.35352,0.32356
12.496,0.12816,1.3882,1.102,-0.35938,0.3216
12.504,0.12621,1.3725,1.0725,-0.35352,0.31867
12.512,0.12233,1.3275,1.0275,-0.32422,0.31672
12.52,0.12039,1.2569,0.98235,-0.2793,0.31378
12.528,0.11845,1.1725,0.92549,-0.22852,0.31085
12.536,0.1165,1.0863,0.87059,-0.16992,0.3089
12.544,0.1165,1.002,0.83137,-0.11523,0.30596
12.552,0.11456,0.92549,0.7902,-0.070312,0.30303
12.56,0.11262,0.87059,0.76667,-0.039062,0.3001
12.568,0.11262,0.83137,0.75098,-0.0097656,0.29619
12.576,0.11262,0.8,0.74118,0.0058594,0.29423
12.584,0.11262,0.78627,0.74118,0.015625,0.29228
12.592,0.11262,0.77059,0.73529,0.019531,0.28935
12.6,0.11456,0.76667,0.72549,0.025391,0.28543
12.608,0.11845,0.76667,0.72549,0.019531,0.28152
12.616,0.12039,0.76078,0.73137,0.025391,0.27761
12.624,0.12233,0.76078,0.72549,0.03125,0.27273
12.632,0.12621,0.75098,0.73529,0.041016,0.26784
12.64,0.1301,0.7451,0.73529,0.041016,0.26295
12.648,0.13204,0.74118,0.73529,0.041016,0.25709
12.656,0.13398,0.73529,0.73529,0.044922,0.2522
12.664,0.13592,0.73137,0.73137,0.044922,0.24927
12.672,0.13786,0.71569,0.73137,0.050781,0.24927
12.68,0.13981,0.71569,0.72549,0.044922,0.25318
12.688,0.14175,0.71569,0.72549,0.054688,0.26197
12.696,0.14369,0.70588,0.73137,0.060547,0.27859
12.704,0.14563,0.7,0.73137,0.064453,0.30499
12.712,0.14757,0.7,0.73137,0.054688,0.3392
12.72,0.14757,0.69608,0.73137,0.064453,0.38025
12.728,0.14951,0.69608,0.73137,0.060547,0.42717
12.736,0.14951,0.69608,0.74118,0.060547,0.47507
12.744,0.15146,0.72157,0.76078,0.044922,0.52199
12.752,0.1534,0.76078,0.78627,0.025391,0.565
12.76,0.1534,0.7902,0.80588,0,0.60313
12.768,0.15534,0.8,0.8,-0.0039062,0.63441
12.776,0.15728,0.83529,0.81176,-0.029297,0.65982
12.784,0.15728,0.85098,0.79608,-0.044922,0.6784
12.792,0.15728,0.80588,0.76078,-0.029297,0.69013
12.8,0.15922,0.8,0.76078,-0.025391,0.6999
12.808,0.15922,0.79608,0.77059,-0.025391,0.70772
12.816,0.16117,0.8,0.7902,0,0.71163
12.824,0.16117,0.72549,0.78627,0.044922,0.71359
12.832,0.16311,0.67647,0.78039,0.080078,0.71163
12.84,0.16505,0.65098,0.77647,0.089844,0.70772
12.848,0.16699,0.6451,0.77647,0.099609,0.70186
12.856,0.16893,0.64118,0.78039,0.10547,0.69306
12.864,0.17282,0.64118,0.78627,0.11133,0.68133
12.872,0.17282,0.6451,0.7902,0.10547,0.66764
12.88,0.17476,0.6451,0.81569,0.11133,0.652
12.888,0.17476,0.69608,0.94118,0.12109,0.63636
12.896,0.17476,0.8902,0.98235,-0.0097656,0.61975
12.904,0.17476,1.302,1.0275,-0.28906,0.60117
12.912,0.1767,1.5039,0.91176,-0.49805,0.58162
12.92,0.1767,1.298,0.50588,-0.39844,0.56109
12.928,0.1767,0.35882,-0.037255,0.10547,0.53959
12.936,0.1767,0.12353,0.13333,0.31445,0.52004
12.944,0.1767,0.3098,0.5,0.26953,0.50049
12.952,0.1767,0.57451,0.7902,0.14453,0.48192
12.96,0.1767,0.70588,0.92157,0.076172,0.46432
12.968,0.1767,0.73529,0.96078,0.070312,0.44868
12.976,0.1767,0.7451,0.98627,0.064453,0.435
12.984,0.17476,0.7549,1.002,0.060547,0.42229
12.992,0.17476,0.76667,1.0118,0.050781,0.41153
13,0.1767,0.77647,1.0216,0.044922,0.40371
13.008,0.1767,0.7902,1.0275,0.041016,0.39492
13.016,0.17864,0.80588,1.0471,0.03125,0.3871
13.024,0.18058,0.81569,1.051,0.019531,0.37928
13.032,0.18252,0.84118,1.0667,0.0058594,0.37243
13.04,0.18447,0.85686,1.0824,0,0.36559
13.048,0.18641,0.88039,1.0922,-0.0097656,0.35973
13.056,0.18835,0.89608,1.1059,-0.025391,0.35484
13.064,0.18835,0.92157,1.1216,-0.039062,0.35093
13.072,0.19029,0.94706,1.1412,-0.054688,0.34604
13.08,0.19029,0.97647,1.1627,-0.074219,0.34311
13.088,0.19223,1.0118,1.1863,-0.09375,0.3392
13.096,0.19223,1.0569,1.2118,-0.11914,0.33724
13.104,0.19223,1.1059,1.2373,-0.14844,0.33529
13.112,0.19029,1.151,1.2667,-0.17969,0.33333
13.12,0.19029,1.1922,1.2922,-0.20508,0.33138
13.128,0.18835,1.2314,1.3118,-0.23438,0.32845
13.136,0.18641,1.2667,1.3275,-0.25977,0.32649
13.144,0.18447,1.298,1.3373,-0.2793,0.32356
13.152,0.18252,1.3078,1.3275,-0.28906,0.3216
13.16,0.18058,1.3118,1.3176,-0.29883,0.31867
13.168,0.17864,1.302,1.2882,-0.28906,0.31672
13.176,0.1767,1.2529,1.2529,-0.26367,0.31378
13.184,0.17476,1.1922,1.2078,-0.21875,0.31183
13.192,0.17282,1.1059,1.1627,-0.16016,0.3089
13.2,0.17087,1.0275,1.1176,-0.10352,0.30792
13.208,0.17087,0.94706,1.0725,-0.054688,0.30596
13.216,0.16893,0.88039,1.0471,-0.0039062,0.30499
13.224,0.16893,0.83137,1.0216,0.025391,0.30205
13.232,0.16699,0.8,1.002,0.044922,0.3001
13.24,0.16699,0.77059,1.002,0.064453,0.29717
13.248,0.16699,0.76078,1.002,0.070312,0.29521
13.256,0.16893,0.75098,1.002,0.080078,0.29228
13.264,0.17087,0.7549,1.002,0.085938,0.28935
13.272,0.17476,0.75098,1.002,0.089844,0.28543
13.28,0.17864,0.7549,1.0118,0.085938,0.28055
13.288,0.18252,0.7549,1.0157,0.089844,0.27664
13.296,0.18641,0.7549,1.0216,0.085938,0.27175
13.304,0.19029,0.76078,1.0216,0.085938,0.26784
13.312,0.19417,0.76078,1.0216,0.085938,0.26491
13.32,0.19612,0.76078,1.0216,0.089844,0.261
13.328,0.2,0.7549,1.0216,0.089844,0.25709
13.336,0.20194,0.76078,1.0216,0.089844,0.25611
13.344,0.20583,0.7549,1.0216,0.089844,0.25904
13.352,0.20777,0.75098,1.0216,0.089844,0.26882
13.36,0.20971,0.75098,1.0216,0.095703,0.28641
13.368,0.21165,0.7549,1.0216,0.099609,0.31281
13.376,0.21165,0.76078,1.0216,0.089844,0.34702
13.384,0.21359,0.76078,1.0157,0.089844,0.38905
13.392,0.21359,0.76078,1.0157,0.095703,0.43402
13.4,0.21553,0.77059,1.0216,0.089844,0.48094
13.408,0.21553,0.81176,1.051,0.064453,0.52688
13.416,0.21553,0.85686,1.0725,0.041016,0.56305
13.424,0.21553,0.8902,1.0863,0.015625,0.59335
13.432,0.21553,0.90196,1.0824,0,0.6217
13.44,0.21553,0.94706,1.0922,-0.019531,0.64712
13.448,0.21553,0.95686,1.0667,-0.025391,0.66667
13.456,0.21553,0.91176,1.0373,-0.013672,0.68231
13.464,0.21553,0.90588,1.0314,-0.019531,0.69404
13.472,0.21553,0.92549,1.0471,-0.013672,0.70186
13.48,0.21553,0.90196,1.0667,0.0097656,0.70674
13.488,0.21553,0.85098,1.0569,0.044922,0.70772
13.496,0.21553,0.81176,1.0471,0.076172,0.70674
13.504,0.21553,0.7902,1.0471,0.089844,0.70283
13.512,0.21553,0.7902,1.0471,0.095703,0.69697
13.52,0.21553,0.79608,1.0471,0.089844,0.68915
13.528,0.21748,0.79608,1.0471,0.095703,0.67937
13.536,0.21748,0.80588,1.051,0.089844,0.66667
13.544,0.21748,0.80588,1.0863,0.095703,0.65298
13.552,0.21748,0.87647,1.2078,0.10547,0.63636
13.56,0.21748,1.0961,1.2431,-0.058594,0.61877
13.568,0.21748,1.5039,1.2765,-0.35352,0.59922
13.576,0.21748,1.5039,1.1176,-0.49805,0.57967
13.584,0.21748,1.3078,0.66078,-0.33984,0.55816
13.592,0.21748,0.42549,0.19412,0.15039,0.53763
13.6,0.21748,0.2902,0.43529,0.29102,0.51808
13.608,0.21553,0.51961,0.79608,0.23438,0.49853
13.616,0.21553,0.78627,1.051,0.099609,0.48094
13.624,0.21359,0.89608,1.1627,0.050781,0.46628
13.632,0.21165,0.92549,1.1922,0.041016,0.45357
13.64,0.20971,0.94118,1.2118,0.03125,0.44086
13.648,0.20971,0.95098,1.2176,0.025391,0.42913
13.656,0.20777,0.95098,1.2275,0.019531,0.41838
13.664,0.20583,0.97059,1.2314,0.015625,0.40762
13.672,0.20583,0.98235,1.2431,0,0.39883
13.68,0.20583,1.002,1.2529,-0.0097656,0.39003
13.688,0.20583,1.0157,1.2569,-0.013672,0.38221
13.696,0.20583,1.0373,1.2667,-0.025391,0.37537
13.704,0.20583,1.051,1.2824,-0.035156,0.3695
13.712,0.20583,1.0725,1.2824,-0.044922,0.36364
13.72,0.20777,1.0922,1.298,-0.054688,0.35875
13.728,0.20971,1.1176,1.3118,-0.070312,0.35484
13.736,0.20971,1.1412,1.3176,-0.080078,0.35191
13.744,0.20971,1.1765,1.3373,-0.10352,0.348
13.752,0.20971,1.2118,1.3569,-0.125,0.34506
13.76,0.20971,1.2529,1.3824,-0.14844,0.34213
13.768,0.20777,1.298,1.402,-0.17969,0.3392
13.776,0.20777,1.3471,1.4235,-0.20898,0.33627
13.784,0.20583,1.3922,1.4471,-0.24023,0.33333
13.792,0.20388,1.4333,1.4686,-0.26953,0.33138
13.8,0.20194,1.4686,1.4784,-0.29492,0.32942
13.808,0.2,1.4922,1.4824,-0.31445,0.32747
13.816,0.19806,1.502,1.4725,-0.32422,0.32551
13.824,0.19612,1.502,1.4529,-0.32422,0.32258
13.832,0.19417,1.4824,1.4235,-0.30859,0.3216
13.84,0.19029,1.4333,1.3784,-0.2793,0.32063
13.848,0.18835,1.3627,1.3333,-0.23438,0.31867
13.856,0.18641,1.2725,1.2765,-0.17383,0.31672
13.864,0.18252,1.1922,1.2275,-0.11914,0.31476
13.872,0.17864,1.1176,1.1824,-0.070312,0.31281
13.88,0.17476,1.051,1.151,-0.029297,0.30987
13.888,0.17282,1.0059,1.1275,0,0.30792
13.896,0.17087,0.97059,1.1118,0.025391,0.30499
13.904,0.16893,0.94706,1.0961,0.041016,0.30303
13.912,0.16893,0.93725,1.0922,0.044922,0.29912
13.92,0.17087,0.93137,1.0922,0.054688,0.29619
13.928,0.17282,0.93725,1.0863,0.054688,0.29228
13.936,0.17476,0.93137,1.0922,0.060547,0.28935
13.944,0.17864,0.92549,1.0922,0.064453,0.28739
13.952,0.18252,0.92549,1.0922,0.060547,0.28348
13.96,0.18641,0.92549,1.0863,0.064453,0.27957
13.968,0.18835,0.92549,1.0922,0.070312,0.27468
13.976,0.19029,0.92157,1.0922,0.064453,0.26979
13.984,0.19223,0.91569,1.0922,0.070312,0.26588
13.992,0.19417,0.92157,1.0863,0.070312,0.26197
14,0.19612,0.91176,1.0765,0.080078,0.26197
14.008,0.19612,0.90588,1.0765,0.080078,0.26784
14.016,0.19806,0.90588,1.0725,0.080078,0.28055
14.024,0.19806,0.90196,1.0667,0.085938,0.30205
14.032,0.19806,0.89608,1.0608,0.089844,0.33138
14.04,0.19806,0.89608,1.0569,0.085938,0.36364
14.048,0.19806,0.89608,1.051,0.089844,0.39883
14.056,0.19806,0.90196,1.0569,0.080078,0.44086
14.064,0.19806,0.92549,1.0725,0.070312,0.4868
14.072,0.19806,0.96667,1.0961,0.044922,0.53177
14.08,0.19806,1.002,1.1118,0.019531,0.5738
14.088,0.19612,1.0157,1.102,0.0097656,0.60997
14.096,0.19612,1.0412,1.1059,-0.0039062,0.64125
14.104,0.19612,1.0608,1.0863,-0.025391,0.66569
14.112,0.19612,1.0216,1.0471,-0.0097656,0.68524
14.12,0.19417,1.0157,1.0314,-0.0039062,0.6999
14.128,0.19417,1.0216,1.0373,-0.0097656,0.71065
14.136,0.19223,1.0275,1.0569,0.0058594,0.7175
14.144,0.19029,0.96667,1.0471,0.044922,0.72043
14.152,0.19029,0.92157,1.0373,0.076172,0.72043
14.16,0.18835,0.8902,1.0216,0.089844,0.7175
14.168,0.18835,0.88039,1.0216,0.099609,0.71359
14.176,0.18835,0.8902,1.0216,0.095703,0.70772
14.184,0.18835,0.8902,1.0216,0.095703,0.69892
14.192,0.18835,0.90196,1.0216,0.089844,0.68817
14.2,0.18835,0.8902,1.0157,0.099609,0.67546
14.208,0.19029,0.92157,1.1569,0.11523,0.6608
14.216,0.19029,1.102,1.1922,0,0.64418
14.224,0.19029,1.4882,1.2373,-0.25977,0.62561
14.232,0.19029,1.5039,1.1373,-0.49805,0.60508
14.24,0.19029,1.5039,0.77059,-0.44922,0.58456
14.248,0.18835,0.67059,0.19412,0.054688,0.56403
14.256,0.18641,0.37451,0.15882,0.29102,0.54545
14.264,0.18252,0.53529,0.65098,0.29492,0.52884
14.272,0.17864,0.80588,0.95098,0.14062,0.51124
14.28,0.1767,0.95686,1.0922,0.060547,0.49365
14.288,0.17282,0.99608,1.1314,0.044922,0.47703
14.296,0.16893,1.0118,1.1412,0.035156,0.46139
14.304,0.16699,1.0216,1.1569,0.025391,0.4477
14.312,0.16311,1.0373,1.1627,0.015625,0.435
14.32,0.16117,1.0471,1.1627,0,0.42326
14.328,0.15922,1.0569,1.1667,0,0.41349
14.336,0.15534,1.0667,1.1765,-0.0039062,0.40371
14.344,0.1534,1.0824,1.1824,-0.013672,0.39589
14.352,0.15146,1.102,1.1863,-0.029297,0.38807
14.36,0.14757,1.1176,1.1961,-0.044922,0.38221
14.368,0.14563,1.1412,1.1961,-0.054688,0.37732
14.376,0.14175,1.1627,1.2078,-0.064453,0.37243
14.384,0.13981,1.1824,1.2176,-0.080078,0.36755
14.392,0.13592,1.2118,1.2314,-0.10352,0.36364
14.4,0.13204,1.2373,1.2529,-0.11523,0.35973
14.408,0.12621,1.2529,1.2765,-0.12891,0.35582
14.416,0.12039,1.2882,1.302,-0.14844,0.35288
14.424,0.11262,1.3431,1.3078,-0.18945,0.34897
14.432,0.10485,1.402,1.3275,-0.21875,0.34604
14.44,0.097087,1.4471,1.3471,-0.25391,0.34409
14.448,0.08932,1.4882,1.3667,-0.28516,0.34115
14.456,0.079612,1.5039,1.3784,-0.30859,0.3392
14.464,0.071845,1.5039,1.3725,-0.33984,0.33724
14.472,0.062136,1.5039,1.3627,-0.35352,0.33529
14.48,0.052427,1.5039,1.3431,-0.36328,0.33431
14.488,0.042718,1.5039,1.3078,-0.34961,0.33333
14.496,0.034951,1.5039,1.2627,-0.32422,0.33138
14.504,0.027184,1.4373,1.2118,-0.28516,0.32942
14.512,0.019417,1.3529,1.1569,-0.23438,0.32747
14.52,0.013592,1.2569,1.102,-0.17383,0.32649
14.528,0.007767,1.1725,1.051,-0.11914,0.32454
14.536,0.0019417,1.1118,1.0118,-0.083984,0.3216
14.544,-0.0019417,1.0569,0.98235,-0.048828,0.31965
14.552,-0.0058252,1.0216,0.96078,-0.025391,0.31769
14.56,-0.01165,0.98627,0.95686,-0.0039062,0.31476
14.568,-0.015534,0.97059,0.94706,0,0.31281
14.576,-0.019417,0.96667,0.94118,0.0058594,0.31085
14.584,-0.025243,0.96667,0.93725,0.0097656,0.3089
14.592,-0.029126,0.96667,0.93725,0.0097656,0.30499
14.6,-0.034951,0.95686,0.93137,0.0097656,0.30108
14.608,-0.038835,0.95098,0.93725,0.015625,0.29717
14.616,-0.040777,0.95686,0.93137,0.0097656,0.29326
14.624,-0.04466,0.95098,0.93137,0.0097656,0.28837
14.632,-0.048544,0.94118,0.93137,0.015625,0.28348
14.64,-0.050485,0.94706,0.92549,0.0097656,0.27859
14.648,-0.052427,0.94118,0.92157,0.0097656,0.27468
14.656,-0.056311,0.93137,0.91176,0.015625,0.27468
14.664,-0.058252,0.92549,0.90588,0.025391,0.27859
14.672,-0.058252,0.92549,0.90196,0.025391,0.28739
14.68,-0.060194,0.92549,0.8902,0.025391,0.30205
14.688,-0.060194,0.91176,0.88627,0.03125,0.32551
14.696,-0.062136,0.90588,0.88627,0.041016,0.35777
14.704,-0.064078,0.89608,0.88039,0.044922,0.39785
14.712,-0.066019,0.88627,0.88039,0.044922,0.44184
14.72,-0.067961,0.90588,0.88039,0.035156,0.48876
14.728,-0.069903,0.93725,0.89608,0.019531,0.53372
14.736,-0.071845,0.97059,0.90588,0,0.57576
14.744,-0.071845,1.002,0.91569,-0.025391,0.6129
14.752,-0.073786,1.002,0.90588,-0.025391,0.64418
14.76,-0.075728,1.0373,0.91176,-0.044922,0.6696
14.768,-0.075728,1.0471,0.88627,-0.054688,0.68915
14.776,-0.075728,0.96667,0.85686,-0.029297,0.70283
14.784,-0.07767,0.97059,0.85098,-0.035156,0.71065
14.792,-0.07767,0.97647,0.86078,-0.029297,0.7175
14.8,-0.07767,0.94118,0.87647,-0.0039062,0.72141
14.808,-0.075728,0.88627,0.86667,0.035156,0.72336
14.816,-0.075728,0.84118,0.85686,0.064453,0.72336
14.824,-0.075728,0.83137,0.8451,0.070312,0.72043
14.832,-0.075728,0.83529,0.8451,0.070312,0.71554
14.84,-0.073786,0.82157,0.85098,0.076172,0.70772
14.848,-0.073786,0.81569,0.8451,0.080078,0.69795
14.856,-0.073786,0.82157,0.84118,0.076172,0.68622
14.864,-0.073786,0.81569,0.91176,0.089844,0.67253
14.872,-0.073786,0.94706,0.99216,0.041016,0.65591
14.88,-0.073786,1.2431,1.0569,-0.1543,0.63734
14.888,-0.073786,1.5039,1.0725,-0.48828,0.61975
14.896,-0.073786,1.5039,0.83137,-0.49805,0.60215
14.904,-0.073786,1.0863,0.27843,-0.21875,0.58358
14.912,-0.075728,0.38431,0.0078431,0.19531,0.56305
14.92,-0.075728,0.33922,0.3098,0.25977,0.54252
14.928,-0.07767,0.6098,0.63529,0.17578,0.52297
14.936,-0.079612,0.82157,0.85098,0.080078,0.50342
14.944,-0.081553,0.88039,0.92157,0.044922,0.48583
14.952,-0.083495,0.90196,0.94706,0.041016,0.46921
14.96,-0.085437,0.90588,0.95686,0.044922,0.45455
14.968,-0.087379,0.91569,0.96078,0.035156,0.44086
14.976,-0.08932,0.91176,0.96667,0.041016,0.42815
14.984,-0.08932,0.92549,0.96667,0.019531,0.41838
14.992,-0.091262,0.93725,0.97647,0.019531,0.41056
15,-0.091262,0.95098,0.97647,0.0058594,0.40176
15.008,-0.08932,0.96667,0.98235,0,0.39394
15.016,-0.08932,0.98235,0.99608,-0.0039062,0.3871
15.024,-0.087379,1.002,1.0059,-0.019531,0.38025
15.032,-0.085437,1.0118,1.0118,-0.025391,0.37439
15.04,-0.083495,1.0373,1.0216,-0.039062,0.36852
15.048,-0.083495,1.0824,1.0314,-0.070312,0.36364
15.056,-0.081553,1.102,1.051,-0.080078,0.35875
15.064,-0.079612,1.1216,1.0725,-0.09375,0.35484
15.072,-0.07767,1.1725,1.0863,-0.125,0.35093
15.08,-0.07767,1.2176,1.1118,-0.1543,0.34702
15.088,-0.075728,1.2627,1.1373,-0.18359,0.34409
15.096,-0.075728,1.298,1.1627,-0.20898,0.34213
15.104,-0.075728,1.3333,1.1863,-0.22852,0.34018
15.112,-0.075728,1.3667,1.202,-0.25977,0.33822
15.12,-0.075728,1.4078,1.2118,-0.28516,0.33529
15.128,-0.07767,1.4471,1.2118,-0.30859,0.33333
15.136,-0.07767,1.4529,1.1961,-0.31836,0.33138
15.144,-0.079612,1.4235,1.1667,-0.30469,0.32845
15.152,-0.079612,1.3922,1.1216,-0.28516,0.32649
15.16,-0.079612,1.3333,1.0667,-0.25,0.32356
15.168,-0.079612,1.2471,1.0118,-0.19922,0.3216
15.176,-0.079612,1.151,0.94706,-0.13477,0.31867
15.184,-0.079612,1.0471,0.89608,-0.074219,0.31672
15.192,-0.079612,0.96078,0.85098,-0.025391,0.31378
15.2,-0.07767,0.89608,0.81569,0.015625,0.31183
15.208,-0.07767,0.85098,0.7902,0.044922,0.31085
15.216,-0.075728,0.82549,0.77647,0.070312,0.3089
15.224,-0.073786,0.80588,0.77059,0.076172,0.30596
15.232,-0.071845,0.7902,0.76667,0.085938,0.30303
15.24,-0.069903,0.77647,0.77059,0.089844,0.3001
15.248,-0.067961,0.77059,0.77059,0.095703,0.29619
15.256,-0.066019,0.78627,0.77059,0.089844,0.29326
15.264,-0.064078,0.78627,0.77647,0.095703,0.28935
15.272,-0.064078,0.77059,0.77647,0.099609,0.28543
15.28,-0.062136,0.76667,0.78039,0.10547,0.28152
15.288,-0.062136,0.76667,0.77647,0.095703,0.27664
15.296,-0.062136,0.78039,0.77059,0.089844,0.27077
15.304,-0.062136,0.77059,0.77059,0.099609,0.26686
15.312,-0.062136,0.76078,0.77059,0.10547,0.26588
15.32,-0.062136,0.75098,0.76667,0.11133,0.26588
15.328,-0.062136,0.76078,0.76667,0.11133,0.27077
15.336,-0.060194,0.73529,0.76078,0.11523,0.28152
15.344,-0.060194,0.72549,0.76667,0.12109,0.30205
15.352,-0.060194,0.72549,0.76078,0.125,0.33138
15.36,-0.060194,0.71569,0.7549,0.13086,0.37048
15.368,-0.058252,0.72157,0.7549,0.13477,0.41544
15.376,-0.058252,0.72157,0.76078,0.13086,0.4653
15.384,-0.056311,0.73529,0.7549,0.13086,0.51613
15.392,-0.056311,0.76078,0.78039,0.11133,0.56403
15.4,-0.054369,0.80588,0.8,0.089844,0.60802
15.408,-0.054369,0.82549,0.81176,0.076172,0.64125
15.416,-0.052427,0.83137,0.80588,0.070312,0.66764
15.424,-0.050485,0.85686,0.81176,0.044922,0.6911
15.432,-0.050485,0.86078,0.77059,0.035156,0.71163
15.44,-0.048544,0.81176,0.74118,0.054688,0.72727
15.448,-0.048544,0.82157,0.73529,0.044922,0.739
15.456,-0.048544,0.8451,0.76667,0.044922,0.74682
15.464,-0.046602,0.8,0.78627,0.080078,0.75073
15.472,-0.046602,0.7451,0.78039,0.12109,0.75269
15.48,-0.04466,0.7098,0.76667,0.14062,0.75073
15.488,-0.042718,0.69608,0.76078,0.15039,0.74682
15.496,-0.040777,0.7,0.7549,0.14453,0.73998
15.504,-0.040777,0.7098,0.76078,0.14062,0.73118
15.512,-0.038835,0.69608,0.76667,0.15039,0.72043
15.52,-0.038835,0.7,0.77647,0.15039,0.70772
15.528,-0.036893,0.69608,0.87059,0.17578,0.69306
15.536,-0.036893,0.87059,0.91176,0.080078,0.67644
15.544,-0.034951,1.2725,1.0059,-0.17383,0.65787
15.552,-0.034951,1.5039,0.96667,-0.49805,0.63734
15.56,-0.034951,1.5039,0.68039,-0.49805,0.61584
15.568,-0.034951,0.73529,0.068627,-0.029297,0.59335
15.576,-0.036893,0.24902,-0.060784,0.29102,0.57087
15.584,-0.036893,0.34902,0.38431,0.31445,0.54936
15.592,-0.036893,0.5902,0.6902,0.20117,0.52884
15.6,-0.036893,0.74118,0.85098,0.125,0.50929
15.608,-0.036893,0.77647,0.89608,0.11133,0.49071
15.616,-0.036893,0.78627,0.91569,0.099609,0.47605
15.624,-0.036893,0.80588,0.92549,0.089844,0.46334
15.632,-0.034951,0.81176,0.93725,0.095703,0.45064
15.64,-0.034951,0.81569,0.95098,0.089844,0.43891
15.648,-0.034951,0.81176,0.95098,0.080078,0.42717
15.656,-0.03301,0.85686,0.95098,0.064453,0.4174
15.664,-0.031068,0.86667,0.97059,0.060547,0.4086
15.672,-0.031068,0.86078,0.98627,0.064453,0.3998
15.68,-0.029126,0.8902,0.99216,0.041016,0.39198
15.688,-0.027184,0.92549,1.0059,0.019531,0.38514
15.696,-0.025243,0.94118,1.0216,0.015625,0.3783
15.704,-0.023301,0.94706,1.0314,0.019531,0.37243
15.712,-0.021359,0.97059,1.0471,-0.0039062,0.36755
15.72,-0.019417,1.0157,1.0667,-0.029297,0.36364
15.728,-0.017476,1.0569,1.0863,-0.048828,0.3607
15.736,-0.015534,1.1118,1.1118,-0.080078,0.35679
15.744,-0.013592,1.1471,1.151,-0.10352,0.35386
15.752,-0.01165,1.1667,1.1824,-0.125,0.35093
15.76,-0.01165,1.2471,1.2078,-0.16992,0.348
15.768,-0.01165,1.3078,1.2275,-0.20508,0.34506
15.776,-0.0097087,1.3431,1.2431,-0.22852,0.34213
15.784,-0.01165,1.3667,1.2569,-0.25,0.3392
15.792,-0.01165,1.3922,1.2471,-0.25977,0.33627
15.8,-0.01165,1.402,1.2275,-0.2793,0.33333
15.808,-0.01165,1.3824,1.1961,-0.26367,0.33138
15.816,-0.01165,1.3275,1.1569,-0.23438,0.32845
15.824,-0.013592,1.2471,1.0961,-0.18359,0.32649
15.832,-0.013592,1.151,1.0373,-0.12891,0.32454
15.84,-0.013592,1.0824,0.97059,-0.083984,0.32258
15.848,-0.013592,0.98235,0.92157,-0.019531,0.31965
15.856,-0.01165,0.8902,0.88627,0.03125,0.31769
15.864,-0.01165,0.83529,0.85098,0.064453,0.31476
15.872,-0.0097087,0.8,0.83137,0.085938,0.31183
15.88,-0.0097087,0.78627,0.82157,0.099609,0.3089
15.888,-0.0097087,0.76078,0.82157,0.11523,0.30596
15.896,-0.007767,0.7451,0.82549,0.125,0.30303
15.904,-0.007767,0.74118,0.82157,0.125,0.29912
15.912,-0.007767,0.76078,0.82549,0.12109,0.29619
15.92,-0.0058252,0.75098,0.83529,0.11523,0.29228
15.928,-0.0038835,0.7549,0.83529,0.12109,0.29032
15.936,-0.0038835,0.7549,0.83529,0.11523,0.28739
15.944,-0.0019417,0.75098,0.84118,0.125,0.28446
15.952,-0.0019417,0.7549,0.83529,0.13086,0.27957
15.96,0,0.75098,0.83529,0.125,0.27468
15.968,0,0.7451,0.83529,0.13477,0.27077
15.976,0.0019417,0.7549,0.83529,0.125,0.26784
15.984,0.0019417,0.75098,0.82549,0.13086,0.26882
15.992,0.0038835,0.74118,0.83529,0.13477,0.27566
16,0.0058252,0.72549,0.83529,0.14453,0.29032
16.008,0.0058252,0.73137,0.83529,0.14062,0.31378
16.016,0.007767,0.72549,0.83529,0.14062,0.34702
16.024,0.007767,0.72549,0.83529,0.14453,0.38807
16.032,0.0097087,0.72157,0.82549,0.14453,0.435
16.04,0.01165,0.73137,0.83137,0.14453,0.47898
16.048,0.013592,0.77059,0.8451,0.125,0.52004
16.056,0.015534,0.81569,0.87059,0.099609,0.56305
16.064,0.017476,0.83529,0.88039,0.089844,0.60508
16.072,0.019417,0.83529,0.87647,0.085938,0.64321
16.08,0.023301,0.86078,0.88039,0.064453,0.67449
16.088,0.025243,0.89608,0.85098,0.035156,0.70088
16.096,0.027184,0.86078,0.82157,0.044922,0.72141
16.104,0.029126,0.85098,0.81569,0.044922,0.73705
16.112,0.03301,0.86078,0.82549,0.050781,0.7478
16.12,0.034951,0.86667,0.85098,0.064453,0.75562
16.128,0.036893,0.81569,0.85686,0.095703,0.75953
16.136,0.038835,0.76667,0.84118,0.125,0.76051
16.144,0.040777,0.7451,0.83529,0.14062,0.75855
16.152,0.040777,0.74118,0.83529,0.14062,0.75367
16.16,0.042718,0.74118,0.84118,0.14062,0.74682
16.168,0.042718,0.73529,0.8451,0.14062,0.73803
16.176,0.04466,0.7451,0.84118,0.13477,0.72727
16.184,0.04466,0.74118,0.90588,0.15625,0.71457
16.192,0.046602,0.86078,0.98235,0.10547,0.69892
16.2,0.046602,1.1824,1.0569,-0.099609,0.68133
16.208,0.046602,1.5039,1.0725,-0.44922,0.66178
16.216,0.04466,1.5039,0.83529,-0.49805,0.64125
16.224,0.04466,1.1314,0.3098,-0.21484,0.61975
16.232,0.04466,0.3549,0.0078431,0.2207,0.59726
16.24,0.04466,0.3098,0.33922,0.2793,0.57576
16.248,0.042718,0.58431,0.6902,0.19531,0.55621
16.256,0.042718,0.79608,0.90196,0.10547,0.53861
16.264,0.042718,0.86078,0.97059,0.076172,0.52004
16.272,0.040777,0.87647,0.99216,0.070312,0.50244
16.28,0.038835,0.8902,1.002,0.054688,0.48583
16.288,0.038835,0.90588,1.0118,0.044922,0.47019
16.296,0.036893,0.92157,1.0157,0.041016,0.4565
16.304,0.036893,0.93137,1.0216,0.03125,0.44379
16.312,0.034951,0.94706,1.0275,0.019531,0.43304
16.32,0.034951,0.95686,1.0373,0.015625,0.42326
16.328,0.034951,0.97059,1.0412,0.0058594,0.41447
16.336,0.034951,0.99216,1.0471,-0.0039062,0.40567
16.344,0.034951,1.0059,1.0569,-0.019531,0.39883
16.352,0.034951,1.0373,1.0667,-0.035156,0.39296
16.36,0.036893,1.0608,1.0765,-0.048828,0.38807
16.368,0.036893,1.0863,1.0961,-0.064453,0.38319
16.376,0.038835,1.1176,1.1118,-0.080078,0.37928
16.384,0.038835,1.151,1.1314,-0.099609,0.37537
16.392,0.040777,1.1922,1.1569,-0.125,0.37146
16.4,0.042718,1.2373,1.1824,-0.14844,0.36755
16.408,0.04466,1.2824,1.2078,-0.17969,0.36461
16.416,0.046602,1.3333,1.2314,-0.20508,0.36266
16.424,0.048544,1.3725,1.2569,-0.24023,0.3607
16.432,0.050485,1.4176,1.2765,-0.26367,0.35777
16.44,0.052427,1.4529,1.2824,-0.28906,0.35679
16.448,0.056311,1.4725,1.2824,-0.29883,0.35484
16.456,0.058252,1.4824,1.2431,-0.30859,0.35386
16.464,0.062136,1.4882,1.2078,-0.31445,0.35386
16.472,0.064078,1.4373,1.1667,-0.29492,0.35288
16.48,0.067961,1.3725,1.1118,-0.25391,0.35191
16.488,0.071845,1.2922,1.051,-0.19922,0.35093
16.496,0.075728,1.1961,0.99608,-0.13867,0.34995
16.504,0.079612,1.1059,0.94706,-0.089844,0.348
16.512,0.083495,1.0314,0.90196,-0.044922,0.34604
16.52,0.087379,0.96078,0.86667,-0.0039062,0.34506
16.528,0.091262,0.91569,0.8451,0.019531,0.34311
16.536,0.095146,0.88627,0.84118,0.041016,0.34115
16.544,0.099029,0.87059,0.83529,0.050781,0.3392
16.552,0.10097,0.85686,0.83137,0.064453,0.33724
16.56,0.10485,0.85686,0.83529,0.070312,0.33529
16.568,0.1068,0.85686,0.83529,0.070312,0.33333
16.576,0.10874,0.85686,0.83529,0.070312,0.3304
16.584,0.11068,0.85686,0.84118,0.070312,0.32747
16.592,0.11262,0.85686,0.84118,0.070312,0.32356
16.6,0.1165,0.86078,0.84118,0.070312,0.31867
16.608,0.11845,0.85686,0.84118,0.070312,0.31378
16.616,0.12039,0.85686,0.8451,0.070312,0.3089
16.624,0.12039,0.85686,0.84118,0.070312,0.30499
16.632,0.12039,0.85686,0.84118,0.070312,0.30401
16.64,0.12039,0.85098,0.83529,0.076172,0.30694
16.648,0.12039,0.8451,0.83529,0.080078,0.31672
16.656,0.12039,0.84118,0.83137,0.080078,0.33333
16.664,0.11845,0.84118,0.83137,0.080078,0.35484
16.672,0.11845,0.84118,0.83137,0.080078,0.38025
16.68,0.12039,0.83529,0.82549,0.085938,0.41642
16.688,0.12039,0.83529,0.82549,0.085938,0.45748
16.696,0.12233,0.83529,0.83137,0.076172,0.50244
16.704,0.12427,0.8451,0.83529,0.080078,0.54741
16.712,0.12621,0.87647,0.85098,0.064453,0.59042
16.72,0.12816,0.92157,0.86667,0.041016,0.62952
16.728,0.13204,0.94706,0.88039,0.019531,0.66276
16.736,0.13398,0.96078,0.87647,0.0058594,0.6911
16.744,0.13592,0.99608,0.88039,-0.013672,0.71457
16.752,0.13981,1.0059,0.8451,-0.029297,0.73314
16.76,0.13981,0.97059,0.82157,-0.025391,0.74682
16.768,0.14175,0.96667,0.81569,-0.019531,0.7566
16.776,0.14369,0.97647,0.83137,-0.013672,0.76149
16.784,0.14563,0.95686,0.8451,0.0058594,0.76246
16.792,0.14757,0.90588,0.84118,0.041016,0.76344
16.8,0.14951,0.86078,0.83137,0.070312,0.76246
16.808,0.14951,0.83529,0.83137,0.085938,0.75855
16.816,0.15146,0.83529,0.82549,0.085938,0.75269
16.824,0.15146,0.83529,0.82549,0.085938,0.74487
16.832,0.1534,0.83529,0.83137,0.085938,0.73412
16.84,0.1534,0.84118,0.83137,0.085938,0.72141
16.848,0.1534,0.83529,0.87647,0.095703,0.70577
16.856,0.1534,0.92549,0.98235,0.10547,0.68817
16.864,0.1534,1.1824,1.0216,-0.099609,0.66862
16.872,0.15146,1.5039,1.0412,-0.4082,0.64712
16.88,0.15146,1.5039,0.7902,-0.49805,0.62757
16.888,0.15146,1.2471,0.30392,-0.29492,0.60899
16.896,0.15146,0.37451,-0.076471,0.18945,0.58847
16.904,0.14951,0.29412,0.2451,0.27539,0.56794
16.912,0.14951,0.59608,0.61569,0.19531,0.54839
16.92,0.14757,0.8451,0.85686,0.080078,0.52884
16.928,0.14563,0.93137,0.94118,0.041016,0.51026
16.936,0.14369,0.95098,0.96667,0.03125,0.49365
16.944,0.14175,0.96667,0.98235,0.019531,0.47801
16.952,0.13981,0.97647,0.99216,0.0097656,0.46432
16.96,0.13786,0.99216,1.002,0.0058594,0.45161
16.968,0.13592,1.002,1.002,0,0.43988
16.976,0.13592,1.0157,1.0118,-0.0097656,0.43011
16.984,0.13592,1.0314,1.0216,-0.025391,0.42229
16.992,0.13592,1.0471,1.0216,-0.029297,0.41544
17,0.13592,1.0569,1.0275,-0.039062,0.4086
17.008,0.13592,1.0824,1.0412,-0.054688,0.40274
17.016,0.13786,1.102,1.051,-0.070312,0.39687
17.024,0.13981,1.1275,1.0608,-0.089844,0.39101
17.032,0.14175,1.1569,1.0725,-0.099609,0.38514
17.04,0.14563,1.1824,1.0922,-0.11914,0.38025
17.048,0.14757,1.2118,1.1118,-0.13867,0.37634
17.056,0.14951,1.2529,1.1275,-0.16406,0.37243
17.064,0.15146,1.2922,1.151,-0.18945,0.36852
17.072,0.15146,1.3431,1.1765,-0.21875,0.36461
17.08,0.15146,1.3922,1.202,-0.25391,0.3607
17.088,0.15146,1.4373,1.2216,-0.28516,0.35875
17.096,0.14951,1.4686,1.2373,-0.30859,0.35582
17.104,0.14757,1.502,1.2529,-0.33008,0.35386
17.112,0.14369,1.5039,1.2529,-0.34961,0.35093
17.12,0.13981,1.5039,1.2431,-0.35938,0.348
17.128,0.13786,1.5039,1.2176,-0.36328,0.34409
17.136,0.13592,1.502,1.1824,-0.34375,0.34115
17.144,0.13398,1.4471,1.1314,-0.30859,0.33822
17.152,0.13398,1.3725,1.0824,-0.26367,0.33431
17.16,0.13398,1.2922,1.0275,-0.20898,0.33138
17.168,0.13398,1.2078,0.98235,-0.16016,0.32747
17.176,0.13592,1.1314,0.93725,-0.11523,0.32356
17.184,0.13592,1.0667,0.90196,-0.074219,0.31965
17.192,0.13786,1.0216,0.87647,-0.044922,0.31672
17.2,0.13981,0.99608,0.86078,-0.025391,0.31476
17.208,0.14175,0.97647,0.85686,-0.013672,0.31085
17.216,0.14369,0.96078,0.85098,-0.0039062,0.30792
17.224,0.14757,0.95686,0.85686,0,0.30303
17.232,0.15146,0.95686,0.85098,0,0.29912
17.24,0.15728,0.95098,0.85098,0.0058594,0.29423
17.248,0.16117,0.95686,0.85686,0,0.28935
17.256,0.16699,0.96078,0.85686,0.0058594,0.28446
17.264,0.17087,0.95686,0.85686,0.0058594,0.27859
17.272,0.17476,0.95686,0.85686,0.0058594,0.2737
17.28,0.1767,0.95098,0.85686,0.0097656,0.26784
17.288,0.18058,0.94706,0.85686,0.015625,0.26491
17.296,0.18252,0.94118,0.85098,0.019531,0.26393
17.304,0.18641,0.93725,0.8451,0.019531,0.26686
17.312,0.18835,0.93137,0.8451,0.019531,0.27566
17.32,0.19223,0.92549,0.84118,0.019531,0.2913
17.328,0.19417,0.92549,0.83529,0.019531,0.31574
17.336,0.19612,0.92157,0.83529,0.025391,0.34604
17.344,0.19806,0.92549,0.83529,0.019531,0.38123
17.352,0.2,0.92157,0.83529,0.025391,0.42326
17.36,0.20194,0.92157,0.83137,0.019531,0.47019
17.368,0.20388,0.92549,0.82549,0.025391,0.51613
17.376,0.20388,0.95098,0.8451,0.0097656,0.56012
17.384,0.20583,0.99608,0.86667,-0.019531,0.59922
17.392,0.20583,1.0314,0.88039,-0.039062,0.63343
17.4,0.20583,1.0412,0.88039,-0.048828,0.65885
17.408,0.20777,1.0725,0.88039,-0.074219,0.6784
17.416,0.20777,1.0824,0.86078,-0.09375,0.69599
17.424,0.20777,1.0412,0.82157,-0.080078,0.71065
17.432,0.20777,1.0373,0.81569,-0.074219,0.72141
17.44,0.20777,1.0471,0.83137,-0.074219,0.72923
17.448,0.20777,1.0314,0.8451,-0.054688,0.73412
17.456,0.20583,0.97059,0.84118,-0.0097656,0.73705
17.464,0.20583,0.92157,0.83137,0.019531,0.73607
17.472,0.20388,0.90196,0.82157,0.041016,0.73314
17.48,0.20194,0.89608,0.81569,0.044922,0.72825
17.488,0.20194,0.89608,0.81569,0.041016,0.71945
17.496,0.2,0.90196,0.82157,0.041016,0.7087
17.504,0.19806,0.89608,0.82549,0.044922,0.69697
17.512,0.19612,0.89608,0.85686,0.044922,0.68328
17.52,0.19417,0.95686,0.97059,0.060547,0.66764
17.528,0.19029,1.1667,1.002,-0.09375,0.65005
17.536,0.18835,1.5039,1.0412,-0.375,0.62952
17.544,0.18641,1.5039,0.87059,-0.49805,0.60802
17.552,0.18447,1.4922,0.4451,-0.43945,0.58651
17.56,0.18058,0.5549,-0.060784,0.076172,0.56403
17.568,0.17864,0.37451,0.16471,0.24609,0.54252
17.576,0.1767,0.58039,0.52941,0.19531,0.52199
17.584,0.17476,0.85686,0.81176,0.064453,0.50147
17.592,0.17087,0.97059,0.92549,0.0058594,0.48192
17.6,0.16893,0.99608,0.95098,-0.0039062,0.46432
17.608,0.16699,1.0118,0.96667,-0.019531,0.44966
17.616,0.16505,1.0216,0.97647,-0.019531,0.43695
17.624,0.16311,1.0275,0.98235,-0.025391,0.42424
17.632,0.16311,1.0373,0.99608,-0.029297,0.41251
17.64,0.16311,1.0471,0.99608,-0.039062,0.40176
17.648,0.16311,1.0608,1.002,-0.048828,0.39198
17.656,0.16505,1.0765,1.0059,-0.064453,0.38221
17.664,0.16699,1.0961,1.0157,-0.074219,0.37341
17.672,0.16893,1.1176,1.0216,-0.089844,0.36657
17.68,0.17087,1.1373,1.0314,-0.099609,0.35875
17.688,0.17282,1.1627,1.0471,-0.11523,0.35288
17.696,0.17476,1.1824,1.0471,-0.12891,0.34702
17.704,0.1767,1.2078,1.0667,-0.14453,0.34115
17.712,0.1767,1.2373,1.0824,-0.16016,0.33627
17.72,0.17864,1.2725,1.1059,-0.18359,0.33333
17.728,0.17864,1.3118,1.1314,-0.20898,0.3304
17.736,0.17864,1.3569,1.151,-0.24023,0.32747
17.744,0.17864,1.402,1.1765,-0.26953,0.32454
17.752,0.17864,1.4431,1.202,-0.29883,0.32063
17.76,0.17864,1.4882,1.2118,-0.33398,0.31769
17.768,0.17476,1.5039,1.2275,-0.35352,0.31476
17.776,0.17282,1.5039,1.2314,-0.37891,0.31183
17.784,0.17087,1.5039,1.2216,-0.38867,0.3089
17.792,0.16699,1.5039,1.202,-0.39453,0.30596
17.8,0.16311,1.5039,1.1667,-0.37891,0.30205
17.808,0.15922,1.4824,1.1275,-0.34961,0.29912
17.816,0.15728,1.4118,1.0765,-0.29883,0.29619
17.824,0.1534,1.3333,1.0275,-0.24414,0.29423
17.832,0.14951,1.2471,0.97647,-0.18945,0.29228
17.84,0.14757,1.1725,0.93137,-0.13867,0.29032
17.848,0.14369,1.1059,0.90196,-0.099609,0.28739
17.856,0.14175,1.051,0.87059,-0.058594,0.28348
17.864,0.13981,1.0118,0.85686,-0.039062,0.28055
17.872,0.13786,0.98627,0.8451,-0.025391,0.27664
17.88,0.13786,0.97647,0.8451,-0.013672,0.27273
17.888,0.13592,0.97059,0.84118,-0.013672,0.26882
17.896,0.13786,0.96078,0.84118,-0.0039062,0.26393
17.904,0.13786,0.96667,0.84118,-0.0097656,0.25904
17.912,0.13981,0.96667,0.8451,0,0.25415
17.92,0.14175,0.96078,0.8451,0,0.24927
17.928,0.14369,0.95686,0.8451,0,0.24536
17.936,0.14563,0.96078,0.8451,-0.0039062,0.24145
17.944,0.14563,0.95098,0.84118,0,0.23754
17.952,0.14563,0.95098,0.83529,0,0.23265
17.96,0.14563,0.94706,0.83529,0,0.22972
17.968,0.14563,0.94118,0.83529,0.0058594,0.22972
17.976,0.14563,0.93137,0.83137,0.015625,0.2346
17.984,0.14563,0.92549,0.83137,0.019531,0.24829
17.992,0.14563,0.92549,0.82549,0.015625,0.26979
18,0.14563,0.92549,0.82549,0.015625,0.30108
18.008,0.14563,0.92157,0.82157,0.019531,0.34018
18.016,0.14563,0.92157,0.82157,0.015625,0.38514
18.024,0.14369,0.92157,0.82157,0.015625,0.43304
18.032,0.14369,0.92549,0.82157,0.019531,0.47507
18.04,0.14369,0.95098,0.8451,0,0.51222
18.048,0.14369,0.99608,0.86667,-0.025391,0.55034
18.056,0.14175,1.0314,0.88039,-0.048828,0.58456
18.064,0.14175,1.0373,0.87647,-0.064453,0.61486
18.072,0.14175,1.0725,0.88039,-0.083984,0.64027
18.08,0.14175,1.0922,0.85686,-0.09375,0.6608
18.088,0.13981,1.0412,0.82157,-0.083984,0.67644
18.096,0.13981,1.0373,0.81176,-0.089844,0.68817
18.104,0.13981,1.0471,0.82157,-0.080078,0.69599
18.112,0.13981,1.0275,0.84118,-0.054688,0.70088
18.12,0.13786,0.97647,0.83529,-0.013672,0.70186
18.128,0.13786,0.92157,0.82157,0.019531,0.70186
18.136,0.13786,0.90196,0.81569,0.035156,0.69795
18.144,0.13786,0.8902,0.81569,0.041016,0.69208
18.152,0.13786,0.8902,0.81569,0.044922,0.68426
18.16,0.13786,0.8902,0.81569,0.044922,0.67449
18.168,0.13786,0.8902,0.82549,0.044922,0.66178
18.176,0.13786,0.88627,0.85098,0.050781,0.64712
18.184,0.13786,0.94706,0.97647,0.064453,0.6305
18.192,0.13786,1.151,1.0059,-0.083984,0.61193
18.2,0.13786,1.5039,1.0412,-0.36328,0.59238
18.208,0.13786,1.5039,0.8902,-0.49805,0.57087
18.216,0.13786,1.4922,0.46471,-0.43945,0.54936
18.224,0.13786,0.55098,-0.05098,0.070312,0.52688
18.232,0.13786,0.36471,0.1549,0.25,0.50635
18.24,0.13786,0.56078,0.52549,0.20508,0.48778
18.248,0.13592,0.83137,0.79608,0.070312,0.47116
18.256,0.13592,0.95686,0.91176,0.0097656,0.45455
18.264,0.13398,0.98235,0.94706,0,0.43891
18.272,0.13398,0.99608,0.96078,-0.0039062,0.42326
18.28,0.13204,1.002,0.96667,-0.0097656,0.40958
18.288,0.1301,1.0118,0.97647,-0.019531,0.39785
18.296,0.1301,1.0216,0.98235,-0.025391,0.38612
18.304,0.1301,1.0275,0.99608,-0.029297,0.37634
18.312,0.1301,1.0412,1.002,-0.044922,0.36755
18.32,0.1301,1.0569,1.0059,-0.048828,0.35973
18.328,0.1301,1.0725,1.0118,-0.070312,0.35191
18.336,0.13204,1.0922,1.0216,-0.074219,0.34604
18.344,0.13398,1.1118,1.0314,-0.089844,0.34115
18.352,0.13592,1.1373,1.0471,-0.10352,0.33724
18.36,0.13786,1.1627,1.051,-0.11914,0.33333
18.368,0.13981,1.1824,1.0725,-0.12891,0.32942
18.376,0.14175,1.2078,1.0863,-0.14453,0.32551
18.384,0.14175,1.2471,1.1059,-0.16992,0.32258
18.392,0.14175,1.2824,1.1314,-0.19336,0.31965
18.4,0.14369,1.3216,1.151,-0.22461,0.31672
18.408,0.14175,1.3667,1.1824,-0.25391,0.31476
18.416,0.13981,1.4176,1.202,-0.28906,0.31183
18.424,0.13786,1.4569,1.2176,-0.31445,0.30987
18.432,0.13592,1.4922,1.2275,-0.33984,0.30694
18.44,0.13398,1.5039,1.2314,-0.35938,0.30499
18.448,0.1301,1.5039,1.2216,-0.375,0.30401
18.456,0.12621,1.5039,1.202,-0.37891,0.30205
18.464,0.12427,1.502,1.1667,-0.35938,0.30108
18.472,0.12039,1.4569,1.1216,-0.33398,0.29814
18.48,0.1165,1.3922,1.0824,-0.28906,0.29619
18.488,0.11262,1.3078,1.0275,-0.23438,0.29423
18.496,0.11068,1.2176,0.98235,-0.17383,0.2913
18.504,0.10874,1.1412,0.93137,-0.12891,0.28837
18.512,0.10485,1.0725,0.90196,-0.083984,0.28543
18.52,0.10291,1.0216,0.87647,-0.048828,0.2825
18.528,0.10291,0.98627,0.85686,-0.025391,0.27957
18.536,0.10291,0.95686,0.85098,-0.0039062,0.27664
18.544,0.10291,0.94706,0.8451,0.0058594,0.27273
18.552,0.10291,0.93725,0.8451,0.0058594,0.26979
18.56,0.10485,0.93137,0.8451,0.0097656,0.26686
18.568,0.1068,0.93137,0.85098,0.0097656,0.26393
18.576,0.11068,0.94118,0.8451,0.0058594,0.26002
18.584,0.11262,0.93137,0.85686,0.015625,0.25513
18.592,0.11456,0.93137,0.85686,0.0097656,0.25122
18.6,0.1165,0.93137,0.85686,0.0097656,0.24536
18.608,0.11845,0.92549,0.85686,0.019531,0.24047
18.616,0.11845,0.92549,0.85686,0.019531,0.23656
18.624,0.11845,0.91569,0.85098,0.019531,0.23363
18.632,0.11845,0.91176,0.85686,0.019531,0.23558
18.64,0.12039,0.90588,0.8451,0.019531,0.24242
18.648,0.12039,0.90196,0.84118,0.035156,0.25709
18.656,0.12233,0.89608,0.84118,0.035156,0.28152
18.664,0.12233,0.89608,0.83529,0.035156,0.3089
18.672,0.12427,0.8902,0.83529,0.041016,0.34115
18.68,0.12427,0.89608,0.83529,0.041016,0.38221
18.688,0.12427,0.89608,0.83529,0.035156,0.42913
18.696,0.12427,0.91176,0.85098,0.019531,0.47703
18.704,0.12427,0.95098,0.87059,0,0.52297
18.712,0.12427,0.99216,0.8902,-0.019531,0.56598
18.72,0.12427,1.0059,0.88627,-0.044922,0.60215
18.728,0.12427,1.0216,0.89608,-0.054688,0.63343
18.736,0.12427,1.0471,0.87647,-0.074219,0.65885
18.744,0.12427,1.0157,0.8451,-0.070312,0.6784
18.752,0.12427,1.002,0.83137,-0.058594,0.69404
18.76,0.12233,1.0059,0.82549,-0.064453,0.70479
18.768,0.12233,1.0118,0.8451,-0.054688,0.71163
18.776,0.12039,0.95686,0.85098,-0.013672,0.71359
18.784,0.12039,0.90588,0.83529,0.025391,0.71457
18.792,0.11845,0.86078,0.83137,0.050781,0.71359
18.8,0.11845,0.86078,0.82549,0.060547,0.71065
18.808,0.11845,0.85686,0.83137,0.054688,0.70479
18.816,0.11845,0.85686,0.83137,0.054688,0.69697
18.824,0.11845,0.85686,0.83529,0.060547,0.68622
18.832,0.11845,0.86667,0.83529,0.050781,0.67351
18.84,0.12039,0.85686,0.94706,0.076172,0.65885
18.848,0.12039,1.0216,0.99608,-0.0039062,0.64223
18.856,0.12039,1.3569,1.051,-0.22852,0.62268
18.864,0.12039,1.5039,0.97059,-0.49805,0.60215
18.872,0.11845,1.5039,0.66078,-0.49805,0.5826
18.88,0.11845,0.81176,0.088235,-0.080078,0.56403
18.888,0.1165,0.32353,-0.047059,0.24023,0.5435
18.896,0.1165,0.4451,0.40392,0.26562,0.52199
18.904,0.11456,0.70588,0.73137,0.13086,0.50147
18.912,0.11262,0.8902,0.90196,0.041016,0.48192
18.92,0.11068,0.94706,0.95686,0.015625,0.46334
18.928,0.10874,0.96078,0.97647,0.0097656,0.44673
18.936,0.1068,0.97059,0.98627,0.0058594,0.43206
18.944,0.10485,0.98235,0.99608,0.0058594,0.41838
18.952,0.10291,0.98627,1.002,0,0.40567
18.96,0.10291,1.002,1.0059,-0.013672,0.39492
18.968,0.10291,1.0059,1.0118,-0.025391,0.38612
18.976,0.10291,1.0216,1.0216,-0.029297,0.3783
18.984,0.10291,1.0412,1.0314,-0.044922,0.37243
18.992,0.10291,1.0608,1.0373,-0.048828,0.36559
19,0.10485,1.0765,1.0471,-0.070312,0.35973
19.008,0.1068,1.1059,1.051,-0.083984,0.35386
19.016,0.10874,1.1314,1.0667,-0.09375,0.34897
19.024,0.10874,1.1471,1.0725,-0.10938,0.34409
19.032,0.11068,1.1765,1.0922,-0.125,0.3392
19.04,0.11262,1.2078,1.1118,-0.14453,0.33529
19.048,0.11262,1.2431,1.1314,-0.16992,0.33138
19.056,0.11262,1.2882,1.1569,-0.19336,0.32845
19.064,0.11068,1.3275,1.1824,-0.22461,0.32551
19.072,0.11068,1.3784,1.2078,-0.25,0.32258
19.08,0.10874,1.4235,1.2216,-0.28516,0.32063
19.088,0.1068,1.4627,1.2314,-0.30859,0.31965
19.096,0.10485,1.4824,1.2431,-0.33398,0.31769
19.104,0.10291,1.498,1.2373,-0.34375,0.31574
19.112,0.10097,1.5039,1.2216,-0.35352,0.31281
19.12,0.099029,1.4882,1.1961,-0.34375,0.31085
19.128,0.097087,1.4471,1.1627,-0.31836,0.3089
19.136,0.095146,1.3882,1.1118,-0.2793,0.30596
19.144,0.093204,1.302,1.0569,-0.23438,0.30401
19.152,0.08932,1.2078,1.0059,-0.18359,0.30108
19.16,0.087379,1.1275,0.95098,-0.13477,0.29912
19.168,0.085437,1.0569,0.92157,-0.089844,0.29619
19.176,0.083495,1.0059,0.8902,-0.054688,0.29326
19.184,0.081553,0.96078,0.87647,-0.029297,0.2913
19.192,0.079612,0.93725,0.86078,-0.013672,0.29032
19.2,0.07767,0.92157,0.85686,0,0.28739
19.208,0.07767,0.90588,0.85686,0,0.28446
19.216,0.075728,0.90588,0.85686,0,0.28055
19.224,0.075728,0.90588,0.85686,0.0058594,0.27664
19.232,0.075728,0.90588,0.86078,0,0.27273
19.24,0.073786,0.90196,0.86078,0.0058594,0.26784
19.248,0.071845,0.90196,0.86078,0.0058594,0.26295
19.256,0.067961,0.90588,0.86078,0.0097656,0.25709
19.264,0.066019,0.90196,0.86078,0.0058594,0.2522
19.272,0.062136,0.89608,0.86667,0.0058594,0.24731
19.28,0.058252,0.8902,0.85686,0.0058594,0.2434
19.288,0.054369,0.8902,0.85686,0.0058594,0.2434
19.296,0.050485,0.88627,0.85686,0.0097656,0.24731
19.304,0.046602,0.8902,0.85686,0.0058594,0.25709
19.312,0.042718,0.87647,0.85686,0.015625,0.27468
19.32,0.036893,0.87059,0.8451,0.019531,0.30205
19.328,0.03301,0.88039,0.85098,0.015625,0.33724
19.336,0.029126,0.87059,0.85098,0.015625,0.38025
19.344,0.025243,0.86078,0.85098,0.019531,0.42717
19.352,0.019417,0.87647,0.8451,0.0097656,0.47605
19.36,0.015534,0.90588,0.87059,-0.0039062,0.52395
19.368,0.0097087,0.95098,0.88627,-0.029297,0.56696
19.376,0.0058252,0.97647,0.90196,-0.054688,0.60606
19.384,0.0019417,0.98627,0.8902,-0.064453,0.64125
19.392,-0.0038835,1.0216,0.90196,-0.083984,0.67253
19.4,-0.0097087,1.0314,0.86667,-0.099609,0.69306
19.408,-0.013592,0.98627,0.83529,-0.089844,0.70674
19.416,-0.021359,0.97647,0.82549,-0.089844,0.71848
19.424,-0.027184,0.98627,0.84118,-0.083984,0.72727
19.432,-0.031068,0.95686,0.86078,-0.058594,0.73314
19.44,-0.036893,0.90588,0.85686,-0.019531,0.73607
19.448,-0.040777,0.86667,0.83529,0.0097656,0.73705
19.456,-0.04466,0.85098,0.83529,0.019531,0.73509
19.464,-0.048544,0.83529,0.83137,0.025391,0.73118
19.472,-0.052427,0.83529,0.83529,0.019531,0.72434
19.48,-0.054369,0.84118,0.83529,0.019531,0.71457
19.488,-0.058252,0.8451,0.83529,0.015625,0.70283
19.496,-0.060194,0.83137,0.89608,0.041016,0.68817
19.504,-0.064078,0.93137,0.99216,0,0.67351
19.512,-0.066019,1.2078,1.0412,-0.18359,0.65787
19.52,-0.069903,1.5039,1.0667,-0.49805,0.6393
19.528,-0.071845,1.5039,0.86667,-0.49805,0.61877
19.536,-0.073786,1.2529,0.37059,-0.36914,0.59726
19.544,-0.07767,0.4549,-0.0058823,0.085938,0.57576
19.552,-0.079612,0.36471,0.28431,0.18945,0.55327
19.56,-0.081553,0.5902,0.61569,0.13086,0.53275
19.568,-0.083495,0.83529,0.85098,0.0097656,0.51222
19.576,-0.087379,0.91176,0.93725,-0.029297,0.49267
19.584,-0.08932,0.92549,0.96078,-0.039062,0.47507
19.592,-0.091262,0.94118,0.97647,-0.048828,0.45943
19.6,-0.093204,0.93725,0.97647,-0.048828,0.44477
19.608,-0.095146,0.94118,0.98235,-0.048828,0.43304
19.616,-0.097087,0.93725,0.98627,-0.054688,0.42326
19.624,-0.097087,0.95098,1.002,-0.064453,0.41349
19.632,-0.099029,0.95686,1.002,-0.074219,0.40469
19.64,-0.099029,0.97059,1.0059,-0.089844,0.39687
19.648,-0.099029,0.99216,1.0118,-0.09375,0.38905
19.656,-0.099029,1.002,1.0216,-0.099609,0.38221
19.664,-0.099029,1.0118,1.0314,-0.11914,0.37634
19.672,-0.099029,1.0373,1.0412,-0.12891,0.37048
19.68,-0.097087,1.0569,1.0471,-0.14453,0.36559
19.688,-0.097087,1.0824,1.0667,-0.16406,0.3607
19.696,-0.097087,1.1059,1.0765,-0.18359,0.35679
19.704,-0.095146,1.1373,1.0961,-0.19922,0.35288
19.712,-0.095146,1.1765,1.1216,-0.22852,0.35093
19.72,-0.093204,1.2118,1.151,-0.25,0.34897
19.728,-0.093204,1.2471,1.1765,-0.2793,0.34702
19.736,-0.091262,1.2882,1.1922,-0.30859,0.34409
19.744,-0.08932,1.3333,1.2078,-0.33398,0.34213
19.752,-0.08932,1.3627,1.2118,-0.35938,0.3392
19.76,-0.087379,1.3824,1.2118,-0.37891,0.33724
19.768,-0.085437,1.3824,1.2078,-0.37891,0.33431
19.776,-0.085437,1.3725,1.1824,-0.37891,0.33236
19.784,-0.083495,1.3333,1.1373,-0.35352,0.3304
19.792,-0.081553,1.2667,1.0824,-0.32422,0.32747
19.8,-0.079612,1.1765,1.0275,-0.26367,0.32454
19.808,-0.07767,1.0765,0.97647,-0.19922,0.32258
19.816,-0.073786,0.98235,0.92157,-0.14453,0.32063
19.824,-0.069903,0.90588,0.87647,-0.089844,0.31965
19.832,-0.067961,0.83137,0.84118,-0.044922,0.31769
19.84,-0.064078,0.76667,0.82549,-0.0039062,0.31476
19.848,-0.060194,0.72549,0.81176,0.015625,0.31183
19.856,-0.056311,0.7,0.80588,0.035156,0.3089
19.864,-0.050485,0.68039,0.79608,0.044922,0.30596
19.872,-0.046602,0.67647,0.79608,0.050781,0.30205
19.88,-0.042718,0.67059,0.80588,0.050781,0.29814
19.888,-0.038835,0.66078,0.81176,0.060547,0.29423
19.896,-0.034951,0.6451,0.81176,0.064453,0.29032
19.904,-0.031068,0.6451,0.81176,0.070312,0.28641
19.912,-0.029126,0.6451,0.81176,0.070312,0.28152
19.92,-0.027184,0.6451,0.81176,0.070312,0.27859
19.928,-0.025243,0.62549,0.81176,0.085938,0.27566
19.936,-0.025243,0.62549,0.81176,0.085938,0.27273
19.944,-0.023301,0.61569,0.81176,0.089844,0.27077
19.952,-0.021359,0.59608,0.81176,0.099609,0.27077
19.96,-0.019417,0.5902,0.8,0.11133,0.27566
19.968,-0.017476,0.6,0.79608,0.10547,0.28837
19.976,-0.017476,0.58431,0.80588,0.11523,0.3089
19.984,-0.015534,0.57059,0.8,0.12109,0.3392
19.992,-0.015534,0.5549,0.81176,0.13086,0.37634
20,-0.015534,0.5549,0.80588,0.13086,0.42131
20.008,-0.015534,0.56471,0.81176,0.125,0.46823
20.016,-0.013592,0.57451,0.83137,0.125,0.51613
20.024,-0.013592,0.59608,0.85686,0.11523,0.55621
20.032,-0.01165,0.61961,0.87647,0.10547,0.59042
20.04,-0.01165,0.6451,0.88039,0.085938,0.62366
20.048,-0.0097087,0.66078,0.87059,0.076172,0.65396
20.056,-0.0097087,0.69608,0.88039,0.044922,0.67937
20.064,-0.007767,0.66078,0.83529,0.060547,0.6999
20.072,-0.007767,0.62941,0.83137,0.070312,0.71554
20.08,-0.007767,0.62549,0.82549,0.080078,0.72727
20.088,-0.007767,0.6451,0.85686,0.085938,0.73509
20.096,-0.0097087,0.59608,0.85686,0.12109,0.73998
20.104,-0.0097087,0.56078,0.85686,0.14453,0.74194
20.112,-0.007767,0.52549,0.85686,0.16602,0.74096
20.12,-0.007767,0.5,0.87059,0.18555,0.73803
20.128,-0.007767,0.48431,0.87059,0.19531,0.73216
20.136,-0.0058252,0.4902,0.88039,0.20117,0.72434
20.144,-0.0058252,0.49412,0.8902,0.19531,0.71359
20.152,-0.0038835,0.48039,0.91569,0.20508,0.70186
20.16,-0.0019417,0.52941,1.0275,0.2207,0.68719
20.168,-0.0019417,0.7451,1.0667,0.080078,0.67058
20.176,0,1.202,1.151,-0.19922,0.65298
20.184,-0.0019417,1.5039,1.0725,-0.49805,0.63343
20.192,-0.0019417,1.2725,0.68627,-0.34375,0.6129
20.2,-0.0019417,0.33529,0.11373,0.14062,0.5914
20.208,-0.0038835,0.052941,0.27451,0.37109,0.57087
20.216,-0.0058252,0.17451,0.63529,0.38086,0.55034
20.224,-0.007767,0.40392,0.92157,0.25977,0.53079
20.232,-0.0097087,0.5549,1.0373,0.18945,0.51417
20.24,-0.01165,0.57451,1.0765,0.17969,0.49951
20.248,-0.015534,0.5902,1.0961,0.17578,0.48485
20.256,-0.017476,0.6,1.1176,0.16992,0.47019
20.264,-0.019417,0.61569,1.1373,0.16602,0.45748
20.272,-0.021359,0.62549,1.1569,0.16016,0.44477
20.28,-0.021359,0.61961,1.1765,0.16016,0.43402
20.288,-0.023301,0.64118,1.1863,0.15625,0.42424
20.296,-0.023301,0.66078,1.1922,0.14062,0.41544
20.304,-0.021359,0.6902,1.2118,0.13086,0.40762
20.312,-0.021359,0.7,1.2314,0.125,0.3998
20.32,-0.021359,0.7098,1.2529,0.11523,0.39296
20.328,-0.021359,0.73137,1.2667,0.11523,0.3871
20.336,-0.021359,0.76078,1.2882,0.099609,0.38221
20.344,-0.023301,0.79608,1.3078,0.085938,0.37928
20.352,-0.023301,0.82549,1.3216,0.064453,0.37537
20.36,-0.025243,0.88627,1.3471,0.03125,0.37146
20.368,-0.025243,0.93725,1.3922,0,0.36755
20.376,-0.025243,0.96078,1.4373,-0.0097656,0.36461
20.384,-0.027184,1.0216,1.4686,-0.044922,0.36168
20.392,-0.027184,1.0608,1.502,-0.074219,0.35875
20.4,-0.029126,1.1118,1.5039,-0.099609,0.35582
20.408,-0.031068,1.1569,1.5039,-0.12891,0.35288
20.416,-0.03301,1.202,1.5039,-0.1543,0.34995
20.424,-0.034951,1.2176,1.5039,-0.16406,0.348
20.432,-0.036893,1.2078,1.5039,-0.16406,0.34506
20.44,-0.038835,1.1922,1.5039,-0.1543,0.34213
20.448,-0.040777,1.1471,1.4529,-0.125,0.34115
20.456,-0.040777,1.0608,1.3922,-0.074219,0.3392
20.464,-0.040777,0.96078,1.3373,-0.0097656,0.33724
20.472,-0.040777,0.86667,1.2765,0.050781,0.33529
20.48,-0.040777,0.8,1.2373,0.095703,0.33333
20.488,-0.040777,0.72549,1.2275,0.14062,0.3304
20.496,-0.040777,0.6549,1.2078,0.18555,0.32747
20.504,-0.038835,0.61961,1.1922,0.20508,0.32551
20.512,-0.038835,0.61961,1.1863,0.21094,0.32258
20.52,-0.038835,0.61569,1.1863,0.2207,0.31965
20.528,-0.036893,0.61569,1.1863,0.21484,0.31672
20.536,-0.034951,0.6098,1.1961,0.22461,0.31378
20.544,-0.034951,0.61961,1.2078,0.2207,0.30987
20.552,-0.03301,0.61961,1.2078,0.21484,0.30694
20.56,-0.031068,0.61569,1.2118,0.22461,0.30499
20.568,-0.029126,0.62549,1.2176,0.21484,0.30205
20.576,-0.027184,0.6451,1.2216,0.21094,0.29717
20.584,-0.027184,0.6451,1.2314,0.21094,0.29326
20.592,-0.027184,0.62549,1.2314,0.22461,0.28837
