Time [s], PLETH, ABP, RESP, II, V, AVR
0,0.74585,55.932,0.1349,0.41569,0.38431,0.47059
0.008,0.73998,55.541,0.14174,0.40392,0.3902,0.48039
0.016,0.73021,55.541,0.14858,0.4,0.3902,0.48039
0.024,0.7175,55.541,0.15543,0.40392,0.4,0.48431
0.032,0.70283,55.737,0.16227,0.41569,0.39412,0.48039
0.04,0.68622,55.932,0.16813,0.4,0.40392,0.5
0.048,0.66862,56.128,0.174,0.38431,0.3902,0.51569
0.056,0.65005,56.128,0.17889,0.37451,0.39412,0.52941
0.064,0.6305,56.128,0.18377,0.36471,0.38431,0.53922
0.072,0.61388,56.128,0.18671,0.34902,0.3902,0.5549
0.08,0.59726,56.128,0.19062,0.3451,0.38039,0.5549
0.088,0.57967,56.519,0.19355,0.33529,0.38039,0.56078
0.096,0.56305,56.715,0.19648,0.32941,0.38431,0.56471
0.104,0.54643,56.91,0.19844,0.33529,0.37451,0.56471
0.112,0.52981,56.715,0.20137,0.3451,0.3902,0.57059
0.12,0.51417,56.519,0.20332,0.3451,0.40392,0.56471
0.128,0.49951,56.323,0.2043,0.34902,0.4098,0.57451
0.136,0.48485,56.323,0.20528,0.34902,0.40392,0.56471
0.144,0.47116,56.128,0.20528,0.34902,0.4098,0.57451
0.152,0.45748,55.737,0.20528,0.3451,0.3902,0.57451
0.16,0.44379,55.346,0.2043,0.33529,0.36471,0.58431
0.168,0.42913,55.15,0.20235,0.32353,0.33529,0.57451
0.176,0.4174,55.15,0.19941,0.3098,0.33922,0.5902
0.184,0.40665,55.15,0.1955,0.31373,0.33922,0.58431
0.192,0.39394,55.15,0.19257,0.3098,0.34902,0.59608
0.2,0.38221,55.15,0.18866,0.30392,0.33922,0.58039
0.208,0.37048,54.759,0.18573,0.3098,0.34902,0.58039
0.216,0.35875,54.172,0.1828,0.31373,0.33922,0.57451
0.224,0.348,53.585,0.17986,0.31961,0.3451,0.57059
0.232,0.33724,53.194,0.17693,0.32353,0.33922,0.56078
0.24,0.32747,52.803,0.174,0.33529,0.34902,0.56078
0.248,0.31867,52.803,0.17009,0.32941,0.33922,0.5549
0.256,0.30987,52.608,0.16618,0.32353,0.33922,0.53922
0.264,0.30205,52.216,0.16325,0.5098,0.30392,0.43529
0.272,0.29717,51.63,0.16031,0.85686,0.30392,0.2451
0.28,0.29228,51.043,0.15738,0.98235,0.29412,0.17451
0.288,0.28935,50.847,0.15543,0.87059,0.4,0.2549
0.296,0.28641,50.652,0.15347,0.42941,0.53922,0.52549
0.304,0.28446,50.652,0.15249,0.22941,0.56078,0.6451
0.312,0.28348,50.261,0.15347,0.29412,0.4549,0.5902
0.32,0.2825,49.87,0.15347,0.32353,0.38431,0.57059
0.328,0.28348,49.283,0.15543,0.31373,0.3549,0.57059
0.336,0.28446,48.892,0.15738,0.30392,0.33922,0.57451
0.344,0.28641,48.696,0.16129,0.2902,0.33529,0.59608
0.352,0.28837,48.501,0.1652,0.27843,0.32353,0.6
0.36,0.29032,48.305,0.16813,0.26471,0.33529,0.61569
0.368,0.29228,47.718,0.17204,0.25882,0.31373,0.62549
0.376,0.29423,47.327,0.17498,0.24902,0.32353,0.62941
0.384,0.29619,46.741,0.17889,0.2549,0.31373,0.62941
0.392,0.29814,46.349,0.18377,0.24902,0.31961,0.64118
0.4,0.3001,46.349,0.18866,0.2451,0.31373,0.63529
0.408,0.30108,46.545,0.19453,0.2549,0.31373,0.62941
0.416,0.30205,46.545,0.20137,0.2549,0.3098,0.62549
0.424,0.30303,46.545,0.20723,0.25882,0.31961,0.61961
0.432,0.30401,46.154,0.2131,0.26471,0.31373,0.6098
0.44,0.30401,45.763,0.21799,0.26471,0.31961,0.61961
0.448,0.30401,45.372,0.22385,0.26863,0.31373,0.6098
0.456,0.30205,45.372,0.23069,0.27843,0.32353,0.6098
0.464,0.30108,45.567,0.23754,0.27843,0.31373,0.6
0.472,0.3001,45.763,0.24438,0.3,0.31961,0.5902
0.48,0.29814,45.567,0.25122,0.30392,0.32353,0.57451
0.488,0.29717,45.176,0.25806,0.32353,0.31961,0.5549
0.496,0.29521,44.589,0.26491,0.34902,0.33922,0.53529
0.504,0.29326,44.198,0.27077,0.37451,0.3451,0.50588
0.512,0.29032,44.003,0.27761,0.39412,0.3549,0.4902
0.52,0.28739,44.394,0.2825,0.4098,0.3451,0.47059
0.528,0.28446,44.785,0.28837,0.42941,0.36471,0.46078
0.536,0.28152,44.98,0.29326,0.4451,0.36471,0.4549
0.544,0.27859,44.785,0.29814,0.4549,0.38039,0.4451
0.552,0.27566,44.198,0.30205,0.47059,0.38431,0.43922
0.56,0.27273,43.612,0.30694,0.4902,0.39412,0.43529
0.568,0.26979,43.807,0.31183,0.50588,0.3902,0.41961
0.576,0.26686,45.567,0.31574,0.51569,0.4098,0.41569
0.584,0.26588,49.674,0.31965,0.52941,0.4,0.4098
0.592,0.26295,56.715,0.32258,0.53922,0.4098,0.4098
0.6,0.261,66.493,0.32551,0.55098,0.40392,0.40392
0.608,0.25904,77.054,0.32845,0.5549,0.4098,0.4098
0.616,0.25611,87.027,0.32942,0.56078,0.4,0.40392
0.624,0.25513,94.85,0.33138,0.56471,0.40392,0.4098
0.632,0.25318,99.935,0.33138,0.56471,0.3902,0.4098
0.64,0.2522,102.67,0.33236,0.56078,0.39412,0.41961
0.648,0.2522,103.46,0.3304,0.53922,0.38039,0.42549
0.656,0.25122,102.67,0.32942,0.51569,0.38431,0.43529
0.664,0.25122,100.72,0.32649,0.5,0.37059,0.44902
0.672,0.25122,98.175,0.32356,0.48039,0.37451,0.46078
0.68,0.2522,95.437,0.32063,0.46078,0.36471,0.47059
0.688,0.2522,93.481,0.31672,0.4451,0.37059,0.48039
0.696,0.2522,92.112,0.31281,0.42941,0.37451,0.48431
0.704,0.2522,91.33,0.3089,0.41961,0.36471,0.4902
0.712,0.2522,90.743,0.30205,0.41569,0.38039,0.49412
0.72,0.2522,89.57,0.29521,0.41569,0.37451,0.4902
0.728,0.25318,87.614,0.28543,0.41569,0.3902,0.49412
0.736,0.25415,85.267,0.27664,0.40392,0.38431,0.50588
0.744,0.25513,83.116,0.26784,0.4,0.3902,0.51961
0.752,0.25709,81.747,0.25904,0.3902,0.38431,0.52549
0.76,0.25904,80.965,0.25122,0.37059,0.3902,0.53922
0.768,0.261,80.183,0.24242,0.35882,0.38039,0.55098
0.776,0.26295,79.205,0.23363,0.34902,0.37451,0.56078
0.784,0.26491,78.227,0.22385,0.33922,0.36471,0.57059
0.792,0.26588,77.054,0.21408,0.33922,0.37059,0.57451
0.8,0.26686,76.076,0.2043,0.32353,0.3549,0.58039
0.808,0.26882,75.098,0.19453,0.3098,0.3549,0.6
0.816,0.26979,74.316,0.18573,0.30392,0.33922,0.60588
0.824,0.2737,73.533,0.17791,0.29412,0.3451,0.61569
0.832,0.27957,72.36,0.17009,0.29412,0.33529,0.6098
0.84,0.2913,71.186,0.16422,0.2902,0.33922,0.61569
0.848,0.30987,70.013,0.15836,0.28431,0.32941,0.61961
0.856,0.33627,68.644,0.15445,0.27843,0.33529,0.61961
0.864,0.37146,67.471,0.15054,0.27843,0.33922,0.61569
0.872,0.40665,65.906,0.14761,0.27843,0.33529,0.61961
0.88,0.44379,64.537,0.14565,0.2902,0.33922,0.6
0.888,0.48974,62.973,0.1437,0.29412,0.3451,0.6
0.896,0.53763,61.408,0.14272,0.30392,0.34902,0.5902
0.904,0.58651,60.039,0.14174,0.31373,0.3549,0.57451
0.912,0.63148,59.257,0.14076,0.31961,0.35882,0.56471
0.92,0.67058,58.67,0.14076,0.32353,0.34902,0.56078
0.928,0.70283,58.279,0.14076,0.33529,0.36471,0.5549
0.936,0.72727,57.888,0.14076,0.3451,0.35882,0.55098
0.944,0.74487,57.106,0.13978,0.3451,0.37059,0.55098
0.952,0.75562,56.323,0.13978,0.34902,0.36471,0.5451
0.96,0.75953,55.541,0.13978,0.34902,0.37451,0.55098
0.968,0.75758,54.954,0.13881,0.3451,0.37059,0.55098
0.976,0.75171,54.759,0.13783,0.3451,0.38039,0.5549
0.984,0.74291,54.563,0.13685,0.3451,0.37059,0.5549
0.992,0.73118,54.563,0.1349,0.33922,0.38039,0.5549
1,0.7175,54.563,0.13392,0.33922,0.37059,0.5549
1.008,0.70186,54.563,0.13294,0.33529,0.37451,0.56078
1.016,0.68426,54.759,0.13196,0.33529,0.36471,0.56078
1.024,0.66667,54.954,0.13099,0.33529,0.38039,0.56471
1.032,0.64809,55.346,0.13196,0.33922,0.37059,0.56078
1.04,0.6305,56.128,0.13196,0.33922,0.38039,0.56078
1.048,0.61193,56.715,0.13294,0.3451,0.37059,0.5549
1.056,0.59433,57.106,0.13392,0.3451,0.37451,0.5549
1.064,0.57771,57.106,0.13685,0.3451,0.38039,0.5451
1.072,0.56207,56.91,0.13881,0.37059,0.37451,0.52549
1.08,0.54741,57.106,0.14272,0.38039,0.3902,0.5098
1.088,0.53275,57.301,0.14565,0.3902,0.38431,0.50588
1.096,0.51808,57.497,0.15054,0.4,0.4098,0.5
1.104,0.50342,57.497,0.15445,0.41569,0.41961,0.4902
1.112,0.48876,57.301,0.16031,0.42941,0.43529,0.47451
1.12,0.4741,56.91,0.1652,0.43922,0.42941,0.47059
1.128,0.46041,56.519,0.17107,0.43922,0.43922,0.47451
1.136,0.44673,56.128,0.17791,0.42549,0.41569,0.48039
1.144,0.43304,55.737,0.18377,0.4098,0.38431,0.48039
1.152,0.41935,55.541,0.18964,0.39412,0.35882,0.48039
1.16,0.40469,55.346,0.1955,0.37451,0.36471,0.5
1.168,0.39101,55.15,0.20137,0.37059,0.3549,0.50588
1.176,0.37928,54.954,0.20626,0.34902,0.3451,0.51569
1.184,0.36852,54.759,0.21114,0.33922,0.33529,0.5098
1.192,0.35679,54.368,0.21505,0.32353,0.33922,0.51961
1.2,0.34506,53.977,0.21994,0.32353,0.32353,0.51569
1.208,0.33333,53.585,0.22483,0.32353,0.32941,0.52549
1.216,0.32258,53.194,0.22972,0.32353,0.31961,0.51961
1.224,0.31281,52.999,0.2346,0.32353,0.33529,0.51961
1.232,0.30499,52.608,0.23949,0.31961,0.31961,0.51569
1.24,0.29717,52.412,0.24438,0.31373,0.32353,0.49412
1.248,0.29228,52.216,0.24927,0.5451,0.28431,0.37451
1.256,0.28739,51.63,0.25318,0.90588,0.28431,0.17843
1.264,0.28348,50.847,0.25806,0.99216,0.29412,0.12353
1.272,0.28152,50.065,0.26393,0.83529,0.4098,0.2451
1.28,0.28152,49.674,0.26882,0.37059,0.5549,0.52549
1.288,0.28152,49.87,0.27468,0.25882,0.56078,0.58431
1.296,0.2825,50.065,0.28152,0.33922,0.4549,0.52941
1.304,0.28348,49.87,0.28935,0.36471,0.39412,0.5098
1.312,0.28641,49.283,0.29717,0.36471,0.37059,0.50588
1.32,0.28935,48.501,0.30499,0.36471,0.36471,0.5
1.328,0.29228,47.914,0.31281,0.35882,0.36471,0.50588
1.336,0.29521,47.914,0.32063,0.35882,0.3549,0.5098
1.344,0.29814,47.914,0.32845,0.34902,0.35882,0.52941
1.352,0.30108,47.914,0.33822,0.32941,0.33922,0.5451
1.36,0.30401,47.718,0.348,0.32353,0.34902,0.5549
1.368,0.30596,47.132,0.35875,0.3098,0.33922,0.56078
1.376,0.3089,46.545,0.37048,0.30392,0.33922,0.57451
1.384,0.31085,46.545,0.38123,0.30392,0.33922,0.57059
1.392,0.31281,46.936,0.39198,0.30392,0.33922,0.57451
1.4,0.31476,47.327,0.40274,0.30392,0.32941,0.57451
1.408,0.31574,47.523,0.41447,0.30392,0.33922,0.57451
1.416,0.31672,47.327,0.42717,0.30392,0.33529,0.57059
1.424,0.31672,46.741,0.43988,0.30392,0.33922,0.57451
1.432,0.31574,46.154,0.45357,0.3098,0.33529,0.57059
1.44,0.31476,45.763,0.46725,0.31373,0.33922,0.57451
1.448,0.31281,45.763,0.48094,0.31961,0.32941,0.56471
1.456,0.31085,45.958,0.49462,0.32353,0.33922,0.5549
1.464,0.30792,45.958,0.50733,0.32941,0.32941,0.53529
1.472,0.30596,46.154,0.52004,0.3451,0.3451,0.52941
1.48,0.30401,45.958,0.53079,0.34902,0.34902,0.52549
1.488,0.30108,45.567,0.54154,0.37059,0.3451,0.5098
1.496,0.29717,45.372,0.55034,0.38039,0.35882,0.50588
1.504,0.29423,45.176,0.55816,0.38431,0.34902,0.5
1.512,0.2913,44.98,0.565,0.4,0.36471,0.48431
1.52,0.28739,44.98,0.57087,0.4,0.34902,0.48431
1.528,0.28446,44.98,0.57576,0.4,0.35882,0.4902
1.536,0.28152,44.589,0.58065,0.4,0.34902,0.48039
1.544,0.27859,44.198,0.5826,0.4,0.3549,0.4902
1.552,0.27566,44.785,0.58553,0.4098,0.3451,0.4902
1.56,0.2737,47.327,0.58749,0.42549,0.36471,0.49412
1.568,0.27273,52.412,0.58847,0.43922,0.35882,0.49412
1.576,0.27175,60.43,0.58749,0.4451,0.37059,0.50588
1.584,0.26979,70.6,0.58651,0.43922,0.36471,0.49412
1.592,0.26784,81.356,0.58456,0.51569,0.4,0.44902
1.6,0.26686,90.743,0.5826,0.53529,0.3902,0.43529
1.608,0.26491,97.979,0.57967,0.53922,0.4,0.44902
1.616,0.26393,102.67,0.57674,0.53922,0.3902,0.4451
1.624,0.26295,105.22,0.5738,0.52941,0.3902,0.4549
1.632,0.26197,105.61,0.57185,0.51569,0.36471,0.4451
1.64,0.261,104.04,0.56891,0.5,0.35882,0.4549
1.648,0.261,101.5,0.56598,0.47059,0.33922,0.46078
1.656,0.26002,98.957,0.56305,0.46471,0.34902,0.46078
1.664,0.261,96.806,0.56012,0.4451,0.3451,0.46078
1.672,0.26197,95.241,0.55816,0.43922,0.3549,0.46471
1.68,0.26295,93.872,0.55718,0.41569,0.34902,0.48039
1.688,0.26491,92.894,0.55523,0.4,0.35882,0.49412
1.696,0.26686,92.112,0.55425,0.38039,0.36471,0.51569
1.704,0.26882,90.548,0.55425,0.36471,0.3549,0.53529
1.712,0.27175,87.81,0.55327,0.34902,0.36471,0.5549
1.72,0.27468,84.876,0.5523,0.3451,0.35882,0.56078
1.728,0.27664,82.921,0.55132,0.33529,0.36471,0.57451
1.736,0.27957,82.334,0.55132,0.33529,0.35882,0.57451
1.744,0.28348,82.138,0.55034,0.32941,0.36471,0.58431
1.752,0.28641,81.16,0.54936,0.32353,0.35882,0.58039
1.76,0.29032,79.4,0.54839,0.33529,0.36471,0.58431
1.768,0.29326,77.249,0.54741,0.33529,0.35882,0.58039
1.776,0.29521,75.293,0.54545,0.32353,0.36471,0.5902
1.784,0.29717,74.511,0.54448,0.32353,0.35882,0.58431
1.792,0.29814,74.316,0.54252,0.32353,0.36471,0.5902
1.8,0.3001,74.12,0.54154,0.32353,0.35882,0.58431
1.808,0.30401,72.947,0.54057,0.32941,0.36471,0.5902
1.816,0.31183,71.382,0.54057,0.32353,0.35882,0.5902
1.824,0.32454,70.209,0.54057,0.31961,0.36471,0.5902
1.832,0.34506,69.622,0.54154,0.31373,0.35882,0.5902
1.84,0.37341,69.818,0.5435,0.31373,0.37059,0.59608
1.848,0.40958,69.622,0.54545,0.30392,0.35882,0.6
1.856,0.45259,68.84,0.54839,0.3098,0.36471,0.59608
1.864,0.49951,66.884,0.55132,0.30392,0.3549,0.6
1.872,0.54154,64.537,0.55425,0.3,0.35882,0.6
1.88,0.57967,62.582,0.55816,0.2902,0.3451,0.6
1.888,0.6217,60.821,0.56109,0.2902,0.3549,0.6
1.896,0.66178,60.039,0.56598,0.2902,0.3451,0.60588
1.904,0.69697,59.648,0.56989,0.2902,0.33922,0.6
1.912,0.72532,59.452,0.5738,0.29412,0.3549,0.59608
1.92,0.7478,59.061,0.57869,0.3098,0.3451,0.57451
1.928,0.76344,58.279,0.58162,0.31373,0.35882,0.57451
1.936,0.77126,57.497,0.58456,0.32353,0.34902,0.5549
1.944,0.77419,57.106,0.58553,0.32941,0.35882,0.5549
1.952,0.77224,56.91,0.58749,0.3451,0.3549,0.53529
1.96,0.76637,56.91,0.58651,0.34902,0.36471,0.52941
1.968,0.7566,56.91,0.58651,0.34902,0.3549,0.52941
1.976,0.74389,56.91,0.58456,0.34902,0.36471,0.52941
1.984,0.72825,56.91,0.58358,0.3549,0.35882,0.51961
1.992,0.71163,56.91,0.57869,0.3549,0.37059,0.52549
2,0.69306,56.91,0.5738,0.35882,0.36471,0.51569
2.008,0.67449,56.91,0.56696,0.36471,0.37451,0.51961
2.016,0.65689,56.91,0.56012,0.37059,0.36471,0.50588
2.024,0.63832,56.91,0.55132,0.37451,0.38039,0.5098
2.032,0.62072,56.91,0.5435,0.38039,0.37451,0.50588
2.04,0.60313,56.91,0.5347,0.39412,0.3902,0.5
2.048,0.58651,57.106,0.5259,0.40392,0.39412,0.48431
2.056,0.56989,57.106,0.51417,0.42549,0.42549,0.48039
2.064,0.55425,57.106,0.50342,0.43529,0.43529,0.48039
2.072,0.54057,56.91,0.48974,0.4451,0.4451,0.47059
2.08,0.52786,56.91,0.47703,0.4451,0.44902,0.47059
2.088,0.51515,56.715,0.46334,0.4549,0.43922,0.46471
2.096,0.50147,56.519,0.45064,0.43922,0.42549,0.48039
2.104,0.48876,56.323,0.43793,0.42941,0.39412,0.48039
2.112,0.47507,56.128,0.42424,0.41569,0.38039,0.48431
2.12,0.46139,55.932,0.41349,0.40392,0.38431,0.4902
2.128,0.4477,55.737,0.40176,0.3902,0.3902,0.5098
2.136,0.43402,55.541,0.39198,0.37059,0.37451,0.52941
2.144,0.42131,55.346,0.38319,0.3451,0.38431,0.5549
2.152,0.4086,54.954,0.37537,0.32353,0.36471,0.57059
2.16,0.39687,54.759,0.36755,0.3098,0.37059,0.58431
2.168,0.38612,54.368,0.36168,0.30392,0.34902,0.6
2.176,0.37732,53.977,0.35582,0.2902,0.3549,0.61569
2.184,0.36657,53.781,0.35191,0.27843,0.33529,0.62549
2.192,0.35679,53.39,0.348,0.24902,0.33922,0.63529
2.2,0.348,52.999,0.34604,0.3,0.3,0.6
2.208,0.3392,52.803,0.34311,0.57059,0.28431,0.46078
2.216,0.3304,52.608,0.34311,0.86667,0.26471,0.2902
2.224,0.32356,52.412,0.34311,0.89608,0.30392,0.26863
2.232,0.31672,52.216,0.34409,0.61961,0.42549,0.4451
2.24,0.31183,51.63,0.34604,0.18431,0.53922,0.71569
2.248,0.30792,51.239,0.34995,0.13922,0.47059,0.74118
2.256,0.30499,51.043,0.35288,0.23922,0.4,0.66078
2.264,0.30401,50.652,0.35777,0.25882,0.33922,0.62549
2.272,0.30303,50.456,0.36266,0.26863,0.32941,0.62549
2.28,0.30401,50.261,0.36657,0.27451,0.31961,0.61569
2.288,0.30499,49.87,0.37048,0.28431,0.32353,0.6
2.296,0.30596,49.674,0.37439,0.29412,0.32941,0.5902
2.304,0.30694,49.283,0.3783,0.3,0.31961,0.58431
2.312,0.3089,49.087,0.38123,0.30392,0.33529,0.58039
2.32,0.30987,48.696,0.38416,0.3098,0.32353,0.57451
2.328,0.31085,48.501,0.38612,0.31373,0.33529,0.57451
2.336,0.31183,48.305,0.38807,0.31373,0.32941,0.57059
2.344,0.31183,47.914,0.38807,0.31961,0.33922,0.57451
2.352,0.31183,47.523,0.38807,0.32353,0.33529,0.56471
2.36,0.31183,47.132,0.3871,0.32353,0.33922,0.57059
2.368,0.31281,46.741,0.38612,0.32353,0.33529,0.56471
2.376,0.31281,46.545,0.38319,0.32353,0.33922,0.56471
2.384,0.31281,46.349,0.38025,0.32941,0.32941,0.56078
2.392,0.31183,46.154,0.37537,0.32941,0.33922,0.56471
2.4,0.31183,46.154,0.37048,0.32941,0.33529,0.56078
2.408,0.31085,46.154,0.36364,0.32941,0.33922,0.56471
2.416,0.3089,45.958,0.35777,0.33529,0.32941,0.56078
2.424,0.30694,45.763,0.34995,0.33529,0.33922,0.56471
2.432,0.30499,45.372,0.34213,0.33922,0.33529,0.55098
2.44,0.30205,45.176,0.33529,0.34902,0.33922,0.55098
2.448,0.3001,44.98,0.32845,0.35882,0.33922,0.52941
2.456,0.29717,44.785,0.32258,0.36471,0.34902,0.52941
2.464,0.29423,44.785,0.31769,0.37451,0.3451,0.52549
2.472,0.29228,44.589,0.31183,0.38431,0.3549,0.51961
2.48,0.2913,44.589,0.30694,0.4,0.34902,0.50588
2.488,0.28935,44.394,0.30303,0.41961,0.35882,0.49412
2.496,0.28739,44.394,0.29814,0.43922,0.37059,0.48039
2.504,0.28446,44.589,0.29521,0.46078,0.36471,0.46471
2.512,0.28152,45.567,0.2913,0.47059,0.38431,0.46078
2.52,0.27859,48.305,0.28935,0.4902,0.38039,0.4451
2.528,0.27664,53.781,0.28641,0.50588,0.3902,0.43529
2.536,0.2737,62.19,0.28446,0.51961,0.3902,0.43529
2.544,0.27077,72.36,0.2825,0.52941,0.4,0.43529
2.552,0.26784,83.116,0.28055,0.53922,0.3902,0.42941
2.56,0.26588,92.112,0.27859,0.5549,0.40392,0.42941
2.568,0.26393,98.761,0.27664,0.56471,0.39412,0.42549
2.576,0.26393,102.67,0.27468,0.57059,0.40392,0.42941
2.584,0.26295,104.04,0.27077,0.5451,0.3902,0.43529
2.592,0.261,103.46,0.26784,0.52941,0.3902,0.44902
2.6,0.26002,101.5,0.26491,0.51569,0.38039,0.4549
2.608,0.25806,98.957,0.26197,0.48431,0.38431,0.47451
2.616,0.25709,96.61,0.25806,0.4549,0.37059,0.4902
2.624,0.25513,94.655,0.25415,0.42549,0.38039,0.51569
2.632,0.25415,93.286,0.24829,0.4,0.36471,0.52941
2.64,0.25318,92.308,0.24242,0.37451,0.37059,0.55098
2.648,0.2522,91.134,0.23558,0.3549,0.35882,0.56078
2.656,0.2522,89.765,0.22874,0.32941,0.36471,0.58431
2.664,0.2522,88.396,0.2219,0.30392,0.34902,0.6
2.672,0.25318,86.636,0.21505,0.29412,0.34902,0.61961
2.68,0.25415,84.876,0.20723,0.27843,0.33922,0.62549
2.688,0.25513,83.116,0.19941,0.26863,0.33922,0.64118
2.696,0.25611,81.747,0.19062,0.2549,0.32941,0.6451
2.704,0.25806,80.965,0.18182,0.2549,0.32941,0.65098
2.712,0.26002,80.183,0.17302,0.24902,0.33529,0.6549
2.72,0.26197,79.009,0.16325,0.2549,0.32353,0.65098
2.728,0.26393,77.64,0.15347,0.2451,0.33529,0.66078
2.736,0.26588,76.467,0.14272,0.23922,0.31373,0.6549
2.744,0.26686,75.489,0.13294,0.23922,0.32353,0.66078
2.752,0.26784,74.902,0.12317,0.24902,0.31373,0.65098
2.76,0.27077,74.12,0.11535,0.2549,0.32941,0.6451
2.768,0.27468,73.533,0.10753,0.26471,0.31961,0.62941
2.776,0.28152,72.947,0.10166,0.27451,0.33529,0.61961
2.784,0.29228,71.969,0.095797,0.2902,0.32941,0.6
2.792,0.31085,70.6,0.090909,0.30392,0.3451,0.58431
2.8,0.33627,69.231,0.086022,0.32353,0.33922,0.56078
2.808,0.3695,68.057,0.082111,0.33922,0.36471,0.5451
2.816,0.4086,66.884,0.078201,0.35882,0.35882,0.51961
2.824,0.45357,65.711,0.075269,0.37451,0.37451,0.50588
2.832,0.50049,63.95,0.073314,0.39412,0.37059,0.48431
2.84,0.54741,61.995,0.072336,0.41569,0.3902,0.46471
2.848,0.59042,60.235,0.071359,0.46078,0.39412,0.41961
2.856,0.62952,59.061,0.072336,0.5,0.4098,0.38431
2.864,0.66178,58.279,0.073314,0.51961,0.41961,0.36471
2.872,0.68524,58.083,0.075269,0.52549,0.41569,0.35882
2.88,0.6999,58.279,0.078201,0.50588,0.40392,0.36471
2.888,0.71065,58.279,0.082111,0.48039,0.3902,0.38431
2.896,0.7175,57.692,0.086022,0.4549,0.37451,0.40392
2.904,0.71945,56.715,0.090909,0.41569,0.35882,0.43529
2.912,0.71652,55.932,0.096774,0.4,0.34902,0.46078
2.92,0.7087,55.346,0.10166,0.3902,0.34902,0.46471
2.928,0.69892,55.15,0.10655,0.39412,0.35882,0.47059
2.936,0.68622,54.954,0.11144,0.39412,0.34902,0.44902
2.944,0.67155,55.15,0.11632,0.39412,0.3549,0.43529
2.952,0.65494,55.346,0.12121,0.38039,0.33529,0.42549
2.96,0.63832,55.541,0.1261,0.3549,0.32941,0.44902
2.968,0.62268,55.541,0.13001,0.31373,0.31961,0.4902
2.976,0.60802,55.346,0.13392,0.24902,0.32353,0.57451
2.984,0.5914,55.15,0.13783,0.22941,0.3451,0.62941
2.992,0.57478,55.541,0.14076,0.2549,0.40392,0.6451
3,0.55914,56.519,0.14272,0.33922,0.47059,0.56078
3.008,0.5435,57.497,0.14467,0.43529,0.53529,0.48431
3.016,0.52786,58.083,0.14663,0.46078,0.5451,0.46471
3.024,0.51222,58.083,0.14858,0.4098,0.52941,0.5549
3.032,0.49756,57.692,0.14858,0.37451,0.4902,0.6
3.04,0.48387,56.91,0.14956,0.33922,0.43529,0.61961
3.048,0.47019,56.715,0.14956,0.24902,0.3451,0.6549
3.056,0.4565,56.91,0.14956,0.1098,0.27451,0.78039
3.064,0.44282,57.106,0.14956,0.07451,0.2451,0.81569
3.072,0.43109,57.301,0.14858,0.14902,0.24902,0.71569
3.08,0.41935,57.301,0.14761,0.23333,0.2549,0.6
3.088,0.40762,56.519,0.14761,0.31373,0.27843,0.50588
3.096,0.39589,55.541,0.14663,0.3902,0.30392,0.42549
3.104,0.38416,54.954,0.14565,0.43922,0.3451,0.38431
3.112,0.37243,55.346,0.14467,0.4451,0.36471,0.40392
3.12,0.3607,55.15,0.14467,0.37059,0.37451,0.47451
3.128,0.34995,52.608,0.1437,0.29412,0.38039,0.5549
3.136,0.3392,48.11,0.14272,0.28431,0.35882,0.56471
3.144,0.32942,44.98,0.14272,0.5549,0.32941,0.43922
3.152,0.31965,46.154,0.14272,0.82549,0.3,0.32353
3.16,0.31085,51.63,0.14272,0.85098,0.32353,0.31961
3.168,0.30401,57.106,0.1437,0.82157,0.3549,0.36471
3.176,0.29814,60.039,0.14272,0.81569,0.34902,0.36471
3.184,0.29228,61.213,0.14272,0.8,0.3549,0.36471
3.192,0.28739,61.995,0.14174,0.4,0.37451,0.60588
3.2,0.28348,61.408,0.13978,0.11961,0.3098,0.80588
3.208,0.27957,57.692,0.13783,0.033333,0.29412,0.90196
3.216,0.27761,51.63,0.1349,0.04902,0.30392,0.88039
3.224,0.27664,44.785,0.13196,0.068627,0.31961,0.86667
3.232,0.27664,38.331,0.12805,0.068627,0.3,0.8451
3.24,0.27761,33.833,0.12512,0.068627,0.29412,0.83137
3.248,0.27957,33.833,0.12219,0.094118,0.2902,0.78627
3.256,0.28152,38.527,0.12023,0.11373,0.29412,0.7451
3.264,0.28446,45.763,0.11828,0.14902,0.28431,0.68627
3.272,0.28837,52.412,0.11437,0.18824,0.29412,0.62941
3.28,0.29228,56.715,0.11144,0.27451,0.3098,0.52549
3.288,0.29717,57.497,0.10753,0.38431,0.3451,0.4098
3.296,0.30205,55.346,0.10362,0.47059,0.37451,0.32941
3.304,0.30499,52.608,0.10068,0.52941,0.40392,0.27451
3.312,0.30596,50.261,0.096774,0.5549,0.42549,0.26471
3.32,0.30303,48.501,0.094819,0.5549,0.43529,0.27451
3.328,0.29912,46.545,0.092864,0.55098,0.4451,0.2902
3.336,0.29423,44.198,0.090909,0.53922,0.43922,0.31373
3.344,0.28935,41.851,0.088954,0.51961,0.44902,0.34902
3.352,0.28739,40.482,0.088954,0.49412,0.43529,0.3902
3.36,0.28837,40.874,0.088954,0.47059,0.43922,0.42549
3.368,0.2913,43.025,0.094819,0.44902,0.41961,0.44902
3.376,0.29521,45.763,0.10166,0.43922,0.42549,0.47059
3.384,0.29814,47.523,0.11339,0.43529,0.4098,0.47059
3.392,0.29814,47.718,0.12512,0.42941,0.4098,0.48431
3.4,0.29423,46.936,0.14076,0.42941,0.39412,0.48039
3.408,0.28739,45.958,0.15543,0.43922,0.4,0.47059
3.416,0.28055,45.176,0.17498,0.4549,0.3902,0.43922
3.424,0.27468,44.394,0.19355,0.47059,0.39412,0.43529
3.432,0.27273,44.394,0.22092,0.48039,0.38039,0.41569
3.44,0.2737,45.176,0.24731,0.47451,0.38431,0.42549
3.448,0.27859,47.914,0.28055,0.48039,0.36471,0.41569
3.456,0.28446,52.999,0.31281,0.47451,0.37059,0.43529
3.464,0.29032,60.235,0.34311,0.47059,0.36471,0.43529
3.472,0.29326,69.426,0.37341,0.47059,0.37059,0.4451
3.48,0.29423,79.009,0.3998,0.4902,0.37451,0.43529
3.488,0.29228,87.614,0.4262,0.50588,0.37059,0.43529
3.496,0.28739,94.068,0.4477,0.51569,0.3902,0.41569
3.504,0.28055,98.175,0.46823,0.52941,0.38039,0.4098
3.512,0.27273,100.52,0.48387,0.52549,0.3902,0.41961
3.52,0.26588,101.69,0.49951,0.5098,0.37451,0.41569
3.528,0.25904,102.09,0.50342,0.48431,0.38039,0.4549
3.536,0.25318,101.5,0.50733,0.4451,0.35882,0.47451
3.544,0.24731,100.13,0.50147,0.40392,0.36471,0.53529
3.552,0.24242,97.979,0.4956,0.37059,0.34902,0.56471
3.56,0.23754,95.437,0.48485,0.33529,0.33529,0.57451
3.568,0.23363,93.286,0.4741,0.3098,0.32353,0.6
3.576,0.23167,91.721,0.45846,0.27843,0.32941,0.62549
3.584,0.22874,90.548,0.44282,0.2549,0.31373,0.65098
3.592,0.22776,89.765,0.42033,0.22941,0.31961,0.68627
3.6,0.22874,88.788,0.39785,0.20392,0.30392,0.70588
3.608,0.23167,87.419,0.37048,0.18431,0.3098,0.73137
3.616,0.2346,85.854,0.34311,0.16863,0.3,0.74118
3.624,0.23949,84.094,0.31867,0.16471,0.30392,0.75098
3.632,0.24438,82.334,0.29521,0.16471,0.29412,0.74118
3.64,0.24927,81.16,0.27468,0.17843,0.30392,0.73137
3.648,0.25415,80.378,0.25415,0.2,0.3098,0.70588
3.656,0.25904,79.791,0.23754,0.22353,0.31961,0.68039
3.664,0.26295,79.4,0.2219,0.24902,0.32353,0.64118
3.672,0.26588,78.814,0.21017,0.29412,0.33922,0.61569
3.68,0.26979,77.836,0.19844,0.31961,0.34902,0.58039
3.688,0.2737,76.858,0.1955,0.34902,0.36471,0.55098
3.696,0.27859,75.685,0.19257,0.38039,0.37059,0.51961
3.704,0.28641,74.902,0.19648,0.40392,0.3902,0.49412
3.712,0.29814,73.924,0.20039,0.42549,0.4,0.47451
3.72,0.31476,72.947,0.20821,0.42941,0.39412,0.46471
3.728,0.33724,71.773,0.21603,0.42549,0.4098,0.47451
3.736,0.36657,70.209,0.22678,0.41961,0.40392,0.48039
3.744,0.40274,68.84,0.23754,0.41569,0.4098,0.49412
3.752,0.44379,67.275,0.25415,0.4,0.4,0.5
3.76,0.4868,65.906,0.27077,0.38039,0.40392,0.52549
3.768,0.5259,64.537,0.2913,0.36471,0.3902,0.52941
3.776,0.56012,63.168,0.31183,0.3451,0.3902,0.5549
3.784,0.59531,61.799,0.33236,0.32353,0.37451,0.56471
3.792,0.62952,60.821,0.35288,0.32353,0.38039,0.57059
3.8,0.65885,59.844,0.37243,0.32353,0.37059,0.56078
3.808,0.68231,59.257,0.39198,0.32941,0.38431,0.5549
3.816,0.6999,59.061,0.41153,0.33922,0.37451,0.52941
3.824,0.71163,58.866,0.43109,0.34902,0.3902,0.52549
3.832,0.71848,58.866,0.45064,0.36471,0.38431,0.5098
3.84,0.72043,58.67,0.46921,0.38039,0.39412,0.5
3.848,0.7175,58.279,0.48583,0.38431,0.3902,0.4902
3.856,0.71163,57.888,0.50244,0.4,0.4,0.48431
3.864,0.70283,57.497,0.51613,0.40392,0.3902,0.47059
3.872,0.69208,57.497,0.52981,0.40392,0.39412,0.47451
3.88,0.6784,57.692,0.54057,0.40392,0.3902,0.47451
3.888,0.66373,58.083,0.55034,0.4098,0.4,0.47451
3.896,0.64712,58.475,0.55718,0.41961,0.40392,0.46078
3.904,0.62952,58.67,0.56403,0.43529,0.4,0.4549
3.912,0.61095,58.866,0.56794,0.4451,0.42941,0.46078
3.92,0.59238,58.67,0.57283,0.46078,0.43922,0.44902
3.928,0.57478,58.866,0.5738,0.46471,0.4451,0.4549
3.936,0.55816,58.866,0.57576,0.4549,0.4451,0.44902
3.944,0.54252,58.866,0.57674,0.4451,0.43529,0.47451
3.952,0.52786,58.475,0.57771,0.41961,0.40392,0.48431
3.96,0.5132,58.083,0.57771,0.39412,0.37451,0.50588
3.968,0.50147,57.497,0.57771,0.37059,0.3549,0.51961
3.976,0.48974,57.497,0.57771,0.34902,0.3549,0.5451
3.984,0.47801,57.692,0.57771,0.33922,0.34902,0.5549
3.992,0.46628,58.083,0.57869,0.32353,0.34902,0.57451
4,0.45455,58.083,0.57869,0.30392,0.33922,0.58431
4.008,0.44184,57.888,0.58065,0.30392,0.3451,0.58039
4.016,0.43011,57.301,0.58358,0.31373,0.33922,0.57451
4.024,0.41838,56.715,0.58651,0.31373,0.3451,0.57451
4.032,0.40665,56.323,0.58944,0.31961,0.33922,0.57059
4.04,0.39589,55.932,0.59238,0.31961,0.3451,0.57451
4.048,0.38514,55.541,0.59629,0.30392,0.33922,0.57451
4.056,0.37537,55.346,0.59922,0.3549,0.31961,0.53922
4.064,0.36657,54.954,0.60313,0.65098,0.2902,0.38039
4.072,0.35875,54.563,0.60704,0.92157,0.26863,0.23333
4.08,0.35093,54.172,0.61095,0.94118,0.30392,0.22353
4.088,0.34311,53.781,0.61388,0.6,0.44902,0.4549
4.096,0.33529,53.39,0.61779,0.18431,0.52941,0.70588
4.104,0.32845,52.999,0.62072,0.1549,0.46078,0.73137
4.112,0.32258,52.608,0.62463,0.28431,0.4,0.62549
4.12,0.31672,52.412,0.62757,0.2549,0.3451,0.65098
4.128,0.31281,52.021,0.6305,0.22941,0.32353,0.67059
4.136,0.30987,51.63,0.63245,0.2549,0.32941,0.6451
4.144,0.30792,51.434,0.63539,0.25882,0.33529,0.6451
4.152,0.30694,51.043,0.63832,0.2451,0.31961,0.65098
4.16,0.30694,50.652,0.64027,0.2451,0.32353,0.66078
4.168,0.30792,50.261,0.64321,0.2549,0.31961,0.65098
4.176,0.3089,49.674,0.64614,0.24902,0.32353,0.6549
4.184,0.31183,49.674,0.64907,0.2549,0.31373,0.6451
4.192,0.31378,49.87,0.652,0.25882,0.32941,0.6451
4.2,0.31574,50.065,0.65494,0.25882,0.31373,0.6451
4.208,0.31769,49.87,0.65885,0.25882,0.32941,0.6451
4.216,0.32063,49.479,0.66178,0.26863,0.31961,0.62941
4.224,0.32258,49.087,0.66569,0.27451,0.32941,0.63529
4.232,0.32454,48.696,0.6696,0.28431,0.32353,0.61569
4.24,0.32649,48.501,0.67449,0.3,0.33529,0.6098
4.248,0.32845,48.696,0.6784,0.3098,0.32941,0.6
4.256,0.32942,48.696,0.68328,0.32353,0.33922,0.58431
4.264,0.3304,48.305,0.68719,0.33529,0.33529,0.57059
4.272,0.3304,47.718,0.6911,0.3451,0.33922,0.56471
4.28,0.32942,47.132,0.69501,0.34902,0.3451,0.56078
4.288,0.32845,46.936,0.69795,0.34902,0.33922,0.56078
4.296,0.32649,46.936,0.6999,0.3549,0.33529,0.5549
4.304,0.32356,47.132,0.70186,0.3549,0.33922,0.5549
4.312,0.32063,47.327,0.70186,0.3549,0.33529,0.5549
4.32,0.31769,47.132,0.70186,0.36471,0.32941,0.55098
4.328,0.31378,46.545,0.69892,0.37059,0.3451,0.5451
4.336,0.30987,45.763,0.69697,0.39412,0.33922,0.52941
4.344,0.30596,45.176,0.6911,0.41569,0.35882,0.51569
4.352,0.30303,44.98,0.68622,0.43529,0.35882,0.5
4.36,0.29912,45.567,0.68035,0.4549,0.37059,0.48039
4.368,0.29521,47.718,0.67351,0.48039,0.36471,0.46078
4.376,0.29228,51.63,0.66569,0.50588,0.38431,0.4451
4.384,0.28935,58.083,0.65787,0.53529,0.38039,0.41961
4.392,0.28543,67.471,0.64712,0.56471,0.3902,0.4
4.4,0.28152,78.422,0.63636,0.6,0.39412,0.37059
4.408,0.27761,88.983,0.62268,0.61569,0.40392,0.36471
4.416,0.2737,97.393,0.60899,0.62941,0.39412,0.3451
4.424,0.27077,102.67,0.59531,0.63529,0.4098,0.34902
4.432,0.26784,104.82,0.58162,0.62941,0.4,0.3451
4.44,0.26588,104.63,0.56794,0.62549,0.40392,0.35882
4.448,0.26295,103.46,0.55425,0.6,0.38431,0.37451
4.456,0.26002,101.89,0.53861,0.57059,0.3902,0.4
4.464,0.25904,100.33,0.52297,0.53529,0.37451,0.41961
4.472,0.25709,98.761,0.50538,0.49412,0.37059,0.4549
4.48,0.25611,97.393,0.48778,0.46471,0.37451,0.47451
4.488,0.25415,95.632,0.47019,0.43529,0.36471,0.5
4.496,0.25318,93.872,0.45259,0.40392,0.3549,0.51961
4.504,0.2522,92.308,0.43402,0.38039,0.3549,0.53922
4.512,0.2522,90.743,0.41642,0.37451,0.3549,0.5451
4.52,0.2522,89.57,0.3998,0.41961,0.36471,0.49412
4.528,0.2522,88.201,0.38416,0.4,0.37059,0.5098
4.536,0.2522,86.636,0.37048,0.38039,0.35882,0.52941
4.544,0.2522,84.876,0.35679,0.37059,0.36471,0.5451
4.552,0.25318,83.507,0.34409,0.36471,0.34902,0.5451
4.56,0.25415,82.334,0.33138,0.3549,0.3549,0.5549
4.568,0.25513,81.356,0.32063,0.31373,0.33529,0.5902
4.576,0.25709,80.574,0.3089,0.3,0.33529,0.61569
4.584,0.25904,79.596,0.3001,0.30392,0.32941,0.5902
4.592,0.26002,78.814,0.2913,0.31373,0.33529,0.58431
4.6,0.261,78.227,0.28348,0.32353,0.32941,0.57059
4.608,0.26295,77.64,0.27566,0.33529,0.3451,0.56471
4.616,0.26491,76.858,0.26882,0.3451,0.33922,0.5549
4.624,0.26979,75.489,0.261,0.3451,0.3549,0.5549
4.632,0.27859,73.924,0.25415,0.3451,0.33922,0.55098
4.64,0.29326,72.36,0.24731,0.34902,0.3549,0.55098
4.648,0.31378,71.382,0.24047,0.34902,0.3451,0.53922
4.656,0.34311,70.404,0.23363,0.34902,0.35882,0.53922
4.664,0.37243,69.035,0.22678,0.34902,0.3451,0.53529
4.672,0.40469,67.08,0.21994,0.34902,0.3549,0.52941
4.68,0.44477,64.733,0.21505,0.3549,0.35882,0.51569
4.688,0.48876,62.777,0.20919,0.37059,0.3549,0.5
4.696,0.53372,61.408,0.20528,0.38039,0.36471,0.48039
4.704,0.57478,60.821,0.20039,0.3902,0.3549,0.47451
4.712,0.61193,60.43,0.1955,0.40392,0.36471,0.44902
4.72,0.64223,59.648,0.19062,0.42549,0.36471,0.42941
4.728,0.66569,58.67,0.18573,0.43529,0.37059,0.41569
4.736,0.68719,58.279,0.18084,0.42549,0.36471,0.41961
4.744,0.70577,57.888,0.17693,0.41961,0.37059,0.42941
4.752,0.71359,57.692,0.17302,0.40392,0.35882,0.43529
4.76,0.71457,57.497,0.17009,0.3902,0.36471,0.4549
4.768,0.71065,57.301,0.16618,0.38039,0.3451,0.46078
4.776,0.70283,56.91,0.16227,0.38039,0.34902,0.46078
4.784,0.69306,56.519,0.15836,0.38431,0.3451,0.4451
4.792,0.68133,55.932,0.15347,0.3902,0.3549,0.4451
4.8,0.66862,55.737,0.14858,0.39412,0.34902,0.43529
4.808,0.65396,55.932,0.14272,0.4,0.36471,0.4451
4.816,0.63832,56.519,0.13685,0.4,0.37451,0.4549
4.824,0.6217,56.91,0.13099,0.37451,0.4,0.50588
4.832,0.60508,56.91,0.12512,0.34902,0.4098,0.55098
4.84,0.58847,56.519,0.12023,0.32353,0.41569,0.58431
4.848,0.57283,56.128,0.11535,0.3,0.39412,0.61961
4.856,0.55621,55.932,0.11046,0.2549,0.3902,0.68627
4.864,0.54252,55.541,0.10655,0.20392,0.3451,0.72549
4.872,0.52884,55.15,0.10362,0.1549,0.31961,0.77647
4.88,0.51613,54.954,0.099707,0.10392,0.3,0.82549
4.888,0.50244,55.346,0.097752,0.052941,0.29412,0.88039
4.896,0.48974,56.519,0.095797,0.033333,0.3,0.90588
4.904,0.47605,57.888,0.093842,0.07451,0.29412,0.86667
4.912,0.46334,58.67,0.092864,0.10392,0.32353,0.83137
4.92,0.45064,58.475,0.092864,0.14902,0.31373,0.78627
4.928,0.43793,56.715,0.092864,0.22941,0.36471,0.70588
4.936,0.42522,54.172,0.092864,0.23333,0.35882,0.7
4.944,0.41251,52.216,0.092864,0.23922,0.37059,0.70588
4.952,0.3998,52.608,0.093842,0.2451,0.35882,0.69608
4.96,0.3871,55.15,0.094819,0.22941,0.36471,0.69608
4.968,0.37634,57.301,0.095797,0.33529,0.33529,0.62549
4.976,0.36657,57.497,0.095797,0.67647,0.32353,0.43922
4.984,0.35582,55.932,0.096774,0.88039,0.31373,0.31961
4.992,0.34506,53.977,0.096774,0.88627,0.3902,0.3549
5,0.33431,53.585,0.097752,0.46471,0.52941,0.5902
5.008,0.32356,54.563,0.097752,0.16863,0.58039,0.76667
5.016,0.31378,55.932,0.098729,0.22353,0.4902,0.70588
5.024,0.30401,56.323,0.098729,0.2902,0.41961,0.6451
5.032,0.29619,55.15,0.097752,0.30392,0.37059,0.6098
5.04,0.28935,52.999,0.097752,0.3098,0.36471,0.60588
5.048,0.28348,51.434,0.096774,0.31373,0.3451,0.5902
5.056,0.27859,51.043,0.096774,0.31961,0.3549,0.58039
5.064,0.27664,51.825,0.096774,0.33529,0.34902,0.5549
5.072,0.27566,52.412,0.096774,0.3549,0.35882,0.52941
5.08,0.27468,52.608,0.096774,0.37451,0.36471,0.5098
5.088,0.27566,52.021,0.097752,0.39412,0.3549,0.4902
5.096,0.27664,51.043,0.097752,0.40392,0.36471,0.46471
5.104,0.27761,50.847,0.098729,0.42941,0.3549,0.43529
5.112,0.28055,51.434,0.099707,0.47451,0.37059,0.3902
5.12,0.2825,52.412,0.099707,0.50588,0.38039,0.34902
5.128,0.28543,52.999,0.10264,0.53529,0.3902,0.31961
5.136,0.28837,52.999,0.10459,0.5549,0.39412,0.3
5.144,0.2913,52.412,0.1085,0.56471,0.40392,0.29412
5.152,0.29423,52.021,0.11241,0.57451,0.4098,0.29412
5.16,0.29717,51.239,0.1173,0.58431,0.41961,0.29412
5.168,0.3001,50.652,0.12219,0.58431,0.41961,0.29412
5.176,0.30303,49.479,0.12708,0.5902,0.43529,0.3
5.184,0.30596,48.305,0.13196,0.57451,0.42549,0.31373
5.192,0.3089,47.523,0.13881,0.56078,0.43529,0.33529
5.2,0.31085,46.936,0.14565,0.53922,0.42549,0.3549
5.208,0.31183,46.545,0.15445,0.51961,0.42549,0.38431
5.216,0.31281,46.154,0.16227,0.5098,0.41569,0.39412
5.224,0.31183,45.567,0.17009,0.49412,0.41569,0.41569
5.232,0.30987,44.785,0.17889,0.49412,0.4098,0.41569
5.24,0.30694,44.589,0.18671,0.48431,0.4098,0.43529
5.248,0.30303,44.589,0.19453,0.4549,0.4,0.46471
5.256,0.29814,44.785,0.20332,0.46078,0.4098,0.47451
5.264,0.29326,44.589,0.21114,0.41569,0.3902,0.51961
5.272,0.28935,44.394,0.21994,0.4,0.3902,0.55098
5.28,0.2825,45.176,0.22776,0.4,0.38431,0.5549
5.288,0.27566,48.501,0.23558,0.40392,0.3902,0.55098
5.296,0.26882,55.346,0.2434,0.41961,0.39412,0.5549
5.304,0.26197,64.733,0.25024,0.41961,0.3902,0.5549
5.312,0.25415,75.489,0.25709,0.41961,0.38431,0.56471
5.32,0.24536,85.658,0.26197,0.41961,0.38431,0.57451
5.328,0.23754,93.481,0.26686,0.42941,0.3902,0.56078
5.336,0.22972,98.761,0.26979,0.43922,0.3902,0.56078
5.344,0.2219,101.89,0.27273,0.42941,0.3902,0.57451
5.352,0.21505,103.26,0.27566,0.41569,0.38039,0.58039
5.36,0.21017,103.06,0.27761,0.4,0.38431,0.5902
5.368,0.20723,101.89,0.27957,0.38431,0.37059,0.59608
5.376,0.20528,100.33,0.28152,0.35882,0.37451,0.61569
5.384,0.2043,98.566,0.2825,0.3451,0.36471,0.61961
5.392,0.2043,97.001,0.28446,0.32353,0.37059,0.63529
5.4,0.20528,95.437,0.28543,0.3098,0.3549,0.63529
5.408,0.20723,94.068,0.28641,0.29412,0.35882,0.65098
5.416,0.21017,93.09,0.28837,0.2902,0.3451,0.6451
5.424,0.2131,92.112,0.28935,0.27843,0.3549,0.65098
5.432,0.21799,90.743,0.29228,0.27843,0.33922,0.6451
5.44,0.2219,89.179,0.29423,0.27843,0.3451,0.65098
5.448,0.22678,87.419,0.29717,0.27451,0.33529,0.6451
5.456,0.23265,86.05,0.29912,0.26863,0.33922,0.6451
5.464,0.23754,84.876,0.30205,0.27451,0.33529,0.64118
5.472,0.2434,83.703,0.30401,0.27843,0.32941,0.63529
5.48,0.24829,82.334,0.30499,0.27843,0.33529,0.62549
5.488,0.25318,80.965,0.30694,0.27843,0.32353,0.62549
5.496,0.25709,79.596,0.30694,0.28431,0.32941,0.61961
5.504,0.26002,78.422,0.30694,0.28431,0.31961,0.61569
5.512,0.26197,77.445,0.30303,0.28431,0.33529,0.61961
5.52,0.26295,76.467,0.3001,0.29412,0.32353,0.60588
5.528,0.26393,75.293,0.29423,0.30392,0.33529,0.59608
5.536,0.26588,74.316,0.28837,0.31373,0.32941,0.58039
5.544,0.26979,73.338,0.28055,0.32353,0.33922,0.57059
5.552,0.27957,71.969,0.27175,0.3451,0.3451,0.5549
5.56,0.2913,70.6,0.26197,0.3549,0.3549,0.53922
5.568,0.3089,68.84,0.2522,0.36471,0.34902,0.52941
5.576,0.33431,67.275,0.23754,0.37451,0.36471,0.51961
5.584,0.36755,65.515,0.22385,0.38039,0.36471,0.50588
5.592,0.40567,63.755,0.20626,0.39412,0.37059,0.49412
5.6,0.4477,62.386,0.18866,0.41569,0.37059,0.47059
5.608,0.48974,61.213,0.17009,0.42549,0.3902,0.46078
5.616,0.52981,60.235,0.15152,0.4451,0.3902,0.4451
5.624,0.565,59.452,0.13294,0.4451,0.4,0.43922
5.632,0.59629,58.866,0.11437,0.4549,0.39412,0.43529
5.64,0.62072,58.279,0.098729,0.4549,0.4098,0.43529
5.648,0.6393,57.497,0.083089,0.4549,0.40392,0.43529
5.656,0.652,56.91,0.069404,0.44902,0.4098,0.43529
5.664,0.65885,56.323,0.056696,0.4451,0.4,0.4451
5.672,0.66178,55.932,0.046921,0.44902,0.4098,0.44902
5.68,0.66178,55.737,0.037146,0.4451,0.40392,0.44902
5.688,0.65787,55.932,0.030303,0.42941,0.4098,0.46078
5.696,0.652,56.323,0.02346,0.42549,0.4,0.47059
5.704,0.64321,56.715,0.01955,0.41961,0.4098,0.48039
5.712,0.63343,57.106,0.016618,0.3902,0.4,0.5098
5.72,0.6217,57.301,0.016618,0.37451,0.39412,0.53922
5.728,0.60802,57.497,0.016618,0.38039,0.41569,0.52941
5.736,0.59531,57.692,0.020528,0.4,0.42941,0.52549
5.744,0.58065,57.888,0.025415,0.4,0.43529,0.51961
5.752,0.56696,57.888,0.033236,0.39412,0.41569,0.52549
5.76,0.55327,57.692,0.041056,0.37451,0.41961,0.53922
5.768,0.54057,57.888,0.052786,0.35882,0.36471,0.5451
5.776,0.52688,58.083,0.063539,0.33922,0.3549,0.5549
5.784,0.51222,58.279,0.076246,0.32353,0.33922,0.56471
5.792,0.49658,58.279,0.089932,0.31373,0.34902,0.58431
5.8,0.48192,58.083,0.10166,0.2902,0.33922,0.6
5.808,0.46725,57.888,0.11437,0.26863,0.33922,0.61961
5.816,0.45357,57.301,0.12512,0.25882,0.32353,0.62549
5.824,0.43988,56.91,0.13685,0.24902,0.32941,0.6451
5.832,0.4262,56.91,0.14761,0.23922,0.31373,0.6451
5.84,0.41349,56.715,0.15738,0.23333,0.32353,0.66078
5.848,0.3998,56.519,0.16716,0.23333,0.31373,0.6549
5.856,0.3871,56.128,0.17693,0.21961,0.31373,0.66471
5.864,0.37537,55.541,0.18377,0.21373,0.29412,0.6451
5.872,0.36559,54.954,0.19062,0.43922,0.26863,0.52941
5.88,0.35484,54.563,0.1955,0.77059,0.2549,0.3549
5.888,0.34409,54.172,0.20039,0.86078,0.24902,0.30392
5.896,0.33333,54.172,0.20332,0.70588,0.37451,0.4098
5.904,0.32454,53.977,0.20626,0.25882,0.51569,0.68039
5.912,0.31476,53.585,0.20723,0.12941,0.51961,0.7549
5.92,0.30694,52.999,0.20821,0.2098,0.4,0.69608
5.928,0.3001,52.608,0.20723,0.23333,0.33922,0.66471
5.936,0.29326,52.216,0.20626,0.2451,0.31961,0.65098
5.944,0.28739,52.021,0.2043,0.2451,0.32941,0.6451
5.952,0.2825,51.825,0.20332,0.24902,0.31373,0.64118
5.96,0.27859,51.63,0.20137,0.2549,0.31961,0.63529
5.968,0.27664,51.239,0.19941,0.26471,0.31373,0.62549
5.976,0.27468,51.043,0.19746,0.27451,0.32353,0.61961
5.984,0.27273,50.652,0.1955,0.28431,0.32353,0.6098
5.992,0.27175,50.456,0.19453,0.28431,0.33529,0.61569
6,0.27273,50.065,0.19355,0.3,0.32941,0.5902
6.008,0.2737,49.674,0.19257,0.3098,0.33922,0.58431
6.016,0.27468,49.283,0.19257,0.32353,0.33922,0.57059
6.024,0.27664,49.087,0.19257,0.33922,0.3549,0.56078
6.032,0.27859,48.696,0.19257,0.34902,0.34902,0.5451
6.04,0.28055,48.696,0.19355,0.3549,0.36471,0.53922
6.048,0.28152,48.501,0.1955,0.36471,0.3549,0.52941
6.056,0.28348,48.501,0.19844,0.37059,0.36471,0.52941
6.064,0.28543,48.305,0.20137,0.37451,0.36471,0.52941
6.072,0.28641,48.11,0.20626,0.37451,0.37059,0.52941
6.08,0.28739,47.914,0.21114,0.38039,0.36471,0.51961
6.088,0.28739,47.718,0.21799,0.3902,0.37059,0.51961
6.096,0.28739,47.523,0.22483,0.4,0.37451,0.50588
6.104,0.28739,47.132,0.23363,0.4098,0.36471,0.5
6.112,0.28641,46.936,0.24145,0.41961,0.38431,0.48431
6.12,0.28543,46.741,0.24927,0.42941,0.37451,0.48039
6.128,0.28446,46.349,0.25709,0.43922,0.3902,0.47451
6.136,0.2825,46.154,0.26393,0.4451,0.38431,0.46471
6.144,0.27957,45.958,0.27175,0.4549,0.3902,0.47059
6.152,0.27761,45.763,0.27859,0.46078,0.38431,0.46078
6.16,0.27566,45.763,0.28641,0.46471,0.3902,0.46471
6.168,0.27468,46.154,0.29423,0.47451,0.38039,0.46078
6.176,0.27175,47.327,0.30205,0.48039,0.3902,0.46471
6.184,0.26882,50.065,0.3089,0.4902,0.3902,0.4549
6.192,0.26588,55.346,0.31476,0.49412,0.3902,0.46078
6.2,0.26197,63.755,0.31965,0.51569,0.3902,0.4549
6.208,0.25904,74.12,0.32356,0.51961,0.40392,0.4549
6.216,0.25513,84.876,0.32551,0.53529,0.39412,0.44902
6.224,0.2522,94.068,0.32747,0.53922,0.40392,0.4549
6.232,0.24829,100.52,0.32649,0.53922,0.3902,0.4451
6.24,0.24536,104.24,0.32649,0.53922,0.39412,0.4549
6.248,0.24242,105.61,0.32258,0.51569,0.37451,0.46471
6.256,0.24047,105.22,0.31867,0.48431,0.37059,0.48431
6.264,0.23851,103.46,0.31281,0.46471,0.35882,0.49412
6.272,0.23851,101.3,0.30596,0.44902,0.36471,0.50588
6.28,0.23754,99.153,0.29912,0.43529,0.35882,0.5098
6.288,0.23656,97.588,0.29326,0.4098,0.36471,0.52941
6.296,0.2346,96.415,0.28543,0.39412,0.35882,0.5451
6.304,0.23363,95.437,0.27859,0.37451,0.3549,0.55098
6.312,0.23265,94.263,0.26979,0.36471,0.36471,0.5549
6.32,0.23167,92.699,0.26197,0.3549,0.3549,0.55098
6.328,0.23069,91.134,0.2522,0.34902,0.35882,0.5549
6.336,0.23069,89.374,0.24242,0.34902,0.3549,0.5549
6.344,0.23069,87.81,0.23363,0.34902,0.36471,0.5549
6.352,0.23167,85.854,0.22483,0.3451,0.3549,0.56078
6.36,0.23265,84.289,0.21701,0.33529,0.36471,0.57451
6.368,0.2346,83.116,0.20919,0.32353,0.34902,0.58039
6.376,0.23656,82.725,0.20235,0.32353,0.35882,0.59608
6.384,0.23754,82.529,0.1955,0.32353,0.3549,0.59608
6.392,0.23851,81.16,0.18866,0.31373,0.35882,0.6
6.4,0.23949,79.205,0.1828,0.31373,0.34902,0.59608
6.408,0.24047,77.054,0.17889,0.31961,0.35882,0.6
6.416,0.24047,75.88,0.17498,0.32353,0.3549,0.58039
6.424,0.24242,76.076,0.17204,0.3451,0.36471,0.57059
6.432,0.24536,76.662,0.16911,0.3549,0.36471,0.55098
6.44,0.25122,76.076,0.16716,0.36471,0.37451,0.5451
6.448,0.26197,73.924,0.16618,0.37059,0.36471,0.53529
6.456,0.27859,71.578,0.16618,0.3549,0.37059,0.55098
6.464,0.29814,69.818,0.16618,0.34902,0.35882,0.5549
6.472,0.3216,69.035,0.16813,0.33922,0.36471,0.56471
6.48,0.35288,68.057,0.17009,0.33529,0.37059,0.57059
6.488,0.38905,66.493,0.17302,0.33529,0.36471,0.57059
6.496,0.42913,64.537,0.17693,0.32941,0.37451,0.56471
6.504,0.46921,62.777,0.18084,0.33922,0.36471,0.56078
6.512,0.50733,61.408,0.18573,0.3451,0.38039,0.55098
6.52,0.54154,60.626,0.19062,0.35882,0.37059,0.53922
6.528,0.57087,60.235,0.19648,0.37059,0.38431,0.52549
6.536,0.59531,60.43,0.20137,0.38039,0.37451,0.51569
6.544,0.6129,60.821,0.20723,0.3902,0.3902,0.5
6.552,0.62561,60.039,0.2131,0.4,0.3902,0.4902
6.56,0.63148,58.083,0.21896,0.3902,0.39412,0.5
6.568,0.63343,55.737,0.22483,0.38039,0.3902,0.50588
6.576,0.63245,54.172,0.22972,0.37059,0.3902,0.52549
6.584,0.62854,54.368,0.2346,0.35882,0.38431,0.52549
6.592,0.6217,55.932,0.23851,0.35882,0.3902,0.53529
6.6,0.61193,57.888,0.24242,0.35882,0.38431,0.52941
6.608,0.6002,58.866,0.24536,0.37451,0.40392,0.52941
6.616,0.58749,58.866,0.24829,0.3902,0.4098,0.51961
6.624,0.5738,58.279,0.25122,0.4,0.43922,0.51961
6.632,0.55914,57.301,0.25318,0.41961,0.43529,0.5
6.64,0.54545,56.519,0.25513,0.41961,0.44902,0.50588
6.648,0.53079,56.519,0.25611,0.41961,0.42941,0.49412
6.656,0.51711,57.497,0.25806,0.4098,0.41961,0.50588
6.664,0.50538,58.67,0.25904,0.40392,0.38431,0.49412
6.672,0.49365,59.648,0.26002,0.3902,0.38039,0.50588
6.68,0.48192,59.844,0.261,0.37451,0.36471,0.51961
6.688,0.47019,59.061,0.26197,0.36471,0.38039,0.52941
6.696,0.45846,58.279,0.26295,0.34902,0.36471,0.53922
6.704,0.44673,57.692,0.26295,0.33922,0.36471,0.55098
6.712,0.43597,57.497,0.26393,0.32941,0.35882,0.5549
6.72,0.42326,57.497,0.26393,0.32353,0.36471,0.55098
6.728,0.41153,57.692,0.26491,0.32353,0.35882,0.56078
6.736,0.39883,57.888,0.26588,0.32353,0.35882,0.5549
6.744,0.38612,57.888,0.26686,0.31373,0.36471,0.56471
6.752,0.37439,57.301,0.26882,0.3,0.3451,0.57451
6.76,0.36461,56.715,0.26979,0.33922,0.3549,0.53922
6.768,0.35582,55.737,0.27175,0.6098,0.31373,0.39412
6.776,0.34604,55.346,0.2737,0.89608,0.3,0.23922
6.784,0.348,55.15,0.27566,0.94118,0.2902,0.2098
6.792,0.35386,55.15,0.27859,0.6902,0.4549,0.3902
6.8,0.35288,55.15,0.2825,0.2451,0.5549,0.65098
6.808,0.348,54.954,0.28739,0.18431,0.50588,0.6902
6.816,0.34115,54.759,0.29228,0.26863,0.41961,0.61961
6.824,0.33431,54.172,0.29912,0.2902,0.37451,0.6
6.832,0.32649,53.781,0.30499,0.3,0.3549,0.58431
6.84,0.31965,53.39,0.31183,0.3,0.35882,0.58431
6.848,0.31378,53.194,0.31965,0.29412,0.3451,0.58039
6.856,0.30792,53.194,0.32942,0.3,0.3549,0.58431
6.864,0.30499,52.999,0.3392,0.29412,0.3451,0.58431
6.872,0.30401,52.608,0.35191,0.29412,0.3549,0.5902
6.88,0.30303,52.216,0.36364,0.29412,0.34902,0.58431
6.888,0.30205,51.825,0.3783,0.2902,0.3549,0.5902
6.896,0.30303,51.239,0.39296,0.3,0.3549,0.58431
6.904,0.30401,50.847,0.4086,0.30392,0.36471,0.58431
6.912,0.30499,50.652,0.42424,0.30392,0.35882,0.57451
6.92,0.30596,50.652,0.43891,0.31373,0.36471,0.57451
6.928,0.30792,50.456,0.45357,0.31961,0.35882,0.57059
6.936,0.3089,50.065,0.46725,0.31961,0.3549,0.57451
6.944,0.31085,49.674,0.48094,0.31961,0.36471,0.56471
6.952,0.31281,49.479,0.4956,0.32941,0.36471,0.56471
6.96,0.31574,49.087,0.51026,0.32941,0.37059,0.5549
6.968,0.31769,49.087,0.5259,0.33922,0.36471,0.5549
6.976,0.31965,48.892,0.54154,0.3451,0.37059,0.55098
6.984,0.32063,48.696,0.55523,0.3549,0.36471,0.53529
6.992,0.3216,48.501,0.56989,0.36471,0.37451,0.52941
7,0.3216,48.305,0.5826,0.37451,0.37059,0.52549
7.008,0.32063,47.914,0.59531,0.38431,0.38431,0.51569
7.016,0.32063,47.718,0.60802,0.39412,0.38039,0.50588
7.024,0.31965,47.327,0.62072,0.4,0.3902,0.5
7.032,0.31965,47.132,0.63343,0.40392,0.38039,0.49412
7.04,0.31867,46.936,0.64516,0.41569,0.3902,0.5
7.048,0.31769,47.132,0.65591,0.41961,0.38039,0.48431
7.056,0.31769,47.327,0.66764,0.42941,0.3902,0.48431
7.064,0.31769,47.718,0.67742,0.43922,0.38039,0.48039
7.072,0.31574,49.283,0.68719,0.44902,0.3902,0.48431
7.08,0.31378,53.194,0.69501,0.46078,0.3902,0.48039
7.088,0.31183,60.039,0.70283,0.47059,0.39412,0.48039
7.096,0.30987,70.013,0.7087,0.4902,0.4,0.46471
7.104,0.30694,81.356,0.71554,0.5,0.3902,0.46078
7.112,0.30499,92.112,0.72043,0.51569,0.40392,0.44902
7.12,0.30303,100.52,0.7263,0.53529,0.39412,0.43922
7.128,0.3001,105.8,0.73021,0.53922,0.4098,0.43529
7.136,0.29814,108.34,0.73509,0.53922,0.39412,0.42941
7.144,0.29619,108.54,0.73803,0.52941,0.40392,0.43529
7.152,0.29423,107.17,0.74194,0.51569,0.3902,0.43922
7.16,0.29326,104.82,0.74487,0.4902,0.3902,0.4549
7.168,0.29228,102.48,0.7478,0.47451,0.38039,0.46078
7.176,0.2913,100.52,0.74976,0.4549,0.38431,0.48039
7.184,0.2913,99.348,0.75269,0.42549,0.37059,0.4902
7.192,0.29032,98.37,0.75367,0.40392,0.38039,0.50588
7.2,0.28935,97.393,0.75562,0.3902,0.36471,0.5098
7.208,0.28837,96.415,0.7566,0.37059,0.36471,0.52941
7.216,0.28739,95.046,0.75855,0.34902,0.35882,0.55098
7.224,0.28641,93.677,0.75953,0.32941,0.36471,0.56471
7.232,0.28543,92.112,0.76149,0.32353,0.34902,0.57451
7.24,0.28543,90.548,0.76246,0.31961,0.35882,0.58431
7.248,0.28543,88.983,0.76442,0.31961,0.34902,0.57451
7.256,0.28641,87.419,0.7654,0.32353,0.35882,0.57451
7.264,0.28837,85.854,0.76735,0.32353,0.3549,0.57451
7.272,0.28935,84.681,0.76931,0.32353,0.36471,0.58431
7.28,0.29032,83.703,0.77126,0.32353,0.3549,0.57451
7.288,0.29032,82.725,0.77322,0.32941,0.36471,0.57451
7.296,0.2913,81.943,0.77517,0.33922,0.36471,0.57059
7.304,0.2913,81.16,0.7781,0.3451,0.37059,0.56471
7.312,0.29228,79.987,0.78006,0.34902,0.37451,0.56078
7.32,0.29423,78.814,0.78201,0.34902,0.37059,0.5549
7.328,0.29912,77.249,0.78397,0.35882,0.38431,0.55098
7.336,0.30694,75.88,0.78592,0.35882,0.37451,0.53922
7.344,0.31867,74.511,0.78886,0.3549,0.38431,0.55098
7.352,0.33724,73.142,0.79081,0.35882,0.38039,0.55098
7.36,0.35679,71.773,0.79374,0.36471,0.3902,0.5451
7.368,0.3783,70.404,0.79668,0.36471,0.37451,0.53529
7.376,0.40665,68.84,0.79961,0.36471,0.38431,0.5451
7.384,0.43891,67.275,0.80254,0.37059,0.38431,0.53922
7.392,0.47312,65.711,0.80547,0.36471,0.3902,0.5451
7.4,0.50635,64.146,0.80841,0.37059,0.38039,0.53529
7.408,0.53666,62.973,0.81036,0.37059,0.38431,0.53529
7.416,0.56305,61.799,0.81134,0.36471,0.37451,0.52941
7.424,0.58553,60.821,0.81232,0.35882,0.38431,0.5451
7.432,0.60313,60.039,0.81232,0.35882,0.37451,0.53529
7.44,0.61584,59.648,0.81232,0.3549,0.38431,0.5451
7.448,0.62463,59.061,0.81036,0.3549,0.37059,0.53922
7.456,0.62854,58.67,0.80841,0.34902,0.38431,0.55098
7.464,0.62952,58.279,0.80645,0.3451,0.37059,0.5549
7.472,0.62757,57.888,0.8045,0.33922,0.38039,0.5549
7.48,0.62366,57.888,0.80156,0.33922,0.37059,0.56078
7.488,0.61877,57.888,0.79961,0.33529,0.38039,0.56471
7.496,0.61095,58.083,0.7957,0.32941,0.37059,0.57059
7.504,0.60313,58.279,0.79179,0.3451,0.38431,0.56471
7.512,0.59335,58.279,0.7869,0.3549,0.3902,0.5549
7.52,0.58358,58.279,0.78201,0.37451,0.38431,0.5451
7.528,0.5738,58.279,0.77615,0.38039,0.4098,0.53922
7.536,0.56305,58.67,0.77028,0.39412,0.42941,0.53529
7.544,0.5523,59.061,0.76442,0.4,0.43529,0.52549
7.552,0.54154,59.452,0.75855,0.40392,0.43529,0.52549
7.56,0.53275,59.648,0.75269,0.4,0.42941,0.52941
7.568,0.52395,59.844,0.74682,0.39412,0.40392,0.53529
7.576,0.51417,59.648,0.74096,0.38431,0.38431,0.53922
7.584,0.50538,59.452,0.73607,0.37059,0.36471,0.52941
7.592,0.4956,59.061,0.73118,0.35882,0.37059,0.5549
7.6,0.48583,58.866,0.7263,0.34902,0.36471,0.5549
7.608,0.47507,58.67,0.72239,0.33922,0.37059,0.56078
7.616,0.4653,58.475,0.71848,0.32941,0.36471,0.56471
7.624,0.45455,58.279,0.71457,0.32353,0.36471,0.57059
7.632,0.44379,57.888,0.71065,0.33529,0.35882,0.55098
7.64,0.43402,57.692,0.70772,0.34902,0.36471,0.53922
7.648,0.42424,57.497,0.70479,0.34902,0.35882,0.5451
7.656,0.41544,57.301,0.70088,0.33529,0.35882,0.5549
7.664,0.4086,57.106,0.69795,0.3098,0.33922,0.56471
7.672,0.40078,56.715,0.69306,0.36471,0.32353,0.52549
7.68,0.39198,56.128,0.68915,0.6549,0.29412,0.37059
7.688,0.38319,55.737,0.68524,0.92157,0.27843,0.21961
7.696,0.37537,55.346,0.68133,0.94706,0.30392,0.20392
7.704,0.36755,55.15,0.67742,0.64118,0.4451,0.40392
7.712,0.35973,54.759,0.67351,0.22941,0.53922,0.65098
7.72,0.35288,54.368,0.67058,0.19412,0.48039,0.67059
7.728,0.34702,54.172,0.66667,0.2902,0.40392,0.59608
7.736,0.34115,53.781,0.66276,0.30392,0.35882,0.57451
7.744,0.33627,53.585,0.65982,0.30392,0.33922,0.57451
7.752,0.33236,53.194,0.65591,0.3,0.33529,0.57451
7.76,0.32942,52.803,0.65298,0.30392,0.33922,0.57451
7.768,0.32845,52.412,0.64907,0.30392,0.31961,0.57451
7.776,0.32747,52.021,0.64614,0.3,0.32941,0.57451
7.784,0.32649,51.63,0.64321,0.3,0.31961,0.57059
7.792,0.32551,51.239,0.64027,0.29412,0.32941,0.57451
7.8,0.32649,51.043,0.63832,0.3,0.31961,0.57451
7.808,0.32649,50.847,0.63539,0.30392,0.32941,0.57451
7.816,0.32845,50.652,0.63245,0.3,0.31961,0.57059
7.824,0.32942,50.261,0.62952,0.3098,0.33529,0.56471
7.832,0.33138,50.065,0.62561,0.31373,0.32353,0.5549
7.84,0.33236,49.674,0.62268,0.32353,0.33922,0.55098
7.848,0.33333,49.479,0.61877,0.32353,0.32941,0.5451
7.856,0.33529,49.283,0.61584,0.33529,0.33922,0.53922
7.864,0.33627,49.087,0.61388,0.33529,0.32941,0.5451
7.872,0.33822,48.696,0.61095,0.33922,0.33922,0.53529
7.88,0.3392,48.501,0.60802,0.33529,0.33922,0.5451
7.888,0.3392,48.305,0.60606,0.33922,0.34902,0.53529
7.896,0.34018,48.11,0.60313,0.3451,0.33922,0.53922
7.904,0.34018,47.914,0.6002,0.3549,0.34902,0.52941
7.912,0.34018,47.718,0.59824,0.3549,0.3549,0.52941
7.92,0.3392,47.327,0.59629,0.36471,0.3451,0.52941
7.928,0.33822,47.132,0.59433,0.37059,0.35882,0.52549
7.936,0.33627,46.936,0.59238,0.37451,0.34902,0.51961
7.944,0.33529,46.741,0.59042,0.37451,0.36471,0.52549
7.952,0.33333,46.545,0.58944,0.38431,0.34902,0.51569
7.96,0.33236,46.349,0.58749,0.3902,0.36471,0.51961
7.968,0.33138,46.154,0.58651,0.4,0.3549,0.5098
7.976,0.32942,46.741,0.58553,0.4098,0.37059,0.51569
7.984,0.32845,48.501,0.58358,0.41961,0.36471,0.50588
7.992,0.32649,52.412,0.5826,0.43529,0.38039,0.50588
8,0.32454,59.648,0.58162,0.44902,0.37059,0.5
8.008,0.32258,69.622,0.57869,0.46471,0.3902,0.49412
8.016,0.32063,80.965,0.57674,0.48039,0.38039,0.48039
8.024,0.31867,91.525,0.5738,0.49412,0.39412,0.48039
8.032,0.31672,99.739,0.57087,0.50588,0.3902,0.47059
8.04,0.31476,105.22,0.56696,0.51569,0.39412,0.46471
8.048,0.31281,107.76,0.56403,0.51961,0.3902,0.46078
8.056,0.31183,107.76,0.55914,0.51569,0.3902,0.46078
8.064,0.31085,106.19,0.55523,0.50588,0.38039,0.46471
8.072,0.30987,103.65,0.54839,0.4902,0.38431,0.47451
8.08,0.30792,101.3,0.54154,0.47059,0.37451,0.48431
8.088,0.30694,99.544,0.53372,0.4549,0.38039,0.4902
8.096,0.30499,98.761,0.52493,0.42941,0.37059,0.5
8.104,0.30303,98.37,0.51613,0.41961,0.38431,0.50588
8.112,0.30205,98.175,0.50831,0.4,0.3902,0.51569
8.12,0.3001,97.588,0.49951,0.3902,0.37451,0.51961
8.128,0.29912,96.415,0.49071,0.37451,0.38431,0.52941
8.136,0.29814,94.655,0.48094,0.37451,0.37059,0.53529
8.144,0.29717,92.894,0.47116,0.35882,0.38431,0.5451
8.152,0.29717,90.939,0.45943,0.36471,0.37059,0.5451
8.16,0.29717,88.983,0.44868,0.35882,0.38039,0.5549
8.168,0.29814,87.223,0.43695,0.3549,0.37059,0.5549
8.176,0.29912,85.658,0.42522,0.3549,0.38039,0.5549
8.184,0.3001,84.094,0.41349,0.34902,0.36471,0.5549
8.192,0.3001,82.725,0.40274,0.34902,0.37451,0.56078
8.2,0.30108,81.552,0.39198,0.34902,0.36471,0.5549
8.208,0.30108,80.378,0.38221,0.34902,0.37451,0.56078
8.216,0.30108,79.205,0.37243,0.34902,0.37059,0.5549
8.224,0.30205,78.227,0.36364,0.34902,0.38039,0.5549
8.232,0.30401,77.054,0.35484,0.33529,0.36471,0.57059
8.24,0.30792,76.076,0.34604,0.31373,0.35882,0.59608
8.248,0.31476,74.902,0.33822,0.31961,0.36471,0.58039
8.256,0.32454,73.729,0.32942,0.33529,0.37451,0.56471
8.264,0.33627,72.36,0.32356,0.34902,0.38039,0.5549
8.272,0.35386,70.991,0.31672,0.34902,0.37451,0.5549
8.28,0.37732,69.231,0.31183,0.3451,0.38431,0.5549
8.288,0.40469,67.471,0.30694,0.3451,0.38039,0.5549
8.296,0.435,65.711,0.30401,0.33529,0.3902,0.5549
8.304,0.4653,64.146,0.3001,0.33529,0.38039,0.56078
8.312,0.49462,62.777,0.29814,0.33922,0.3902,0.56471
8.32,0.52102,61.408,0.29717,0.33922,0.38039,0.5549
8.328,0.54448,60.43,0.29619,0.33529,0.38431,0.56078
8.336,0.56305,59.844,0.29619,0.32941,0.37451,0.56078
8.344,0.57771,59.257,0.29717,0.32941,0.3902,0.56471
8.352,0.58749,58.866,0.29717,0.33529,0.38039,0.56078
8.36,0.59335,58.475,0.29912,0.33529,0.3902,0.56471
8.368,0.59531,58.083,0.30108,0.32941,0.38039,0.56078
8.376,0.59531,57.497,0.30303,0.33529,0.3902,0.57059
8.384,0.59433,57.301,0.30596,0.33529,0.38039,0.56078
8.392,0.59042,57.106,0.3089,0.32941,0.3902,0.56471
8.4,0.58553,57.106,0.31183,0.32941,0.38039,0.56471
8.408,0.57869,57.301,0.31574,0.33529,0.3902,0.57059
8.416,0.57087,57.497,0.31867,0.33922,0.38431,0.56078
8.424,0.56207,57.888,0.3216,0.33529,0.3902,0.56471
8.432,0.55327,58.083,0.32356,0.33922,0.38039,0.5549
8.44,0.5435,58.475,0.32551,0.33922,0.3902,0.56471
8.448,0.53372,58.67,0.32747,0.33922,0.3902,0.5549
8.456,0.52493,59.061,0.32942,0.3549,0.39412,0.5451
8.464,0.51711,59.257,0.3304,0.37059,0.4,0.52941
8.472,0.50831,59.257,0.33138,0.38431,0.42549,0.53529
8.48,0.49853,59.257,0.33236,0.39412,0.43529,0.52549
8.488,0.48974,59.257,0.33236,0.4,0.4451,0.51961
8.496,0.47996,59.257,0.33333,0.40392,0.43529,0.51961
8.504,0.47019,59.061,0.33236,0.4,0.43529,0.52941
8.512,0.46139,58.866,0.33236,0.38431,0.4,0.52941
8.52,0.45259,58.67,0.33138,0.37451,0.38039,0.52941
8.528,0.44379,58.279,0.3304,0.3549,0.36471,0.53922
8.536,0.435,58.083,0.32845,0.34902,0.37059,0.55098
8.544,0.42717,57.692,0.32747,0.3451,0.38039,0.5549
8.552,0.41838,57.497,0.32551,0.32941,0.36471,0.57059
8.56,0.41153,57.106,0.32258,0.31961,0.37451,0.57451
8.568,0.40567,56.91,0.32063,0.31373,0.35882,0.57451
8.576,0.39785,56.715,0.31769,0.3098,0.36471,0.57451
8.584,0.39101,56.519,0.31476,0.3098,0.3549,0.57451
8.592,0.38319,56.128,0.31281,0.3098,0.36471,0.57451
8.6,0.37634,55.737,0.31085,0.30392,0.3451,0.57451
8.608,0.3695,55.346,0.3089,0.2902,0.34902,0.58039
8.616,0.36266,54.954,0.30694,0.37451,0.31373,0.51961
8.624,0.35679,54.563,0.30499,0.68627,0.3098,0.36471
8.632,0.35093,54.172,0.30303,0.92157,0.28431,0.22353
8.64,0.34604,53.977,0.30108,0.93725,0.34902,0.21961
8.648,0.34213,53.781,0.3001,0.57451,0.48039,0.4549
8.656,0.3392,53.39,0.29912,0.21373,0.5549,0.67647
8.664,0.33724,52.803,0.29912,0.20392,0.47451,0.68039
8.672,0.33529,52.412,0.29814,0.3,0.4098,0.59608
8.68,0.33431,52.021,0.29912,0.3098,0.35882,0.58039
8.688,0.33333,51.825,0.29912,0.3098,0.34902,0.57451
8.696,0.33333,51.63,0.3001,0.30392,0.33922,0.57451
8.704,0.33333,51.239,0.30108,0.30392,0.3451,0.57451
8.712,0.33431,51.043,0.30303,0.30392,0.34902,0.57451
8.72,0.33529,50.652,0.30499,0.3098,0.33922,0.57451
8.728,0.33724,50.261,0.3089,0.30392,0.3451,0.57451
8.736,0.3392,50.065,0.31183,0.30392,0.33922,0.58039
8.744,0.34115,49.674,0.31476,0.30392,0.3451,0.5902
8.752,0.34311,49.479,0.31769,0.30392,0.33922,0.58431
8.76,0.34506,49.087,0.32063,0.30392,0.3451,0.5902
8.768,0.34604,48.696,0.32356,0.30392,0.33922,0.58431
8.776,0.348,48.501,0.32747,0.30392,0.3451,0.5902
8.784,0.34897,48.305,0.33138,0.30392,0.33922,0.58431
8.792,0.34995,48.305,0.33529,0.30392,0.3451,0.58431
8.8,0.35093,48.11,0.34018,0.30392,0.33922,0.58039
8.808,0.35191,47.914,0.34506,0.3098,0.3451,0.58431
8.816,0.35191,47.718,0.34995,0.30392,0.33529,0.58039
8.824,0.35191,47.523,0.35484,0.31373,0.3451,0.58039
8.832,0.34995,47.132,0.3607,0.31373,0.33922,0.58039
8.84,0.348,46.936,0.36461,0.31961,0.34902,0.57451
8.848,0.34604,46.545,0.36852,0.32353,0.33922,0.56471
8.856,0.34506,46.349,0.37146,0.32941,0.3549,0.5549
8.864,0.34506,46.154,0.37537,0.33922,0.34902,0.5549
8.872,0.34311,46.154,0.3783,0.34902,0.36471,0.55098
8.88,0.34115,46.154,0.38123,0.32941,0.33922,0.56471
8.888,0.33822,45.958,0.38514,0.33922,0.34902,0.56078
8.896,0.33627,45.763,0.38807,0.3549,0.3451,0.55098
8.904,0.33333,45.567,0.39101,0.37451,0.35882,0.53529
8.912,0.3304,45.567,0.39492,0.3902,0.36471,0.52941
8.92,0.32747,46.154,0.39687,0.41569,0.35882,0.5098
8.928,0.32454,47.718,0.3998,0.42941,0.37059,0.5
8.936,0.32258,51.434,0.40176,0.44902,0.38039,0.48039
8.944,0.31965,58.083,0.40274,0.47059,0.38431,0.47059
8.952,0.31769,67.666,0.40274,0.4902,0.3902,0.46078
8.96,0.31672,78.618,0.40371,0.5098,0.39412,0.4451
8.968,0.31476,89.374,0.40274,0.52549,0.3902,0.43529
8.976,0.31281,97.784,0.40176,0.53922,0.4,0.42941
8.984,0.31085,103.65,0.39883,0.5549,0.39412,0.42549
8.992,0.3089,106.78,0.39687,0.5549,0.40392,0.42549
9,0.30694,107.56,0.39394,0.53922,0.38431,0.42549
9.008,0.30499,106.78,0.39198,0.52941,0.3902,0.43529
9.016,0.30303,104.82,0.38807,0.51569,0.38039,0.43529
9.024,0.30205,102.67,0.38416,0.4902,0.38431,0.44902
9.032,0.3001,100.91,0.38025,0.47451,0.37451,0.46078
9.04,0.29912,99.935,0.37537,0.4549,0.38431,0.47059
9.048,0.29912,99.153,0.37048,0.43529,0.37059,0.48039
9.056,0.29912,98.566,0.36559,0.41961,0.38039,0.4902
9.064,0.29912,97.588,0.35973,0.40392,0.36471,0.50588
9.072,0.29912,96.415,0.35484,0.4,0.38039,0.5098
9.08,0.29912,94.655,0.34897,0.38039,0.36471,0.52549
9.088,0.29912,92.503,0.34409,0.37451,0.37451,0.52941
9.096,0.3001,90.352,0.33724,0.35882,0.36471,0.53922
9.104,0.30108,88.201,0.33138,0.3549,0.36471,0.5451
9.112,0.30303,86.245,0.32356,0.34902,0.37059,0.5549
9.12,0.30499,84.485,0.31672,0.3451,0.35882,0.5549
9.128,0.30694,82.725,0.3089,0.33529,0.36471,0.56471
9.136,0.3089,81.356,0.30205,0.33529,0.3549,0.57059
9.144,0.31085,80.183,0.29521,0.32353,0.36471,0.57451
9.152,0.31281,79.205,0.28739,0.32353,0.34902,0.57451
9.16,0.31378,78.227,0.28152,0.32353,0.35882,0.57451
9.168,0.31476,77.249,0.27566,0.32353,0.34902,0.57451
9.176,0.31672,76.271,0.27077,0.32353,0.35882,0.57451
9.184,0.32063,75.098,0.26491,0.32941,0.3549,0.57059
9.192,0.32747,73.729,0.261,0.33529,0.36471,0.56471
9.2,0.3392,72.36,0.25611,0.32941,0.35882,0.56078
9.208,0.35777,71.186,0.2522,0.33529,0.37059,0.56078
9.216,0.38319,69.818,0.24927,0.3451,0.36471,0.55098
9.224,0.41544,68.253,0.24633,0.34902,0.37451,0.5451
9.232,0.45259,66.688,0.2434,0.34902,0.36471,0.53529
9.24,0.49365,64.928,0.24145,0.3549,0.38039,0.53529
9.248,0.53568,63.559,0.23949,0.3549,0.37059,0.52941
9.256,0.57185,62.386,0.23851,0.35882,0.38039,0.52941
9.264,0.60215,61.408,0.23754,0.35882,0.37451,0.53529
9.272,0.63245,60.43,0.23754,0.36471,0.38431,0.52941
9.28,0.65982,59.648,0.23754,0.35882,0.37059,0.52941
9.288,0.68231,58.67,0.23851,0.36471,0.38039,0.52941
9.296,0.69892,57.888,0.23949,0.3549,0.37451,0.53529
9.304,0.71065,57.301,0.24047,0.34902,0.37059,0.53922
9.312,0.7175,57.106,0.24242,0.34902,0.38039,0.5451
9.32,0.71945,56.91,0.24438,0.3451,0.37059,0.5451
9.328,0.71848,56.91,0.24536,0.33529,0.38431,0.5549
9.336,0.71457,56.91,0.24633,0.33529,0.37059,0.5549
9.344,0.7087,56.715,0.24829,0.32353,0.38039,0.56471
9.352,0.70088,56.715,0.24829,0.32353,0.36471,0.56471
9.36,0.69208,56.91,0.24927,0.31961,0.38039,0.57451
9.368,0.68133,57.301,0.25024,0.3098,0.36471,0.57451
9.376,0.66862,57.692,0.25122,0.30392,0.37059,0.5902
9.384,0.65591,58.083,0.2522,0.3098,0.35882,0.58039
9.392,0.64223,58.279,0.25318,0.31373,0.37059,0.58039
9.4,0.62854,58.475,0.25415,0.32941,0.36471,0.56471
9.408,0.61584,58.67,0.25513,0.34902,0.39412,0.5549
9.416,0.60215,58.67,0.25611,0.37059,0.4098,0.53529
9.424,0.58944,58.866,0.25806,0.38431,0.42549,0.52549
9.432,0.57771,59.061,0.25806,0.4,0.41961,0.5098
9.44,0.565,59.257,0.25904,0.40392,0.42941,0.51569
9.448,0.55327,59.257,0.25904,0.40392,0.40392,0.50588
9.456,0.54252,59.061,0.25904,0.4,0.3902,0.50588
9.464,0.53275,58.67,0.25806,0.3902,0.37059,0.50588
9.472,0.52102,58.279,0.25806,0.38431,0.38039,0.5098
9.48,0.51026,57.888,0.25709,0.3902,0.3902,0.5098
9.488,0.49853,57.692,0.25611,0.37451,0.38431,0.51961
9.496,0.48583,57.692,0.25415,0.36471,0.37451,0.52941
9.504,0.4741,57.497,0.25318,0.34902,0.37451,0.53922
9.512,0.46237,56.91,0.25122,0.3451,0.36471,0.55098
9.52,0.45064,56.323,0.25024,0.33922,0.36471,0.5549
9.528,0.43988,55.737,0.24829,0.33529,0.37059,0.56078
9.536,0.42913,55.346,0.24731,0.32353,0.35882,0.5549
9.544,0.41935,55.15,0.24536,0.30392,0.36471,0.57059
9.552,0.41056,55.15,0.24438,0.34902,0.32941,0.53529
9.56,0.40371,55.15,0.2434,0.5902,0.30392,0.4098
9.568,0.39589,54.954,0.24242,0.88627,0.28431,0.2451
9.576,0.38807,54.563,0.2434,0.92549,0.31373,0.22353
9.584,0.38123,53.781,0.2434,0.6902,0.43529,0.3902
9.592,0.37537,52.803,0.24536,0.2451,0.5549,0.66078
9.6,0.37146,52.412,0.24633,0.18431,0.4902,0.69608
9.608,0.36755,52.412,0.25024,0.27451,0.41961,0.62941
9.616,0.36559,52.803,0.25318,0.3,0.35882,0.6
9.624,0.36461,52.999,0.25806,0.3,0.3549,0.6
9.632,0.36461,52.999,0.26295,0.29412,0.33922,0.59608
9.64,0.36559,52.608,0.26784,0.30392,0.3451,0.5902
9.648,0.36657,52.021,0.27273,0.3098,0.33922,0.57451
9.656,0.3695,51.239,0.27761,0.31961,0.34902,0.56471
9.664,0.37146,50.652,0.2825,0.32941,0.33922,0.5549
9.672,0.37537,50.261,0.28837,0.33922,0.34902,0.5549
9.68,0.3783,50.261,0.29423,0.3451,0.3451,0.5451
9.688,0.38025,50.065,0.29912,0.3451,0.35882,0.55098
9.696,0.38319,50.065,0.30499,0.3451,0.3549,0.5451
9.704,0.38612,49.674,0.31085,0.34902,0.36471,0.53922
9.712,0.38807,49.087,0.31672,0.34902,0.3549,0.53922
9.72,0.38905,48.501,0.3216,0.34902,0.35882,0.53922
9.728,0.39003,47.914,0.32747,0.3451,0.34902,0.55098
9.736,0.39101,47.914,0.33236,0.3451,0.34902,0.55098
9.744,0.39198,47.914,0.33724,0.33529,0.35882,0.5549
9.752,0.39198,47.914,0.34311,0.33529,0.3451,0.5549
9.76,0.39296,47.914,0.348,0.32941,0.3549,0.56471
9.768,0.39296,47.523,0.35288,0.32941,0.3451,0.57059
9.776,0.39296,46.936,0.35777,0.32941,0.3549,0.57451
9.784,0.39198,46.545,0.36266,0.32941,0.3451,0.56471
9.792,0.39101,46.154,0.36755,0.33529,0.3549,0.57059
9.8,0.39003,45.958,0.37146,0.34902,0.3451,0.5549
9.808,0.38807,45.958,0.37537,0.35882,0.36471,0.5451
9.816,0.38612,45.958,0.37928,0.36471,0.35882,0.53529
9.824,0.38319,45.958,0.38319,0.38039,0.36471,0.52941
9.832,0.38123,45.958,0.38612,0.3902,0.36471,0.51961
9.84,0.3783,45.958,0.38905,0.4,0.37451,0.5098
9.848,0.37634,45.958,0.39101,0.41961,0.37059,0.5
9.856,0.37537,46.154,0.39296,0.42941,0.3902,0.49412
9.864,0.37341,47.327,0.39394,0.4451,0.38039,0.48039
9.872,0.37146,50.456,0.39492,0.46471,0.3902,0.48039
9.88,0.3695,56.128,0.39492,0.47059,0.39412,0.47059
9.888,0.36657,64.928,0.39492,0.4902,0.4,0.46471
9.896,0.36364,75.489,0.39296,0.50588,0.40392,0.46078
9.904,0.3607,86.05,0.39198,0.51569,0.4,0.4549
9.912,0.35777,95.046,0.39003,0.51961,0.4098,0.4451
9.92,0.35484,101.5,0.3871,0.52549,0.4,0.43922
9.928,0.35191,105.22,0.38319,0.52941,0.40392,0.44902
9.936,0.348,106.78,0.37928,0.51961,0.3902,0.44902
9.944,0.34506,106.39,0.37439,0.50588,0.38431,0.46078
9.952,0.34311,104.63,0.36852,0.48431,0.37451,0.47059
9.96,0.34115,102.48,0.36364,0.46471,0.38039,0.48039
9.968,0.3392,100.33,0.35777,0.4451,0.37059,0.49412
9.976,0.33627,99.153,0.35288,0.41961,0.37451,0.5098
9.984,0.33431,98.37,0.348,0.40392,0.36471,0.51569
9.992,0.33236,97.979,0.34311,0.38431,0.36471,0.52941
10,0.33138,97.588,0.33822,0.37451,0.36471,0.53529
10.008,0.33138,96.61,0.33431,0.37059,0.37059,0.5451
10.016,0.33138,95.046,0.32942,0.36471,0.36471,0.5451
10.024,0.33138,93.09,0.32551,0.3549,0.37059,0.5549
10.032,0.33236,90.939,0.32258,0.34902,0.36471,0.5549
10.04,0.33333,88.983,0.31867,0.34902,0.37059,0.5549
10.048,0.33529,87.027,0.31476,0.34902,0.36471,0.5451
10.056,0.33822,85.267,0.31183,0.3549,0.37059,0.55098
10.064,0.34115,83.703,0.3089,0.34902,0.36471,0.5451
10.072,0.34311,82.334,0.30596,0.34902,0.37451,0.55098
10.08,0.34506,81.16,0.30303,0.3549,0.36471,0.55098
10.088,0.34702,79.791,0.3001,0.35882,0.37059,0.55098
10.096,0.348,78.618,0.29814,0.3549,0.36471,0.5549
10.104,0.34897,77.64,0.29619,0.3549,0.37059,0.5451
10.112,0.35093,76.662,0.29423,0.3549,0.36471,0.55098
10.12,0.35386,75.489,0.29326,0.35882,0.37059,0.53922
10.128,0.3607,74.511,0.2913,0.35882,0.38039,0.53529
10.136,0.37341,73.338,0.29032,0.36471,0.37059,0.52941
10.144,0.39101,72.164,0.29032,0.35882,0.38431,0.52941
10.152,0.41153,70.795,0.29228,0.37059,0.37059,0.52941
10.16,0.43597,69.231,0.29423,0.35882,0.38431,0.52941
10.168,0.46921,67.471,0.29814,0.35882,0.37451,0.52941
10.176,0.50831,65.906,0.30205,0.36471,0.38431,0.52549
10.184,0.55034,64.342,0.30694,0.35882,0.37451,0.52549
10.192,0.59433,62.777,0.31183,0.3549,0.38431,0.52941
10.2,0.63636,61.604,0.31769,0.3549,0.38039,0.52941
10.208,0.67449,60.821,0.32356,0.3549,0.38431,0.52941
10.216,0.70772,60.039,0.33236,0.34902,0.37451,0.52549
10.224,0.73509,59.452,0.34115,0.36471,0.38431,0.52941
10.232,0.7566,59.061,0.35288,0.35882,0.38039,0.52549
10.24,0.77224,58.866,0.36364,0.36471,0.3902,0.52941
10.248,0.78299,58.475,0.37634,0.36471,0.38039,0.52549
10.256,0.78788,58.279,0.38905,0.36471,0.3902,0.52549
10.264,0.78886,57.888,0.40274,0.36471,0.38431,0.52549
10.272,0.7869,57.692,0.41642,0.36471,0.3902,0.52549
10.28,0.78201,57.692,0.42913,0.36471,0.38431,0.52549
10.288,0.77517,57.888,0.44184,0.37059,0.39412,0.52549
10.296,0.7654,58.083,0.45357,0.36471,0.38431,0.52941
10.304,0.75464,58.279,0.4653,0.36471,0.3902,0.51961
10.312,0.74194,58.67,0.47703,0.36471,0.38431,0.52549
10.32,0.72825,59.061,0.48876,0.37059,0.3902,0.51569
10.328,0.71457,59.257,0.50049,0.37059,0.39412,0.51961
10.336,0.70088,59.452,0.51222,0.38039,0.41569,0.5098
10.344,0.68719,59.648,0.52199,0.39412,0.42941,0.50588
10.352,0.67351,59.844,0.53275,0.4,0.43922,0.50588
10.36,0.66178,59.844,0.54154,0.4098,0.4451,0.5
10.368,0.64809,59.648,0.55034,0.41961,0.43922,0.5
10.376,0.63539,59.452,0.55816,0.4098,0.4451,0.50588
10.384,0.6217,59.257,0.56598,0.39412,0.4,0.5098
10.392,0.60899,59.257,0.5738,0.38039,0.38431,0.51569
10.4,0.59629,59.061,0.58162,0.37059,0.36471,0.51961
10.408,0.58358,59.061,0.58944,0.37059,0.37451,0.52941
10.416,0.57087,58.866,0.59726,0.35882,0.37059,0.52941
10.424,0.55816,58.67,0.60411,0.3451,0.37451,0.5451
10.432,0.54545,58.279,0.61193,0.33529,0.36471,0.53922
10.44,0.53372,57.888,0.61779,0.32353,0.36471,0.5549
10.448,0.52102,57.692,0.62366,0.29412,0.33922,0.58039
10.456,0.51124,57.497,0.62854,0.29412,0.3451,0.5902
10.464,0.50147,57.106,0.63343,0.29412,0.33922,0.58039
10.472,0.49169,56.91,0.6393,0.2902,0.3451,0.58431
10.48,0.48094,56.519,0.64418,0.26863,0.33529,0.59608
10.488,0.47214,56.128,0.65005,0.37451,0.3098,0.52941
10.496,0.46237,55.737,0.65591,0.71569,0.27843,0.3549
10.504,0.45455,55.346,0.6608,0.91176,0.26863,0.2451
10.512,0.44575,54.954,0.66569,0.87059,0.32353,0.27843
10.52,0.43891,54.563,0.67155,0.46471,0.48039,0.52941
10.528,0.43206,54.172,0.67644,0.14902,0.53529,0.71569
10.536,0.42522,53.977,0.68328,0.2,0.44902,0.68627
10.544,0.42033,53.781,0.68915,0.2451,0.38039,0.6451
10.552,0.4174,53.39,0.69697,0.2451,0.33922,0.6451
10.56,0.41544,52.999,0.70479,0.23922,0.33529,0.65098
10.568,0.41447,52.608,0.71359,0.2451,0.32941,0.6451
10.576,0.41349,52.412,0.72336,0.24902,0.33529,0.63529
10.584,0.41447,52.216,0.73314,0.25882,0.31961,0.62549
10.592,0.41544,51.825,0.74291,0.26863,0.32941,0.61569
10.6,0.41838,51.63,0.75171,0.27843,0.32353,0.6
10.608,0.42131,51.239,0.76149,0.28431,0.33922,0.59608
10.616,0.42424,50.847,0.77028,0.3,0.32941,0.58039
10.624,0.42815,50.652,0.77908,0.3098,0.33922,0.57059
10.632,0.43206,50.456,0.78983,0.31961,0.33529,0.5549
10.64,0.435,50.261,0.80156,0.32353,0.3451,0.5549
10.648,0.43793,49.87,0.81329,0.33529,0.33922,0.53922
10.656,0.44086,49.674,0.826,0.33922,0.3451,0.53529
10.664,0.44282,49.479,0.83675,0.3451,0.33922,0.52941
10.672,0.44477,49.087,0.84751,0.34902,0.34902,0.52941
10.68,0.44575,48.892,0.85826,0.34902,0.33922,0.52941
10.688,0.4477,48.696,0.86804,0.3549,0.34902,0.52549
10.696,0.4477,48.501,0.87879,0.35882,0.3451,0.52941
10.704,0.44868,48.501,0.88856,0.37059,0.3549,0.52549
10.712,0.44868,48.305,0.89834,0.37451,0.34902,0.51961
10.72,0.4477,48.11,0.90909,0.37451,0.3451,0.51569
10.728,0.44673,47.718,0.91789,0.37451,0.3549,0.5098
10.736,0.44477,47.523,0.92766,0.3902,0.34902,0.50588
10.744,0.44282,47.327,0.93548,0.39412,0.35882,0.5098
10.752,0.44086,47.132,0.94428,0.4,0.3549,0.50588
10.76,0.43891,46.936,0.95015,0.4,0.36471,0.50588
10.768,0.43695,46.741,0.95699,0.41569,0.36471,0.49412
10.776,0.435,46.545,0.9609,0.41961,0.37059,0.5
10.784,0.43304,46.741,0.96579,0.43529,0.36471,0.48431
10.792,0.43011,47.523,0.96676,0.4451,0.37451,0.48039
10.8,0.42717,50.065,0.96872,0.4549,0.37059,0.47451
10.808,0.42326,55.346,0.96872,0.47451,0.38431,0.46078
10.816,0.42033,63.755,0.96872,0.49412,0.38039,0.4549
10.824,0.41642,74.316,0.96676,0.5098,0.3902,0.44902
10.832,0.41349,85.463,0.96481,0.52549,0.38431,0.43529
10.84,0.40958,95.046,0.9609,0.53529,0.39412,0.43922
10.848,0.40762,102.09,0.95601,0.5451,0.3902,0.42941
10.856,0.40469,106.19,0.94819,0.5549,0.39412,0.43529
10.864,0.40274,107.56,0.94135,0.55098,0.38039,0.43529
10.872,0.3998,107.17,0.92962,0.53529,0.3902,0.44902
10.88,0.38612,105.22,0.91887,0.5098,0.37059,0.4549
10.888,0.36559,103.06,0.90616,0.4902,0.37059,0.47059
10.896,0.35484,101.11,0.89247,0.46078,0.36471,0.48039
10.904,0.348,99.739,0.87781,0.43922,0.35882,0.5
10.912,0.34409,98.761,0.86315,0.41569,0.36471,0.5098
10.92,0.34115,98.175,0.84848,0.4,0.35882,0.52549
10.928,0.3392,97.393,0.83382,0.38039,0.36471,0.53529
10.936,0.33822,96.415,0.81916,0.36471,0.34902,0.5451
10.944,0.33724,94.85,0.8045,0.3549,0.35882,0.5549
10.952,0.33724,93.09,0.78886,0.34902,0.3549,0.56078
10.96,0.33822,91.33,0.77419,0.33922,0.36471,0.57451
10.968,0.3392,89.57,0.75855,0.33529,0.34902,0.57451
10.976,0.34018,87.614,0.74291,0.32941,0.35882,0.58039
10.984,0.34115,86.05,0.72727,0.32941,0.34902,0.57451
10.992,0.34213,84.485,0.71261,0.33529,0.35882,0.58039
11,0.34409,83.116,0.69892,0.33529,0.3549,0.57451
11.008,0.34506,81.943,0.68524,0.33529,0.36471,0.58039
11.016,0.34604,80.965,0.67058,0.3451,0.3549,0.57451
11.024,0.34702,79.987,0.65689,0.33922,0.36471,0.58039
11.032,0.348,78.814,0.64223,0.33922,0.35882,0.57451
11.04,0.34995,77.836,0.62757,0.33922,0.36471,0.57451
11.048,0.35191,76.858,0.61388,0.33922,0.3549,0.57059
11.056,0.35679,75.685,0.60117,0.33922,0.36471,0.57059
11.064,0.36559,74.511,0.58847,0.33922,0.35882,0.56078
11.072,0.38025,73.338,0.57576,0.3451,0.37059,0.56471
11.08,0.40274,71.969,0.565,0.3451,0.36471,0.5549
11.088,0.43206,70.6,0.55425,0.34902,0.37059,0.5549
11.096,0.46921,68.84,0.54545,0.3451,0.36471,0.5549
11.104,0.51222,67.08,0.53666,0.34902,0.37059,0.55098
11.112,0.55816,65.515,0.52981,0.3451,0.37451,0.5451
11.12,0.60606,63.95,0.52199,0.34902,0.36471,0.53922
11.128,0.652,62.777,0.51613,0.3451,0.38039,0.55098
11.136,0.69501,61.604,0.50929,0.34902,0.37059,0.53922
11.144,0.73216,60.821,0.5044,0.34902,0.38039,0.5451
11.152,0.75855,60.235,0.49951,0.3549,0.37059,0.53529
11.16,0.77713,59.648,0.4956,0.34902,0.38039,0.53922
11.168,0.79374,59.257,0.49169,0.35882,0.37059,0.53529
11.176,0.80547,58.67,0.48778,0.35882,0.38039,0.53529
11.184,0.81232,58.279,0.48387,0.35882,0.37059,0.52941
11.192,0.81427,57.888,0.48094,0.3549,0.37451,0.53529
11.2,0.81232,57.692,0.47703,0.35882,0.37059,0.52941
11.208,0.80743,57.497,0.4741,0.35882,0.38039,0.52941
11.216,0.79961,57.497,0.47019,0.36471,0.37059,0.52941
11.224,0.78983,57.497,0.46725,0.36471,0.38039,0.52941
11.232,0.77713,57.692,0.46432,0.36471,0.36471,0.52549
11.24,0.76344,57.888,0.46139,0.35882,0.38039,0.52941
11.248,0.74976,58.083,0.45748,0.36471,0.37059,0.52549
11.256,0.73509,58.279,0.45455,0.36471,0.38039,0.52941
11.264,0.72043,58.475,0.45161,0.37059,0.37451,0.52549
11.272,0.70479,58.67,0.4477,0.37451,0.3902,0.52549
11.28,0.68915,58.866,0.44477,0.38039,0.40392,0.51569
11.288,0.67351,59.061,0.44086,0.38431,0.41961,0.52941
11.296,0.65885,58.866,0.43695,0.39412,0.42941,0.51961
11.304,0.64321,58.866,0.43304,0.40392,0.43529,0.51961
11.312,0.62854,58.67,0.42913,0.40392,0.41961,0.52549
11.32,0.61388,58.475,0.42522,0.39412,0.41569,0.52941
11.328,0.6002,58.279,0.42229,0.38039,0.38431,0.52941
11.336,0.58553,58.279,0.41838,0.36471,0.36471,0.52941
11.344,0.57185,58.083,0.41544,0.34902,0.36471,0.55098
11.352,0.55816,57.888,0.41251,0.34902,0.36471,0.5549
11.36,0.54545,57.497,0.4086,0.33529,0.37059,0.56471
11.368,0.53177,57.106,0.40567,0.32941,0.3549,0.57059
11.376,0.51808,56.91,0.40176,0.31961,0.36471,0.58039
11.384,0.50342,56.519,0.39785,0.31961,0.34902,0.57451
11.392,0.48974,56.323,0.39394,0.31373,0.35882,0.58039
11.4,0.47605,55.932,0.39101,0.32353,0.3549,0.57451
11.408,0.46237,55.541,0.38807,0.32353,0.35882,0.58431
11.416,0.44868,55.346,0.38514,0.30392,0.3451,0.5902
11.424,0.43597,54.954,0.38221,0.3,0.3549,0.59608
11.432,0.42424,54.563,0.38025,0.50588,0.30392,0.46471
11.44,0.41251,54.368,0.37732,0.85686,0.3098,0.28431
11.448,0.40371,53.977,0.37537,0.95686,0.29412,0.22353
11.456,0.39492,53.781,0.37243,0.81569,0.4098,0.33529
11.464,0.3871,53.39,0.37048,0.3549,0.5451,0.6098
11.472,0.37928,52.999,0.36852,0.20392,0.56471,0.69608
11.48,0.37341,52.608,0.36657,0.27451,0.4451,0.63529
11.488,0.36755,52.216,0.36559,0.30392,0.3902,0.60588
11.496,0.36364,52.021,0.36461,0.3098,0.3549,0.6
11.504,0.35973,51.63,0.36364,0.30392,0.34902,0.59608
11.512,0.35777,51.239,0.36364,0.30392,0.33922,0.58431
11.52,0.35679,51.043,0.36364,0.3098,0.33922,0.58039
11.528,0.35679,50.652,0.36461,0.3098,0.33529,0.58431
11.536,0.35679,50.456,0.36461,0.3098,0.33922,0.58039
11.544,0.35777,50.065,0.36559,0.3098,0.3451,0.58431
11.552,0.35973,49.674,0.36657,0.31961,0.33529,0.57451
11.56,0.3607,49.479,0.36657,0.3098,0.34902,0.58039
11.568,0.36168,49.087,0.36755,0.32353,0.3451,0.57059
11.576,0.36364,48.892,0.36852,0.32353,0.3549,0.57451
11.584,0.36461,48.696,0.36852,0.33529,0.34902,0.56471
11.592,0.36461,48.501,0.3695,0.3451,0.36471,0.5549
11.6,0.36559,48.305,0.37048,0.34902,0.35882,0.55098
11.608,0.36559,48.11,0.37146,0.37059,0.37059,0.52941
11.616,0.36657,47.914,0.37243,0.38431,0.36471,0.50588
11.624,0.36657,47.718,0.37341,0.37451,0.37059,0.51569
11.632,0.36559,47.523,0.37439,0.37451,0.3549,0.51961
11.64,0.36559,47.132,0.37439,0.36471,0.35882,0.52941
11.648,0.36461,46.936,0.37537,0.36471,0.3451,0.52549
11.656,0.36461,46.741,0.37732,0.35882,0.34902,0.52941
11.664,0.36266,46.545,0.3783,0.35882,0.33922,0.52941
11.672,0.36168,46.349,0.38025,0.35882,0.33922,0.52549
11.68,0.35973,46.154,0.38319,0.35882,0.33922,0.52549
11.688,0.35679,45.763,0.38416,0.36471,0.34902,0.51961
11.696,0.35386,45.567,0.38612,0.36471,0.33922,0.52549
11.704,0.34995,45.372,0.3871,0.37059,0.34902,0.51961
11.712,0.34702,45.372,0.38807,0.37451,0.33922,0.52549
11.72,0.34311,45.176,0.38905,0.38039,0.34902,0.51569
11.728,0.34018,45.372,0.38905,0.39412,0.3549,0.50588
11.736,0.33627,46.154,0.39003,0.40392,0.34902,0.50588
11.744,0.33333,48.501,0.39003,0.42941,0.36471,0.4902
11.752,0.3304,53.585,0.39003,0.4451,0.3549,0.48039
11.76,0.32845,61.408,0.38905,0.46471,0.36471,0.46471
11.768,0.32551,71.578,0.38807,0.48431,0.36471,0.46078
11.776,0.32356,82.725,0.3871,0.49412,0.37451,0.4549
11.784,0.32063,92.308,0.38612,0.51569,0.37059,0.43922
11.792,0.31769,99.544,0.38416,0.51961,0.38431,0.43922
11.8,0.31476,103.85,0.38221,0.52549,0.37059,0.43529
11.808,0.31183,105.61,0.38025,0.51569,0.37451,0.4451
11.816,0.3089,105.61,0.37537,0.50588,0.36471,0.4451
11.824,0.30694,104.24,0.37146,0.48431,0.36471,0.46078
11.832,0.30401,102.48,0.36559,0.46471,0.3549,0.47451
11.84,0.30108,100.52,0.35875,0.4451,0.36471,0.4902
11.848,0.3001,99.153,0.35093,0.41961,0.3549,0.50588
11.856,0.29912,98.175,0.34213,0.4,0.36471,0.52549
11.864,0.29814,97.588,0.33236,0.38039,0.3451,0.52941
11.872,0.29717,96.61,0.32258,0.36471,0.35882,0.5451
11.88,0.29619,95.437,0.31281,0.34902,0.34902,0.55098
11.888,0.29521,93.677,0.30303,0.3451,0.35882,0.56078
11.896,0.29423,91.721,0.29228,0.3451,0.34902,0.56471
11.904,0.29423,89.765,0.2825,0.33529,0.35882,0.56078
11.912,0.29423,87.614,0.27175,0.32941,0.3451,0.56471
11.92,0.29423,85.658,0.261,0.32941,0.34902,0.56471
11.928,0.29521,83.898,0.25024,0.32353,0.3549,0.57451
11.936,0.29717,82.529,0.23851,0.32353,0.33922,0.56471
11.944,0.29814,81.16,0.22972,0.32941,0.34902,0.56471
11.952,0.3001,79.987,0.21994,0.32941,0.33922,0.56471
11.96,0.30205,79.009,0.21114,0.32941,0.34902,0.56471
11.968,0.30303,78.031,0.20332,0.33922,0.3451,0.5549
11.976,0.30499,77.054,0.1955,0.33922,0.3549,0.56078
11.984,0.30694,76.271,0.18768,0.3451,0.3549,0.5549
11.992,0.30987,75.098,0.17986,0.33922,0.36471,0.56078
12,0.31476,74.12,0.17204,0.3451,0.3549,0.5549
12.008,0.32551,72.947,0.16618,0.34902,0.36471,0.5549
12.016,0.34115,71.773,0.15934,0.34902,0.36471,0.55098
12.024,0.36559,70.404,0.15445,0.33529,0.36471,0.56471
12.032,0.39785,68.84,0.15054,0.32353,0.34902,0.57059
12.04,0.43793,67.275,0.14663,0.32353,0.36471,0.56471
12.048,0.47801,65.515,0.1437,0.32941,0.3549,0.5549
12.056,0.51808,63.95,0.14272,0.33529,0.36471,0.5549
12.064,0.56598,62.386,0.14076,0.32941,0.34902,0.5549
12.072,0.61584,61.213,0.14076,0.33529,0.36471,0.5549
12.08,0.66471,60.235,0.14174,0.33922,0.35882,0.55098
12.088,0.70968,59.452,0.14467,0.34902,0.36471,0.5451
12.096,0.7478,58.866,0.14663,0.34902,0.36471,0.53922
12.104,0.77908,58.279,0.14956,0.34902,0.36471,0.5451
12.112,0.80352,57.888,0.15249,0.3451,0.37059,0.55098
12.12,0.82111,57.301,0.15543,0.34902,0.36471,0.5451
12.128,0.83089,56.91,0.15836,0.33922,0.37059,0.55098
12.136,0.8348,56.715,0.16325,0.3451,0.36471,0.53922
12.144,0.83284,56.519,0.16716,0.33922,0.37451,0.55098
12.152,0.82698,56.519,0.17204,0.3451,0.36471,0.5451
12.16,0.81818,56.519,0.17693,0.33922,0.37451,0.55098
12.168,0.80547,56.715,0.18084,0.3451,0.37059,0.5451
12.176,0.79179,56.91,0.18475,0.33922,0.37451,0.55098
12.184,0.77615,57.106,0.18866,0.3451,0.37059,0.5451
12.192,0.75953,57.301,0.19159,0.3451,0.38039,0.55098
12.2,0.74194,57.497,0.19453,0.34902,0.38039,0.5451
12.208,0.72336,57.692,0.19648,0.3549,0.3902,0.53529
12.216,0.70479,57.888,0.19844,0.37451,0.39412,0.52941
12.224,0.68622,57.888,0.20137,0.38039,0.41961,0.52941
12.232,0.66764,57.888,0.20235,0.39412,0.41961,0.51961
12.24,0.65005,57.888,0.2043,0.4,0.43529,0.52549
12.248,0.63441,57.888,0.20626,0.4,0.41961,0.51961
12.256,0.61877,57.888,0.20723,0.3902,0.42549,0.52941
12.264,0.60313,57.692,0.20821,0.37451,0.38431,0.52941
12.272,0.58749,57.692,0.20919,0.36471,0.37059,0.52941
12.28,0.57087,57.301,0.20919,0.3549,0.3549,0.52941
12.288,0.55523,57.106,0.20919,0.3549,0.37059,0.53922
12.296,0.53959,56.91,0.20919,0.34902,0.36471,0.55098
12.304,0.52395,56.715,0.20919,0.33529,0.36471,0.5549
12.312,0.50831,56.519,0.20821,0.32353,0.3549,0.56471
12.32,0.49267,56.128,0.20723,0.32353,0.36471,0.56471
12.328,0.47703,55.932,0.20626,0.32353,0.3549,0.56471
12.336,0.46237,55.541,0.20626,0.32353,0.34902,0.56078
12.344,0.4477,55.346,0.20528,0.32353,0.36471,0.56471
12.352,0.435,54.954,0.2043,0.31961,0.34902,0.56078
12.36,0.42424,54.563,0.20332,0.30392,0.3549,0.57059
12.368,0.41251,54.368,0.20235,0.44902,0.3098,0.48039
12.376,0.40078,53.977,0.20235,0.8,0.3,0.29412
12.384,0.38905,53.781,0.20235,0.94706,0.2902,0.2
12.392,0.37928,53.39,0.20332,0.88039,0.37451,0.26863
12.4,0.3695,52.999,0.20332,0.46078,0.51961,0.51961
12.408,0.3607,52.608,0.2043,0.20392,0.56078,0.67647
12.416,0.35386,52.216,0.20528,0.26471,0.4549,0.62549
12.424,0.34702,51.825,0.20723,0.30392,0.39412,0.5902
12.432,0.34213,51.63,0.20919,0.3098,0.35882,0.58039
12.44,0.33822,51.434,0.21017,0.31373,0.35882,0.57451
12.448,0.33529,51.043,0.21212,0.30392,0.33922,0.57451
12.456,0.33431,50.847,0.21505,0.3098,0.3451,0.57451
12.464,0.33431,50.456,0.21799,0.3098,0.33922,0.57451
12.472,0.33431,50.065,0.22092,0.31373,0.33922,0.57059
12.48,0.33627,49.87,0.22385,0.31373,0.33529,0.57451
12.488,0.33822,49.479,0.22776,0.31961,0.34902,0.56471
12.496,0.34018,49.283,0.23265,0.31373,0.33922,0.57059
12.504,0.34213,49.087,0.23656,0.32353,0.34902,0.56471
12.512,0.34409,48.696,0.24145,0.32353,0.3451,0.56078
12.52,0.34702,48.305,0.24536,0.32353,0.34902,0.56078
12.528,0.34897,48.11,0.25024,0.32353,0.3549,0.56078
12.536,0.35093,47.914,0.25415,0.32941,0.3451,0.56078
12.544,0.35191,47.718,0.25806,0.33529,0.3549,0.5549
12.552,0.35386,47.523,0.26197,0.33922,0.34902,0.5549
12.56,0.35582,47.327,0.26686,0.33529,0.3549,0.5549
12.568,0.35679,47.132,0.27175,0.33529,0.3451,0.5549
12.576,0.35679,46.936,0.27664,0.33922,0.3549,0.5549
12.584,0.35679,46.545,0.28055,0.3451,0.3451,0.5549
12.592,0.35679,46.349,0.28543,0.3451,0.35882,0.5549
12.6,0.35484,46.154,0.28837,0.34902,0.3549,0.5451
12.608,0.35288,45.763,0.2913,0.34902,0.36471,0.55098
12.616,0.35093,45.567,0.29423,0.3549,0.3549,0.5451
12.624,0.348,45.372,0.29814,0.35882,0.36471,0.5451
12.632,0.34506,45.372,0.30205,0.3549,0.35882,0.55098
12.64,0.34311,45.176,0.30499,0.37451,0.36471,0.53922
12.648,0.34115,45.176,0.3089,0.38039,0.36471,0.53529
12.656,0.3392,44.98,0.31183,0.3902,0.37059,0.53529
12.664,0.33627,44.98,0.31476,0.4,0.36471,0.52549
12.672,0.33333,45.372,0.31867,0.41961,0.37451,0.51961
12.68,0.3304,47.327,0.32063,0.42549,0.37451,0.50588
12.688,0.32649,51.434,0.32356,0.4451,0.38431,0.5
12.696,0.32356,58.475,0.32454,0.4549,0.38431,0.4902
12.704,0.32063,68.057,0.32649,0.47451,0.3902,0.48431
12.712,0.31672,79.009,0.32649,0.48431,0.3902,0.48039
12.72,0.31378,88.983,0.32649,0.50588,0.3902,0.47059
12.728,0.31085,97.197,0.32551,0.5098,0.39412,0.46471
12.736,0.30792,102.28,0.32454,0.51961,0.3902,0.46078
12.744,0.30596,104.82,0.32258,0.51569,0.39412,0.46471
12.752,0.30401,105.22,0.32063,0.5,0.38431,0.47059
12.76,0.30205,103.85,0.31769,0.48431,0.3902,0.48039
12.768,0.29912,101.69,0.31476,0.47059,0.37451,0.48431
12.776,0.29717,99.544,0.30987,0.4451,0.38431,0.5
12.784,0.29521,97.784,0.30596,0.42941,0.37451,0.50588
12.792,0.29326,96.415,0.3001,0.4098,0.38039,0.52549
12.8,0.2913,95.437,0.29423,0.4,0.36471,0.52941
12.808,0.28935,94.459,0.28739,0.38431,0.38039,0.53529
12.816,0.28837,93.286,0.27957,0.37451,0.37059,0.53922
12.824,0.28739,91.917,0.27175,0.37059,0.37451,0.5549
12.832,0.28739,90.352,0.26295,0.36471,0.37059,0.55098
12.84,0.28641,88.592,0.25611,0.36471,0.38039,0.5549
12.848,0.28739,86.832,0.24829,0.35882,0.36471,0.55098
12.856,0.28837,85.267,0.24145,0.36471,0.38039,0.5549
12.864,0.28935,83.703,0.2346,0.35882,0.37059,0.5451
12.872,0.29032,82.334,0.22874,0.37059,0.38039,0.53922
12.88,0.2913,81.16,0.2219,0.36471,0.37059,0.53922
12.888,0.29228,80.378,0.21603,0.36471,0.37451,0.53922
12.896,0.29423,79.4,0.21017,0.35882,0.36471,0.5451
12.904,0.29521,78.422,0.2043,0.36471,0.37059,0.53922
12.912,0.29619,77.445,0.19941,0.3549,0.36471,0.5451
12.92,0.29717,76.662,0.1955,0.35882,0.37059,0.53922
12.928,0.28935,75.489,0.19159,0.3549,0.37451,0.55098
12.936,0.27957,74.316,0.18768,0.35882,0.37059,0.53529
12.944,0.27957,72.947,0.18475,0.35882,0.38039,0.53922
12.952,0.28641,71.578,0.18182,0.3549,0.37059,0.53922
12.96,0.30205,70.013,0.17889,0.36471,0.38039,0.5451
12.968,0.32649,68.449,0.17791,0.35882,0.37059,0.53922
12.976,0.35875,66.884,0.17595,0.34902,0.38039,0.55098
12.984,0.3998,65.319,0.17595,0.3549,0.37059,0.53922
12.992,0.44673,63.755,0.17595,0.34902,0.38039,0.55098
13,0.4956,62.386,0.17693,0.34902,0.37059,0.55098
13.008,0.54545,61.017,0.17791,0.34902,0.38431,0.5549
13.016,0.59238,59.844,0.17889,0.34902,0.37451,0.5549
13.024,0.63539,59.061,0.18084,0.34902,0.38039,0.5549
13.032,0.67253,58.279,0.1828,0.34902,0.37059,0.55098
13.04,0.70283,57.888,0.18573,0.3451,0.38039,0.5549
13.048,0.72239,57.301,0.18964,0.33922,0.37059,0.5549
13.056,0.73509,56.91,0.19355,0.3451,0.38039,0.5549
13.064,0.74389,56.519,0.19746,0.33922,0.37451,0.5549
13.072,0.74878,56.128,0.20137,0.34902,0.3902,0.5549
13.08,0.74878,55.932,0.20528,0.3451,0.38039,0.5549
13.088,0.74487,55.932,0.20919,0.33922,0.38431,0.5549
13.096,0.73803,55.932,0.2131,0.33529,0.38039,0.5549
13.104,0.72727,56.128,0.21701,0.33529,0.3902,0.5549
13.112,0.71457,56.323,0.22092,0.33529,0.38431,0.56078
13.12,0.70088,56.519,0.22483,0.33922,0.38039,0.5549
13.128,0.68524,56.91,0.22776,0.33922,0.38431,0.56078
13.136,0.66862,57.106,0.23069,0.3451,0.38039,0.5549
13.144,0.652,57.497,0.23363,0.33922,0.3902,0.56471
13.152,0.63636,57.692,0.23558,0.34902,0.38431,0.5549
13.16,0.62072,57.888,0.23754,0.34902,0.39412,0.5451
13.168,0.60411,58.083,0.23949,0.37059,0.40392,0.53529
13.176,0.58749,58.083,0.24047,0.37451,0.42549,0.53529
13.184,0.57185,58.083,0.24242,0.39412,0.43529,0.52549
13.192,0.55621,58.083,0.24242,0.4,0.4451,0.51961
13.2,0.54057,57.888,0.2434,0.4098,0.43529,0.5098
13.208,0.52493,57.692,0.24242,0.41569,0.43529,0.52549
13.216,0.51026,57.497,0.24242,0.39412,0.39412,0.51961
13.224,0.49462,57.301,0.24242,0.38431,0.38431,0.52941
13.232,0.47996,57.106,0.24242,0.37059,0.36471,0.52941
13.24,0.46432,56.91,0.24242,0.35882,0.38431,0.53922
13.248,0.45161,56.519,0.24242,0.34902,0.37059,0.55098
13.256,0.43891,56.323,0.24145,0.33922,0.38039,0.5549
13.264,0.42522,55.932,0.24047,0.32941,0.36471,0.5549
13.272,0.41056,55.737,0.23851,0.33529,0.37451,0.5549
13.28,0.39589,55.346,0.23656,0.32941,0.36471,0.5549
13.288,0.38221,55.15,0.23558,0.33529,0.37059,0.5549
13.296,0.36852,54.759,0.23363,0.33529,0.35882,0.55098
13.304,0.35679,54.368,0.23265,0.32941,0.36471,0.55098
13.312,0.34409,54.172,0.23265,0.31961,0.3549,0.5549
13.32,0.33333,53.781,0.23167,0.4451,0.32353,0.47451
13.328,0.32258,53.39,0.23167,0.79608,0.3098,0.2902
13.336,0.31281,53.194,0.23265,0.96667,0.3,0.17843
13.344,0.30596,52.803,0.23363,0.90588,0.37451,0.23922
13.352,0.3001,52.412,0.23558,0.4902,0.52941,0.49412
13.36,0.29521,52.216,0.23754,0.2098,0.57451,0.6549
13.368,0.29032,51.825,0.24047,0.27843,0.47059,0.60588
13.376,0.28641,51.434,0.2434,0.31373,0.4,0.57451
13.384,0.28446,51.239,0.24731,0.32353,0.36471,0.56078
13.392,0.2825,50.847,0.25122,0.31961,0.35882,0.56471
13.4,0.28348,50.652,0.25513,0.31961,0.3451,0.5549
13.408,0.28446,50.456,0.25904,0.31961,0.34902,0.56078
13.416,0.28641,50.065,0.26491,0.32353,0.33922,0.5549
13.424,0.28837,49.674,0.27077,0.31961,0.3451,0.5549
13.432,0.29032,49.479,0.27859,0.2902,0.32941,0.57451
13.44,0.29326,49.283,0.28641,0.29412,0.33922,0.57451
13.448,0.29619,49.087,0.29521,0.3,0.33529,0.57059
13.456,0.29912,48.696,0.30499,0.30392,0.33922,0.57059
13.464,0.30205,48.501,0.31574,0.3098,0.33922,0.5549
13.472,0.30499,48.305,0.32747,0.31373,0.3451,0.5549
13.48,0.30694,47.914,0.33822,0.31373,0.33922,0.55098
13.488,0.3089,47.718,0.348,0.32353,0.3451,0.5451
13.496,0.31085,47.718,0.35777,0.32353,0.3451,0.55098
13.504,0.31183,47.523,0.36852,0.32941,0.3549,0.5451
13.512,0.31183,47.327,0.37928,0.33529,0.35882,0.53922
13.52,0.31183,47.132,0.39003,0.3451,0.34902,0.53529
13.528,0.31085,46.936,0.40078,0.34902,0.35882,0.53922
13.536,0.30987,46.545,0.41251,0.34902,0.34902,0.53529
13.544,0.3089,46.545,0.42326,0.3451,0.35882,0.53922
13.552,0.30792,46.349,0.43304,0.3549,0.34902,0.52941
13.56,0.30596,46.154,0.44282,0.35882,0.36471,0.52941
13.568,0.30303,46.154,0.45357,0.36471,0.35882,0.52549
13.576,0.30108,45.958,0.46432,0.36471,0.36471,0.52549
13.584,0.29814,45.763,0.47605,0.37451,0.35882,0.51569
13.592,0.29521,45.567,0.48876,0.38039,0.36471,0.5098
13.6,0.29228,45.567,0.50049,0.3902,0.35882,0.50588
13.608,0.28935,45.372,0.5132,0.4,0.37059,0.50588
13.616,0.28641,45.372,0.5259,0.41569,0.36471,0.49412
13.624,0.28348,46.154,0.53763,0.41961,0.37451,0.49412
13.632,0.27957,48.11,0.54936,0.4451,0.37059,0.47451
13.64,0.27664,52.803,0.56012,0.4549,0.38431,0.47059
13.648,0.27468,60.43,0.57087,0.47059,0.38039,0.46078
13.656,0.27273,70.6,0.57967,0.4902,0.3902,0.4549
13.664,0.27077,81.943,0.58847,0.50588,0.3902,0.4451
13.672,0.26882,91.917,0.59531,0.51961,0.39412,0.43529
13.68,0.26686,99.739,0.60215,0.52941,0.3902,0.43529
13.688,0.26491,104.43,0.60802,0.53922,0.3902,0.43529
13.696,0.26197,106.58,0.61388,0.53529,0.38431,0.43529
13.704,0.26002,106.39,0.61779,0.51961,0.38039,0.43529
13.712,0.25806,104.63,0.62268,0.50588,0.37059,0.43922
13.72,0.25709,102.28,0.62561,0.4902,0.36471,0.4549
13.728,0.25513,99.935,0.62854,0.47059,0.37059,0.46471
13.736,0.25318,97.979,0.62952,0.4451,0.35882,0.48039
13.744,0.2522,96.61,0.6305,0.41961,0.36471,0.49412
13.752,0.25122,95.437,0.6305,0.40392,0.35882,0.50588
13.76,0.25122,94.263,0.62952,0.38431,0.36471,0.51569
13.768,0.25024,93.09,0.62854,0.37451,0.3549,0.52941
13.776,0.25024,91.721,0.62757,0.36471,0.35882,0.53529
13.784,0.25024,90.157,0.62561,0.35882,0.34902,0.53529
13.792,0.25122,88.592,0.62463,0.34902,0.35882,0.55098
13.8,0.2522,87.027,0.62268,0.3451,0.3549,0.55098
13.808,0.25318,85.463,0.6217,0.33922,0.36471,0.5549
13.816,0.25513,83.898,0.62072,0.33922,0.35882,0.5451
13.824,0.25806,82.529,0.61975,0.3451,0.36471,0.5549
13.832,0.26002,81.16,0.61877,0.3451,0.35882,0.55098
13.84,0.26197,80.183,0.61779,0.34902,0.36471,0.5549
13.848,0.26491,79.205,0.61779,0.3451,0.35882,0.55098
13.856,0.26686,78.422,0.61779,0.3451,0.36471,0.5549
13.864,0.26882,77.64,0.61877,0.33922,0.3549,0.5549
13.872,0.27077,76.858,0.61975,0.3451,0.36471,0.5549
13.88,0.2737,76.076,0.6217,0.33529,0.35882,0.5549
13.888,0.27859,75.098,0.62366,0.33529,0.36471,0.5549
13.896,0.28739,73.924,0.62659,0.32941,0.35882,0.56078
13.904,0.30205,72.751,0.62952,0.32353,0.36471,0.56078
13.912,0.32356,71.382,0.63343,0.32353,0.35882,0.56471
13.92,0.35386,70.013,0.63734,0.32353,0.36471,0.56078
13.928,0.39198,68.253,0.64223,0.32353,0.35882,0.56471
13.936,0.43793,66.688,0.64712,0.32941,0.36471,0.5549
13.944,0.48094,64.928,0.652,0.32353,0.36471,0.56471
13.952,0.52199,63.559,0.65787,0.33529,0.36471,0.5549
13.96,0.56891,62.19,0.66373,0.32941,0.37059,0.5549
13.968,0.61584,61.213,0.6696,0.33529,0.36471,0.5549
13.976,0.65885,60.43,0.67449,0.32941,0.37059,0.5549
13.984,0.69697,59.648,0.67937,0.33922,0.36471,0.5549
13.992,0.72727,59.061,0.68524,0.33529,0.37059,0.5549
14,0.74976,58.67,0.69208,0.32941,0.36471,0.5549
14.008,0.7654,58.083,0.69795,0.33529,0.37451,0.5549
14.016,0.77419,57.692,0.70479,0.33529,0.36471,0.55098
14.024,0.77713,57.301,0.70968,0.33529,0.37059,0.5549
14.032,0.77419,57.301,0.71554,0.32941,0.36471,0.55098
14.04,0.76735,57.301,0.72043,0.33529,0.37059,0.5549
14.048,0.75855,57.301,0.72434,0.32941,0.36471,0.5549
14.056,0.74585,57.301,0.72923,0.33529,0.37451,0.5549
14.064,0.73216,57.497,0.73314,0.32941,0.36471,0.5549
14.072,0.71652,57.692,0.73803,0.33922,0.38039,0.5549
14.08,0.70088,57.888,0.74194,0.32941,0.37059,0.5549
14.088,0.68328,58.083,0.74487,0.33922,0.38039,0.5549
14.096,0.66667,58.279,0.7478,0.3451,0.37059,0.5549
14.104,0.64907,58.279,0.74976,0.3549,0.38431,0.53922
14.112,0.63245,58.279,0.75171,0.37059,0.40392,0.53922
14.12,0.61584,58.279,0.75269,0.38039,0.41961,0.53529
14.128,0.59922,58.279,0.75367,0.3902,0.42941,0.52941
14.136,0.58358,58.279,0.75269,0.39412,0.43529,0.52549
14.144,0.56794,58.279,0.75269,0.4,0.41961,0.52941
14.152,0.55425,58.279,0.74976,0.3902,0.4098,0.52941
14.16,0.53959,58.083,0.74682,0.37451,0.37451,0.53529
14.168,0.52493,57.888,0.74291,0.35882,0.35882,0.53922
14.176,0.50929,57.692,0.73803,0.34902,0.36471,0.55098
14.184,0.49365,57.497,0.73314,0.34902,0.35882,0.5549
14.192,0.47898,57.106,0.72825,0.33922,0.36471,0.56078
14.2,0.46334,56.91,0.72336,0.32941,0.3549,0.56078
14.208,0.44868,56.519,0.71848,0.32353,0.35882,0.57059
14.216,0.43402,56.128,0.71163,0.32353,0.34902,0.57059
14.224,0.41935,55.737,0.70479,0.31961,0.36471,0.57451
14.232,0.40567,55.541,0.69795,0.31961,0.34902,0.57059
14.24,0.39394,55.15,0.69013,0.32353,0.3549,0.57451
14.248,0.38319,54.954,0.68328,0.30392,0.33922,0.57451
14.256,0.37243,54.563,0.67644,0.3,0.3451,0.57059
14.264,0.3607,54.172,0.6696,0.5,0.29412,0.46078
14.272,0.34995,53.781,0.66276,0.85098,0.29412,0.27451
14.28,0.34018,53.39,0.65689,0.96078,0.28431,0.2098
14.288,0.3304,52.999,0.65103,0.82157,0.3902,0.3098
14.296,0.32258,52.803,0.64614,0.35882,0.52941,0.58431
14.304,0.31476,52.412,0.64125,0.20392,0.5451,0.68039
14.312,0.3089,52.021,0.63636,0.26863,0.43529,0.62941
14.32,0.30401,51.63,0.63148,0.3,0.38039,0.6
14.328,0.3001,51.239,0.62659,0.30392,0.3451,0.59608
14.336,0.29717,50.847,0.62268,0.30392,0.33922,0.5902
14.344,0.29619,50.652,0.61877,0.30392,0.33922,0.59608
14.352,0.29619,50.456,0.61584,0.30392,0.33529,0.5902
14.36,0.29619,50.065,0.6129,0.30392,0.33922,0.59608
14.368,0.29814,49.87,0.60997,0.30392,0.32941,0.5902
14.376,0.3001,49.479,0.60704,0.30392,0.33529,0.5902
14.384,0.30205,49.283,0.60508,0.30392,0.32353,0.5902
14.392,0.30401,49.087,0.60313,0.30392,0.33529,0.59608
14.4,0.30694,48.696,0.60117,0.30392,0.33529,0.58431
14.408,0.3089,48.501,0.59922,0.3098,0.33922,0.58431
14.416,0.31085,48.305,0.59726,0.31961,0.33529,0.57451
14.424,0.31281,47.914,0.59629,0.32353,0.33922,0.57451
14.432,0.31476,47.718,0.59433,0.31961,0.33529,0.57059
14.44,0.31574,47.718,0.59335,0.32353,0.33922,0.57059
14.448,0.31672,47.523,0.59238,0.32941,0.33529,0.56471
14.456,0.31672,47.327,0.5914,0.32941,0.3451,0.56471
14.464,0.31672,47.132,0.58944,0.32941,0.33922,0.5549
14.472,0.31574,46.936,0.58847,0.33529,0.3451,0.56078
14.48,0.31476,46.741,0.58651,0.33922,0.33922,0.5549
14.488,0.31281,46.545,0.58456,0.34902,0.34902,0.5549
14.496,0.31085,46.154,0.5826,0.34902,0.3451,0.5451
14.504,0.3089,46.154,0.58162,0.35882,0.3549,0.5451
14.512,0.30596,45.958,0.57967,0.35882,0.3451,0.53529
14.52,0.30303,45.763,0.57869,0.37059,0.34902,0.53529
14.528,0.29912,45.372,0.57674,0.37451,0.3549,0.53922
14.536,0.29619,45.176,0.57478,0.38431,0.3451,0.52941
14.544,0.29228,44.98,0.57283,0.3902,0.35882,0.52941
14.552,0.29032,44.785,0.57087,0.4,0.36471,0.52549
14.56,0.28641,45.176,0.56891,0.4098,0.37059,0.51961
14.568,0.28348,46.154,0.56598,0.42549,0.36471,0.5098
14.576,0.27957,48.696,0.56305,0.4451,0.38039,0.50588
14.584,0.27664,53.781,0.55914,0.46471,0.37451,0.48431
14.592,0.2737,61.995,0.55621,0.47451,0.38431,0.48431
14.6,0.26979,72.555,0.5523,0.4902,0.38039,0.48039
14.608,0.26686,83.507,0.54839,0.50588,0.3902,0.47059
14.616,0.26393,93.09,0.5435,0.51569,0.3902,0.46078
14.624,0.26002,99.935,0.53861,0.52549,0.39412,0.46078
14.632,0.25709,104.04,0.53275,0.52941,0.3902,0.46078
14.64,0.25513,105.61,0.5259,0.52549,0.3902,0.46078
14.648,0.25318,105.22,0.51808,0.5098,0.37451,0.46078
14.656,0.25024,103.65,0.51026,0.4902,0.38039,0.47451
14.664,0.24731,101.69,0.50244,0.47059,0.36471,0.48039
14.672,0.24536,99.544,0.49365,0.44902,0.37059,0.49412
14.68,0.24242,97.979,0.48485,0.42549,0.36471,0.5098
14.688,0.24047,96.61,0.47507,0.40392,0.37059,0.52549
14.696,0.23949,95.241,0.46432,0.3902,0.35882,0.53529
14.704,0.23754,93.872,0.45357,0.38039,0.36471,0.53922
14.712,0.23656,92.308,0.44086,0.37059,0.3549,0.5549
14.72,0.23558,90.548,0.42913,0.3549,0.36471,0.5549
14.728,0.23558,88.788,0.41544,0.3549,0.3549,0.56078
14.736,0.2346,87.027,0.40274,0.34902,0.34902,0.56471
14.744,0.2346,85.267,0.38905,0.33922,0.36471,0.57059
14.752,0.23558,83.898,0.37634,0.3451,0.34902,0.56471
14.76,0.23656,82.529,0.36461,0.3451,0.35882,0.57059
14.768,0.23656,81.552,0.35288,0.34902,0.34902,0.5549
14.776,0.23851,80.574,0.34311,0.3451,0.36471,0.56078
14.784,0.23949,79.791,0.33236,0.34902,0.34902,0.5549
14.792,0.24047,79.009,0.32258,0.34902,0.35882,0.5549
14.8,0.24145,78.031,0.31281,0.34902,0.34902,0.5549
14.808,0.2434,77.054,0.30303,0.34902,0.35882,0.5549
14.816,0.24536,76.271,0.29326,0.34902,0.3549,0.5549
14.824,0.24829,75.098,0.28446,0.34902,0.37059,0.5549
14.832,0.25415,74.12,0.27664,0.3451,0.36471,0.5549
14.84,0.26197,73.142,0.26979,0.34902,0.37451,0.5549
14.848,0.27468,71.969,0.26295,0.34902,0.36471,0.5549
14.856,0.29619,70.6,0.25709,0.3549,0.38039,0.55098
14.864,0.32551,69.231,0.2522,0.34902,0.37059,0.5451
14.872,0.36266,67.471,0.24731,0.34902,0.37451,0.55098
14.88,0.4086,65.906,0.24242,0.34902,0.36471,0.5451
14.888,0.45846,64.342,0.23949,0.34902,0.37451,0.53922
14.896,0.51124,62.777,0.23558,0.34902,0.37059,0.5451
14.904,0.56305,61.408,0.23363,0.34902,0.37451,0.5451
14.912,0.61193,60.43,0.23069,0.33922,0.37059,0.55098
14.92,0.65494,59.648,0.22972,0.34902,0.36471,0.5451
14.928,0.6911,58.866,0.22874,0.3451,0.38039,0.55098
14.936,0.71945,58.279,0.22776,0.34902,0.37059,0.5451
14.944,0.73705,57.692,0.22776,0.3451,0.38039,0.55098
14.952,0.7478,57.301,0.22776,0.3451,0.37059,0.5451
14.96,0.75367,56.715,0.22874,0.33922,0.38039,0.5549
14.968,0.75562,56.323,0.22972,0.3451,0.37451,0.5451
14.976,0.74487,56.128,0.23069,0.3451,0.38431,0.55098
14.984,0.7263,56.128,0.23167,0.3451,0.37451,0.5451
14.992,0.70968,56.128,0.23167,0.3451,0.38431,0.5549
15,0.69404,56.323,0.23265,0.34902,0.37451,0.55098
15.008,0.6784,56.519,0.23363,0.3451,0.38039,0.5549
15.016,0.66178,56.715,0.23363,0.3451,0.37059,0.5451
15.024,0.64516,56.91,0.2346,0.33922,0.38039,0.5549
15.032,0.62757,57.301,0.2346,0.33922,0.37059,0.55098
15.04,0.61193,57.497,0.23558,0.33529,0.38431,0.5549
15.048,0.59629,57.692,0.2346,0.33922,0.37451,0.55098
15.056,0.58065,57.888,0.2346,0.34902,0.38431,0.55098
15.064,0.56403,58.083,0.2346,0.3549,0.38431,0.53922
15.072,0.54839,58.083,0.23363,0.37059,0.40392,0.53529
15.08,0.53372,57.888,0.23363,0.37451,0.4098,0.52941
15.088,0.51808,57.692,0.23363,0.3902,0.43529,0.52941
15.096,0.50342,57.497,0.23265,0.4,0.42941,0.51961
15.104,0.48974,57.301,0.23265,0.4,0.42941,0.52549
15.112,0.47507,57.106,0.23167,0.3902,0.41569,0.52941
15.12,0.46139,56.91,0.22972,0.38039,0.38431,0.52941
15.128,0.4477,56.519,0.22874,0.37059,0.36471,0.52941
15.136,0.435,56.323,0.22678,0.34902,0.35882,0.53922
15.144,0.42326,56.128,0.22483,0.3451,0.36471,0.5549
15.152,0.41251,55.737,0.22385,0.34902,0.35882,0.5549
15.16,0.40078,55.346,0.22287,0.32353,0.36471,0.57059
15.168,0.38807,55.15,0.2219,0.31961,0.3549,0.57059
15.176,0.37537,54.954,0.21994,0.31961,0.36471,0.57451
15.184,0.36266,54.563,0.21896,0.32353,0.34902,0.56471
15.192,0.34995,54.172,0.21701,0.31961,0.35882,0.57059
15.2,0.33822,53.977,0.21505,0.32353,0.34902,0.56078
15.208,0.32649,53.585,0.2131,0.31373,0.3549,0.57059
15.216,0.31574,53.194,0.21114,0.3098,0.33529,0.5549
15.224,0.30596,52.803,0.21017,0.47059,0.3098,0.47059
15.232,0.29717,52.412,0.20919,0.81569,0.29412,0.28431
15.24,0.29032,52.216,0.20821,0.95686,0.29412,0.2
15.248,0.28446,52.021,0.20821,0.88039,0.37451,0.26471
15.256,0.27957,51.63,0.20821,0.43922,0.52941,0.52941
15.264,0.27566,51.239,0.20821,0.2098,0.56078,0.66471
15.272,0.27175,51.043,0.20821,0.27451,0.46078,0.61961
15.28,0.26979,50.652,0.20919,0.31373,0.38431,0.58039
15.288,0.26784,50.456,0.21017,0.32353,0.35882,0.57451
15.296,0.26686,50.065,0.21114,0.31961,0.33922,0.56471
15.304,0.26784,49.674,0.21212,0.31961,0.3451,0.57059
15.312,0.26784,49.479,0.21408,0.31961,0.33922,0.56471
15.32,0.26979,49.087,0.21603,0.3098,0.33922,0.57059
15.328,0.27175,48.892,0.21799,0.3098,0.33529,0.57451
15.336,0.2737,48.501,0.21994,0.31373,0.33922,0.57451
15.344,0.27664,48.305,0.22287,0.3098,0.33922,0.57451
15.352,0.27957,48.11,0.22581,0.3098,0.33529,0.57451
15.36,0.28152,47.914,0.22874,0.3098,0.33922,0.57451
15.368,0.28446,47.718,0.23265,0.31373,0.33529,0.57451
15.376,0.28641,47.327,0.23656,0.31961,0.33922,0.56471
15.384,0.28837,47.132,0.24145,0.32353,0.33529,0.56078
15.392,0.28935,46.936,0.24633,0.32353,0.33922,0.56471
15.4,0.28935,46.741,0.25024,0.32353,0.33922,0.5549
15.408,0.28935,46.545,0.25415,0.32353,0.34902,0.5549
15.416,0.28935,46.349,0.25806,0.32353,0.33922,0.5549
15.424,0.28837,46.154,0.26197,0.32941,0.3451,0.56078
15.432,0.28739,45.958,0.26588,0.32941,0.33922,0.5549
15.44,0.28641,45.763,0.27077,0.32941,0.3451,0.56078
15.448,0.28641,45.567,0.27566,0.33529,0.33922,0.5549
15.456,0.28543,45.176,0.28055,0.3451,0.3549,0.5549
15.464,0.28348,45.176,0.28446,0.3549,0.34902,0.53529
15.472,0.28152,44.98,0.28837,0.35882,0.35882,0.53922
15.48,0.27957,44.785,0.29228,0.36471,0.34902,0.52941
15.488,0.27761,44.785,0.29521,0.37059,0.35882,0.53529
15.496,0.27468,44.589,0.29814,0.37451,0.3549,0.52941
15.504,0.27273,44.394,0.30205,0.38431,0.36471,0.52549
15.512,0.26979,44.198,0.30499,0.39412,0.35882,0.51961
15.52,0.26784,44.198,0.3089,0.4,0.36471,0.51961
15.528,0.26491,44.589,0.31085,0.41961,0.37059,0.5098
15.536,0.26197,46.545,0.31378,0.42941,0.36471,0.50588
15.544,0.261,50.456,0.31476,0.4451,0.38039,0.4902
15.552,0.25904,57.301,0.31574,0.46471,0.37451,0.48039
15.56,0.25709,67.08,0.31574,0.47451,0.3902,0.48039
15.568,0.25513,78.227,0.31574,0.4902,0.38431,0.47059
15.576,0.25318,88.592,0.31574,0.50588,0.39412,0.46078
15.584,0.25122,96.61,0.31476,0.51569,0.3902,0.46078
15.592,0.24927,102.09,0.31183,0.52549,0.3902,0.4549
15.6,0.24829,104.63,0.30987,0.51961,0.38039,0.44902
15.608,0.24633,105.02,0.30499,0.5098,0.3902,0.46078
15.616,0.24438,104.04,0.30108,0.4902,0.37059,0.46078
15.624,0.2434,101.89,0.29619,0.47059,0.37451,0.48039
15.632,0.24242,99.544,0.29228,0.44902,0.36471,0.48431
15.64,0.24145,97.197,0.28641,0.42941,0.37059,0.50588
15.648,0.24145,95.437,0.28152,0.41569,0.35882,0.5098
15.656,0.24145,93.872,0.27468,0.39412,0.36471,0.52941
15.664,0.24145,92.699,0.26784,0.38039,0.34902,0.52941
15.672,0.24047,91.33,0.25904,0.36471,0.35882,0.5451
15.68,0.24047,89.961,0.25024,0.35882,0.34902,0.55098
15.688,0.24145,88.396,0.24145,0.34902,0.35882,0.5549
15.696,0.24145,86.832,0.23167,0.34902,0.3549,0.55098
15.704,0.24242,85.267,0.2219,0.3451,0.36471,0.5549
15.712,0.2434,83.898,0.2131,0.3451,0.3549,0.5549
15.72,0.24536,82.529,0.2043,0.3451,0.35882,0.5549
15.728,0.24633,81.16,0.19648,0.34902,0.3549,0.55098
15.736,0.24829,79.987,0.18964,0.34902,0.3549,0.5549
15.744,0.25122,79.009,0.1828,0.3451,0.35882,0.5549
15.752,0.25318,78.031,0.17595,0.3451,0.3549,0.5549
15.76,0.25513,77.054,0.17009,0.3451,0.35882,0.5549
15.768,0.25709,76.076,0.16325,0.34902,0.34902,0.55098
15.776,0.25904,75.098,0.15738,0.3451,0.35882,0.55098
15.784,0.261,74.12,0.15249,0.34902,0.3549,0.5451
15.792,0.26491,73.142,0.14761,0.34902,0.36471,0.5451
15.8,0.27175,72.164,0.14467,0.34902,0.3549,0.53922
15.808,0.28348,70.991,0.14076,0.34902,0.36471,0.55098
15.816,0.30205,69.622,0.13783,0.34902,0.35882,0.53922
15.824,0.32747,68.057,0.13587,0.3451,0.36471,0.5451
15.832,0.36168,66.493,0.1349,0.34902,0.35882,0.53922
15.84,0.39589,64.928,0.13392,0.33529,0.36471,0.5549
15.848,0.43206,63.168,0.1349,0.33922,0.35882,0.5451
15.856,0.47605,61.799,0.13587,0.3451,0.36471,0.5549
15.864,0.52297,60.43,0.13783,0.33922,0.35882,0.55098
15.872,0.56891,59.452,0.14076,0.33922,0.36471,0.5549
15.88,0.6129,58.67,0.1437,0.33922,0.35882,0.55098
15.888,0.65005,58.083,0.14761,0.33529,0.37059,0.5549
15.896,0.68133,57.497,0.15054,0.33922,0.36471,0.5451
15.904,0.70577,57.106,0.15445,0.32941,0.36471,0.5549
15.912,0.72239,56.715,0.15836,0.32941,0.36471,0.55098
15.92,0.73216,56.128,0.16325,0.33529,0.36471,0.55098
15.928,0.73607,55.737,0.16813,0.32941,0.37059,0.5549
15.936,0.73412,55.541,0.17302,0.33529,0.35882,0.5549
15.944,0.72825,55.541,0.17889,0.33529,0.37059,0.5549
15.952,0.71945,55.541,0.18377,0.33529,0.36471,0.5549
15.96,0.7087,55.737,0.18964,0.33922,0.36471,0.5549
15.968,0.69501,55.932,0.19453,0.33529,0.35882,0.5549
15.976,0.68035,56.128,0.19941,0.33529,0.36471,0.5549
15.984,0.66373,56.519,0.2043,0.33529,0.36471,0.5549
15.992,0.64712,56.91,0.20821,0.33529,0.37059,0.5549
16,0.62952,57.106,0.21212,0.33922,0.36471,0.5549
16.008,0.61193,57.301,0.21505,0.3451,0.37451,0.5549
16.016,0.59531,57.497,0.21799,0.34902,0.37059,0.53922
16.024,0.57771,57.497,0.21896,0.37059,0.3902,0.53529
16.032,0.56109,57.497,0.22092,0.38039,0.4,0.52941
16.04,0.54643,57.497,0.2219,0.39412,0.42549,0.52941
16.048,0.53177,57.497,0.22385,0.4,0.42549,0.51961
16.056,0.51711,57.301,0.22385,0.40392,0.43529,0.52549
16.064,0.50244,57.106,0.22483,0.4,0.4098,0.52941
16.072,0.48778,56.91,0.22483,0.38431,0.3902,0.53529
16.08,0.47312,56.715,0.22483,0.37451,0.36471,0.52941
16.088,0.45943,56.519,0.22385,0.3549,0.35882,0.5451
16.096,0.44477,56.323,0.22287,0.34902,0.35882,0.5549
16.104,0.43109,55.932,0.22092,0.3451,0.36471,0.5549
16.112,0.4174,55.737,0.21994,0.32353,0.3549,0.56471
16.12,0.40469,55.346,0.21896,0.31961,0.36471,0.56078
16.128,0.39101,55.15,0.21701,0.32353,0.34902,0.57451
16.136,0.37928,54.759,0.21603,0.32353,0.3549,0.57059
16.144,0.36852,54.563,0.21408,0.31961,0.35882,0.57451
16.152,0.35777,54.172,0.2131,0.32353,0.34902,0.57059
16.16,0.34604,53.977,0.21114,0.31373,0.3549,0.57451
16.168,0.33529,53.585,0.21017,0.30392,0.33922,0.57059
16.176,0.32454,53.194,0.20919,0.40392,0.31373,0.50588
16.184,0.31574,52.803,0.20919,0.7451,0.3,0.32353
16.192,0.30694,52.608,0.20821,0.94118,0.29412,0.21373
16.2,0.29912,52.216,0.20919,0.95098,0.35882,0.2451
16.208,0.29228,52.021,0.20919,0.5451,0.50588,0.48039
16.216,0.28641,51.63,0.21017,0.21373,0.55098,0.67059
16.224,0.28152,51.239,0.21114,0.25882,0.47451,0.63529
16.232,0.27761,50.847,0.2131,0.30392,0.39412,0.59608
16.24,0.27566,50.652,0.21505,0.31373,0.35882,0.58431
16.248,0.27566,50.261,0.21701,0.3098,0.33922,0.57451
16.256,0.27566,50.065,0.21994,0.3098,0.3451,0.57451
16.264,0.27664,49.674,0.22287,0.3098,0.33529,0.57059
16.272,0.27761,49.087,0.22581,0.3098,0.33922,0.57451
16.28,0.28055,48.892,0.22972,0.31373,0.33529,0.57059
16.288,0.28348,48.696,0.23363,0.31373,0.33922,0.57451
16.296,0.28641,48.501,0.23754,0.3098,0.33529,0.57451
16.304,0.28935,48.305,0.24242,0.3098,0.33922,0.57451
16.312,0.2913,47.914,0.24731,0.31961,0.33529,0.57059
16.32,0.29423,47.718,0.2522,0.31961,0.33922,0.56471
16.328,0.29619,47.327,0.25806,0.32353,0.33922,0.5549
16.336,0.29814,47.132,0.26393,0.32941,0.33922,0.5549
16.344,0.3001,46.936,0.26979,0.33529,0.3451,0.5549
16.352,0.30108,46.741,0.27566,0.33529,0.33922,0.5549
16.36,0.30205,46.741,0.28055,0.33529,0.34902,0.5549
16.368,0.30303,46.349,0.28543,0.33529,0.33922,0.55098
16.376,0.30205,46.154,0.29032,0.33922,0.34902,0.55098
16.384,0.30205,45.958,0.29521,0.33922,0.33922,0.5451
16.392,0.30108,45.763,0.3001,0.33922,0.34902,0.55098
16.4,0.29912,45.567,0.30499,0.3451,0.33922,0.5451
16.408,0.29814,45.372,0.31085,0.3451,0.34902,0.55098
16.416,0.29619,45.176,0.31574,0.34902,0.3451,0.52941
16.424,0.29326,44.98,0.32063,0.35882,0.34902,0.53529
16.432,0.2913,44.98,0.32551,0.36471,0.33922,0.52941
16.44,0.28935,44.785,0.32942,0.37059,0.3549,0.52941
16.448,0.28739,44.589,0.33431,0.37451,0.3451,0.52941
16.456,0.28446,44.589,0.33822,0.38431,0.35882,0.52549
16.464,0.28152,44.394,0.34213,0.39412,0.3549,0.51961
16.472,0.27957,44.394,0.34506,0.4,0.37059,0.51961
16.48,0.27664,44.589,0.348,0.4098,0.36471,0.50588
16.488,0.2737,46.154,0.34995,0.42549,0.37451,0.5
16.496,0.27077,49.479,0.35191,0.4451,0.37059,0.4902
16.504,0.26784,55.737,0.35288,0.46078,0.38039,0.48431
16.512,0.26491,64.928,0.35386,0.47059,0.37451,0.47451
16.52,0.26197,75.88,0.35386,0.4902,0.38431,0.47059
16.528,0.25904,86.245,0.35386,0.5,0.3902,0.46078
16.536,0.25806,94.85,0.35288,0.51569,0.38431,0.46078
16.544,0.25709,100.52,0.35288,0.52549,0.39412,0.44902
16.552,0.25513,103.46,0.34995,0.51961,0.3902,0.4549
16.56,0.25415,104.24,0.348,0.5098,0.38039,0.46078
16.568,0.2522,103.46,0.34409,0.4902,0.37451,0.46078
16.576,0.25024,101.5,0.34115,0.47059,0.37059,0.47451
16.584,0.24829,99.348,0.33627,0.46078,0.36471,0.48039
16.592,0.24731,97.197,0.33236,0.43529,0.37059,0.49412
16.6,0.24633,95.437,0.32649,0.41569,0.36471,0.50588
16.608,0.24536,94.068,0.3216,0.39412,0.36471,0.51961
16.616,0.24536,93.09,0.31476,0.37451,0.35882,0.52549
16.624,0.24438,91.917,0.30792,0.36471,0.36471,0.53922
16.632,0.24438,90.743,0.3001,0.3549,0.3549,0.5451
16.64,0.24536,89.374,0.2913,0.34902,0.35882,0.5549
16.648,0.24633,87.81,0.28348,0.3451,0.34902,0.5549
16.656,0.24731,86.245,0.27468,0.33922,0.35882,0.56471
16.664,0.24829,84.485,0.26686,0.33922,0.34902,0.56078
16.672,0.25024,82.725,0.25806,0.33529,0.35882,0.56471
16.68,0.2522,81.356,0.25122,0.33529,0.34902,0.5549
16.688,0.25415,80.183,0.24438,0.33922,0.35882,0.56078
16.696,0.25611,79.205,0.23851,0.3451,0.34902,0.5549
16.704,0.25806,78.227,0.23265,0.3451,0.35882,0.5549
16.712,0.26002,77.445,0.22874,0.34902,0.3549,0.5451
16.72,0.26197,76.467,0.22385,0.3549,0.36471,0.53922
16.728,0.26393,75.489,0.21994,0.3549,0.37059,0.53529
16.736,0.26588,74.511,0.21603,0.36471,0.36471,0.52941
16.744,0.26882,73.533,0.2131,0.37059,0.37451,0.51961
16.752,0.2737,72.36,0.21017,0.37451,0.36471,0.5098
16.76,0.2825,71.186,0.20821,0.37059,0.37451,0.51569
16.768,0.29717,70.013,0.20723,0.37059,0.37059,0.51961
16.776,0.31965,68.644,0.20723,0.37059,0.38039,0.51569
16.784,0.34897,67.08,0.20821,0.37451,0.36471,0.50588
16.792,0.3871,65.319,0.21212,0.36471,0.37059,0.51569
16.8,0.43109,63.755,0.21505,0.35882,0.36471,0.51569
16.808,0.47898,62.386,0.22092,0.3549,0.37451,0.52941
16.816,0.52786,61.213,0.22678,0.35882,0.37059,0.52549
16.824,0.57478,60.039,0.23363,0.35882,0.38039,0.52549
16.832,0.61877,59.257,0.24145,0.3549,0.37059,0.52549
16.84,0.652,58.866,0.24927,0.34902,0.38431,0.52941
16.848,0.67742,58.475,0.25806,0.34902,0.37451,0.52941
16.856,0.70088,58.083,0.26686,0.3451,0.38431,0.53529
16.864,0.71848,57.497,0.27566,0.34902,0.37451,0.52941
16.872,0.73021,57.106,0.28641,0.34902,0.38431,0.52941
16.88,0.73705,56.715,0.29619,0.3549,0.37451,0.52549
16.888,0.739,56.519,0.30792,0.3549,0.3902,0.52549
16.896,0.73509,56.715,0.31965,0.3549,0.38039,0.51961
16.904,0.72825,56.715,0.33138,0.34902,0.38431,0.52549
16.912,0.7175,56.91,0.34213,0.34902,0.38039,0.51961
16.92,0.70381,57.301,0.35191,0.34902,0.38431,0.52549
16.928,0.68915,57.497,0.36266,0.34902,0.37451,0.51961
16.936,0.67449,57.692,0.37243,0.34902,0.38039,0.52549
16.944,0.65885,57.888,0.38221,0.34902,0.37451,0.52941
16.952,0.64223,58.279,0.39198,0.34902,0.37059,0.52941
16.96,0.62561,58.279,0.40176,0.34902,0.38431,0.52941
16.968,0.60802,58.475,0.41056,0.3549,0.37451,0.52549
16.976,0.59042,58.475,0.42033,0.37059,0.3902,0.51569
16.984,0.57283,58.475,0.42815,0.38431,0.4098,0.50588
16.992,0.55621,58.475,0.43695,0.3902,0.42941,0.51569
17,0.53959,58.279,0.44379,0.4,0.42549,0.50588
17.008,0.52395,58.083,0.44966,0.4,0.43529,0.50588
17.016,0.50831,57.888,0.45455,0.4098,0.42549,0.5
17.024,0.49462,57.497,0.45943,0.4,0.41569,0.5098
17.032,0.48289,57.301,0.46432,0.38431,0.37059,0.50588
17.04,0.47116,56.91,0.46823,0.36471,0.36471,0.51569
17.048,0.45943,56.91,0.47116,0.3549,0.35882,0.51961
17.056,0.4477,56.519,0.47507,0.34902,0.37059,0.52941
17.064,0.43402,56.323,0.47801,0.33922,0.35882,0.53529
17.072,0.42131,55.932,0.48192,0.32353,0.36471,0.55098
17.08,0.40762,55.737,0.48485,0.32353,0.3549,0.5549
17.088,0.39492,55.541,0.48778,0.32353,0.36471,0.5549
17.096,0.38319,55.346,0.49169,0.32353,0.3549,0.5549
17.104,0.37146,54.954,0.4956,0.32353,0.36471,0.56078
17.112,0.3607,54.759,0.50049,0.32353,0.34902,0.56471
17.12,0.34995,54.368,0.50538,0.30392,0.3549,0.57059
17.128,0.34018,53.977,0.51222,0.32941,0.33529,0.5451
17.136,0.33236,53.781,0.51906,0.56471,0.30392,0.41961
17.144,0.32551,53.39,0.52688,0.8902,0.28431,0.2451
17.152,0.31965,53.194,0.53568,0.95686,0.27451,0.20392
17.16,0.31378,52.999,0.5435,0.74118,0.41961,0.3549
17.168,0.3089,52.608,0.55132,0.29412,0.5549,0.61961
17.176,0.30499,52.216,0.56012,0.2,0.51569,0.67059
17.184,0.30205,52.021,0.56794,0.3,0.43529,0.5902
17.192,0.3001,51.63,0.57869,0.31961,0.38039,0.57059
17.2,0.3001,51.239,0.58847,0.32353,0.35882,0.56078
17.208,0.30108,51.043,0.60117,0.32353,0.36471,0.56078
17.216,0.30205,50.652,0.6129,0.32353,0.3451,0.5549
17.224,0.30401,50.456,0.62463,0.32353,0.34902,0.56078
17.232,0.30694,50.065,0.63636,0.32353,0.3451,0.5549
17.24,0.30987,49.87,0.64712,0.32941,0.3549,0.5549
17.248,0.31281,49.674,0.65885,0.32941,0.3451,0.5549
17.256,0.31574,49.283,0.67058,0.32941,0.3549,0.5549
17.264,0.31867,49.087,0.68231,0.32941,0.3451,0.5549
17.272,0.3216,48.892,0.69404,0.33922,0.35882,0.5549
17.28,0.32356,48.501,0.70577,0.33922,0.3451,0.5549
17.288,0.32551,48.305,0.71652,0.33529,0.3549,0.5549
17.296,0.32649,47.914,0.72727,0.32941,0.33922,0.5549
17.304,0.32747,47.718,0.73705,0.32941,0.34902,0.56078
17.312,0.32845,47.523,0.74682,0.32941,0.33922,0.56471
17.32,0.32845,47.327,0.75464,0.32353,0.3451,0.56078
17.328,0.32747,47.132,0.76344,0.32353,0.33922,0.57451
17.336,0.32747,46.936,0.77126,0.32353,0.34902,0.57059
17.344,0.32649,46.741,0.7781,0.32353,0.3451,0.57451
17.352,0.32551,46.545,0.78495,0.32353,0.33922,0.57451
17.36,0.32356,46.349,0.79081,0.31961,0.3451,0.57451
17.368,0.3216,46.154,0.79668,0.32353,0.33922,0.57451
17.376,0.31965,46.154,0.80254,0.32941,0.3451,0.57451
17.384,0.31769,46.154,0.80841,0.33529,0.33922,0.57451
17.392,0.31476,46.154,0.81329,0.33922,0.3549,0.57059
17.4,0.31183,45.958,0.81818,0.34902,0.3451,0.56078
17.408,0.3089,45.763,0.82405,0.35882,0.3549,0.5549
17.416,0.30499,45.567,0.82893,0.37451,0.34902,0.53922
17.424,0.30205,45.567,0.83382,0.39412,0.36471,0.53529
17.432,0.29912,45.958,0.83969,0.4098,0.35882,0.51569
17.44,0.29717,47.327,0.84457,0.42941,0.37059,0.50588
17.448,0.29521,50.652,0.84946,0.44902,0.36471,0.4902
17.456,0.29228,57.106,0.85337,0.47059,0.38039,0.48039
17.464,0.29032,66.297,0.85728,0.4902,0.38039,0.46078
17.472,0.28837,77.445,0.86022,0.5098,0.3902,0.4549
17.48,0.28543,88.396,0.86217,0.52941,0.3902,0.43922
17.488,0.28348,97.197,0.8651,0.53922,0.39412,0.43922
17.496,0.28152,103.26,0.8651,0.55098,0.38431,0.43529
17.504,0.28055,106.39,0.86608,0.55098,0.3902,0.43529
17.512,0.27859,106.98,0.86413,0.53922,0.37451,0.43922
17.52,0.27664,105.61,0.86315,0.51961,0.37059,0.4549
17.528,0.27566,103.26,0.85924,0.4902,0.36471,0.47059
17.536,0.27468,100.52,0.8563,0.47451,0.35882,0.48431
17.544,0.27468,98.175,0.85142,0.4451,0.36471,0.50588
17.552,0.2737,96.61,0.84751,0.41569,0.34902,0.52549
17.56,0.27273,95.437,0.84164,0.3902,0.35882,0.53922
17.568,0.27273,94.459,0.83578,0.37451,0.3451,0.55098
17.576,0.27273,93.286,0.82796,0.3549,0.35882,0.56471
17.584,0.27273,91.721,0.82014,0.34902,0.3451,0.57059
17.592,0.2737,90.157,0.81036,0.33922,0.3549,0.57451
17.6,0.2737,88.396,0.80059,0.32941,0.3451,0.57059
17.608,0.27468,86.832,0.78886,0.32941,0.3549,0.58039
17.616,0.27664,85.267,0.77713,0.33529,0.34902,0.58039
17.624,0.27761,84.094,0.76442,0.33529,0.35882,0.57451
17.632,0.27957,82.921,0.75171,0.33529,0.3549,0.57451
17.64,0.2825,81.747,0.73998,0.33922,0.36471,0.58039
17.648,0.28446,80.769,0.72825,0.33922,0.3549,0.57451
17.656,0.28641,79.791,0.7175,0.33922,0.35882,0.57059
17.664,0.28935,78.618,0.70772,0.33922,0.3549,0.57059
17.672,0.29032,77.64,0.69599,0.33922,0.36471,0.57059
17.68,0.29228,76.662,0.68426,0.3451,0.36471,0.56078
17.688,0.29423,75.685,0.67253,0.34902,0.36471,0.56078
17.696,0.29717,74.707,0.6608,0.34902,0.3549,0.55098
17.704,0.30205,73.729,0.65005,0.34902,0.36471,0.55098
17.712,0.31281,72.751,0.64027,0.3451,0.35882,0.55098
17.72,0.32845,71.578,0.63148,0.3451,0.36471,0.55098
17.728,0.35191,70.404,0.62268,0.33529,0.36471,0.5549
17.736,0.3783,69.035,0.61486,0.33529,0.36471,0.5549
17.744,0.4086,67.666,0.60802,0.33529,0.37059,0.5549
17.752,0.46041,66.102,0.60117,0.32353,0.36471,0.56078
17.76,0.5132,64.537,0.59531,0.32353,0.37059,0.56471
17.768,0.55132,62.973,0.5914,0.32353,0.36471,0.56078
17.776,0.59335,61.604,0.58651,0.32353,0.37451,0.56471
17.784,0.63539,60.43,0.58358,0.32941,0.36471,0.56078
17.792,0.67351,59.844,0.58065,0.32353,0.37451,0.57059
17.8,0.70479,59.257,0.57869,0.32941,0.37059,0.56078
17.808,0.73021,58.866,0.57674,0.33529,0.38039,0.56078
17.816,0.7478,58.279,0.57576,0.33922,0.37059,0.5549
17.824,0.75855,57.888,0.57478,0.33922,0.38431,0.56078
17.832,0.76246,57.497,0.57478,0.3451,0.38039,0.5549
17.84,0.76149,57.106,0.5738,0.3451,0.3902,0.5549
17.848,0.75562,56.91,0.5738,0.34902,0.38431,0.5549
17.856,0.7478,56.91,0.57478,0.34902,0.3902,0.5549
17.864,0.73607,56.91,0.57478,0.34902,0.38431,0.5549
17.872,0.72141,56.91,0.57576,0.33922,0.3902,0.5549
17.88,0.70577,57.106,0.57674,0.3451,0.38039,0.55098
17.888,0.68915,57.301,0.57674,0.33922,0.3902,0.5549
17.896,0.67058,57.497,0.57771,0.3451,0.3902,0.5549
17.904,0.65298,57.692,0.57771,0.34902,0.3902,0.5549
17.912,0.63441,58.083,0.57869,0.35882,0.4,0.55098
17.92,0.61584,58.279,0.57869,0.37059,0.41961,0.5451
17.928,0.59824,58.279,0.57869,0.37451,0.43529,0.53922
17.936,0.58162,58.475,0.57869,0.3902,0.43922,0.52941
17.944,0.56696,58.475,0.57869,0.3902,0.43529,0.53529
17.952,0.55132,58.279,0.57771,0.39412,0.42941,0.52941
17.96,0.53568,58.279,0.57771,0.38039,0.4,0.53922
17.968,0.52102,58.083,0.57771,0.37451,0.38039,0.52941
17.976,0.50635,57.888,0.57674,0.35882,0.37059,0.53529
17.984,0.49169,57.692,0.57674,0.35882,0.36471,0.52941
17.992,0.47801,57.301,0.57674,0.34902,0.38431,0.55098
18,0.46432,57.106,0.57576,0.3451,0.37059,0.5549
18.008,0.45064,56.91,0.57576,0.32941,0.36471,0.56078
18.016,0.43695,56.519,0.57478,0.32353,0.36471,0.5549
18.024,0.42326,56.323,0.57478,0.32353,0.36471,0.56471
18.032,0.41153,56.128,0.5738,0.32353,0.36471,0.56078
18.04,0.40078,55.737,0.5738,0.31961,0.36471,0.57451
18.048,0.38905,55.346,0.57283,0.32941,0.3549,0.56078
18.056,0.37634,54.954,0.57185,0.31373,0.35882,0.57059
18.064,0.36461,54.563,0.57185,0.38039,0.32353,0.51961
18.072,0.35288,54.368,0.57087,0.69608,0.3098,0.35882
18.08,0.34115,53.977,0.57087,0.94706,0.28431,0.2098
18.088,0.3304,53.781,0.57087,0.97059,0.33529,0.2
18.096,0.32063,53.39,0.57185,0.61961,0.46078,0.42549
18.104,0.31183,52.999,0.57283,0.22353,0.56078,0.66078
18.112,0.30401,52.608,0.57478,0.2,0.48039,0.67647
18.12,0.29717,52.216,0.57576,0.2902,0.41569,0.6098
18.128,0.2913,52.021,0.57771,0.30392,0.35882,0.59608
18.136,0.28739,51.63,0.57869,0.30392,0.34902,0.59608
18.144,0.28446,51.434,0.58065,0.3,0.33922,0.6
18.152,0.2825,51.043,0.58358,0.30392,0.33529,0.5902
18.16,0.28152,50.652,0.58651,0.3,0.33922,0.58431
18.168,0.28152,50.456,0.58944,0.30392,0.32941,0.5902
18.176,0.2825,50.261,0.59335,0.30392,0.33922,0.5902
18.184,0.28446,49.87,0.59629,0.30392,0.33529,0.58431
18.192,0.28641,49.674,0.59922,0.3098,0.3451,0.58431
18.2,0.28935,49.479,0.60215,0.3098,0.33529,0.58039
18.208,0.2913,49.283,0.60606,0.31961,0.3451,0.58039
18.216,0.29423,49.087,0.60899,0.32353,0.33922,0.57059
18.224,0.29619,48.696,0.6129,0.32353,0.3451,0.57451
18.232,0.29912,48.501,0.61779,0.32353,0.33922,0.56471
18.24,0.30108,48.305,0.6217,0.32353,0.3451,0.56471
18.248,0.30303,47.914,0.62659,0.33529,0.33922,0.5549
18.256,0.30401,47.718,0.63148,0.32941,0.34902,0.56078
18.264,0.30499,47.523,0.63734,0.33529,0.33922,0.5549
18.272,0.30596,47.327,0.64223,0.33529,0.3451,0.56078
18.28,0.30596,47.132,0.64614,0.3451,0.33922,0.5549
18.288,0.30499,46.936,0.65103,0.34902,0.3451,0.5549
18.296,0.30499,46.741,0.65494,0.3451,0.33922,0.55098
18.304,0.30401,46.545,0.65885,0.34902,0.34902,0.5451
18.312,0.30303,46.349,0.66276,0.3549,0.33922,0.53922
18.32,0.30108,46.154,0.66667,0.36471,0.34902,0.53529
18.328,0.29912,45.958,0.67058,0.37451,0.3451,0.52941
18.336,0.29717,45.763,0.67449,0.38039,0.3549,0.52549
18.344,0.29619,45.567,0.67644,0.3902,0.35882,0.51961
18.352,0.29423,45.567,0.67937,0.4,0.34902,0.51569
18.36,0.2913,45.567,0.68133,0.41569,0.36471,0.50588
18.368,0.28837,45.958,0.68328,0.42941,0.35882,0.5
18.376,0.28543,47.718,0.68328,0.4451,0.37059,0.48431
18.384,0.2825,51.434,0.68426,0.46471,0.36471,0.48039
18.392,0.28055,58.083,0.68426,0.48039,0.38039,0.47059
18.4,0.27761,67.471,0.68426,0.49412,0.37451,0.46471
18.408,0.27566,78.618,0.68231,0.5098,0.3902,0.46078
18.416,0.27273,88.983,0.68133,0.52549,0.38431,0.4451
18.424,0.27077,97.588,0.6784,0.53529,0.3902,0.4451
18.432,0.26882,103.06,0.67546,0.53922,0.38039,0.43922
18.44,0.26784,106,0.67155,0.53922,0.38431,0.4451
18.448,0.26588,106.39,0.66764,0.52549,0.37059,0.44902
18.456,0.26491,105.02,0.66276,0.50588,0.37451,0.46471
18.464,0.26295,102.48,0.65787,0.48039,0.35882,0.47451
18.472,0.261,99.935,0.65103,0.4549,0.36471,0.49412
18.48,0.26002,97.784,0.64516,0.42941,0.3549,0.50588
18.488,0.25806,96.61,0.63832,0.41569,0.36471,0.51961
18.496,0.25709,95.632,0.6305,0.4,0.3549,0.52941
