Time [s], RESP, PLETH, II, V, AVR
0,-0.52416,0.68915,0.58984,0.35547,0.2451
0.008,-0.52788,0.67937,1.1602,-0.4043,-0.27647
0.016,-0.5316,0.66569,0.7207,-0.49805,0.21961
0.024,-0.5316,0.65103,-0.013672,-0.11523,0.85098
0.032,-0.53532,0.63734,-0.23438,0.31055,0.97059
0.04,-0.53532,0.62463,-0.16406,0.61914,0.92157
0.048,-0.53532,0.61095,-0.125,0.74414,0.87647
0.056,-0.53532,0.59824,-0.12891,0.7793,0.86667
0.064,-0.53903,0.58847,-0.10938,0.80469,0.85686
0.072,-0.53903,0.58065,-0.11523,0.81445,0.86667
0.08,-0.53903,0.57576,-0.125,0.81445,0.87059
0.088,-0.53903,0.57283,-0.125,0.81445,0.86667
0.096,-0.53903,0.56989,-0.09375,0.81055,0.83137
0.104,-0.53903,0.56696,-0.083984,0.82031,0.81569
0.112,-0.53903,0.56403,-0.11523,0.81055,0.86667
0.12,-0.53903,0.56012,-0.11914,0.80469,0.86667
0.128,-0.53903,0.55621,-0.10352,0.81055,0.85098
0.136,-0.53903,0.55132,-0.089844,0.79883,0.83529
0.144,-0.53903,0.54545,-0.064453,0.80469,0.81176
0.152,-0.53532,0.53763,-0.074219,0.79883,0.80588
0.16,-0.53532,0.52981,-0.080078,0.79883,0.81569
0.168,-0.53532,0.52102,-0.054688,0.80469,0.80588
0.176,-0.53532,0.51222,-0.048828,0.79883,0.8
0.184,-0.5316,0.5044,-0.070312,0.79883,0.80588
0.192,-0.5316,0.49658,-0.070312,0.79883,0.8
0.2,-0.5316,0.48876,-0.039062,0.79883,0.77647
0.208,-0.5316,0.47996,-0.025391,0.79883,0.76667
0.216,-0.52788,0.47214,-0.013672,0.78906,0.75098
0.224,-0.52788,0.46432,-0.025391,0.78906,0.76078
0.232,-0.52788,0.45846,0.0097656,0.7793,0.72157
0.24,-0.52788,0.45259,0.015625,0.78906,0.7098
0.248,-0.52416,0.44673,0.03125,0.78516,0.70588
0.256,-0.52416,0.43988,0.03125,0.78516,0.7
0.264,-0.52416,0.435,0.060547,0.78906,0.67647
0.272,-0.52416,0.43011,0.080078,0.7793,0.66078
0.28,-0.52045,0.42522,0.089844,0.78516,0.6549
0.288,-0.52045,0.42033,0.095703,0.78906,0.67059
0.296,-0.52045,0.41642,0.11133,0.79492,0.66078
0.304,-0.52045,0.41251,0.050781,0.77539,0.72157
0.312,-0.52045,0.4086,0.03125,0.77539,0.7451
0.32,-0.52045,0.40469,0.035156,0.75977,0.7549
0.328,-0.52045,0.40176,-0.0097656,0.75,0.78039
0.336,-0.52045,0.39883,-0.044922,0.75,0.81569
0.344,-0.52045,0.39492,-0.048828,0.75,0.81176
0.352,-0.52416,0.39003,-0.035156,0.75,0.79608
0.36,-0.52416,0.38416,-0.054688,0.74023,0.81569
0.368,-0.52416,0.37928,-0.064453,0.73438,0.84118
0.376,-0.52416,0.37439,-0.058594,0.74414,0.82549
0.384,-0.52788,0.37048,-0.054688,0.73438,0.82157
0.392,-0.52788,0.36559,-0.074219,0.73047,0.83137
0.4,-0.52788,0.36168,-0.064453,0.73047,0.82549
0.408,-0.52788,0.35777,-0.058594,0.73438,0.81569
0.416,-0.5316,0.35288,-0.064453,0.74023,0.82157
0.424,-0.5316,0.34897,-0.048828,0.75,0.81176
0.432,-0.5316,0.34604,-0.039062,0.74414,0.80588
0.44,-0.5316,0.34311,-0.070312,0.75,0.84118
0.448,-0.5316,0.34018,-0.064453,0.75391,0.84118
0.456,-0.5316,0.33627,-0.074219,0.75,0.83137
0.464,-0.5316,0.33333,-0.064453,0.75,0.82549
0.472,-0.5316,0.3304,-0.054688,0.75,0.83137
0.48,-0.52788,0.32845,-0.048828,0.74414,0.81569
0.488,-0.52788,0.32845,-0.039062,0.74414,0.80588
0.496,-0.52416,0.33236,-0.025391,0.75,0.79608
0.504,-0.52416,0.34213,-0.039062,0.74023,0.81176
0.512,-0.52045,0.35875,-0.048828,0.73438,0.82157
0.52,-0.52045,0.38123,-0.039062,0.73047,0.80588
0.528,-0.51673,0.40469,-0.025391,0.72461,0.78627
0.536,-0.51673,0.43109,-0.035156,0.72461,0.8
0.544,-0.51301,0.46041,-0.029297,0.73047,0.79608
0.552,-0.51301,0.49169,-0.025391,0.73047,0.79608
0.56,-0.50929,0.52004,-0.044922,0.72461,0.80588
0.568,-0.50929,0.54643,-0.054688,0.73047,0.81569
0.576,-0.50558,0.56794,-0.035156,0.74414,0.8
0.584,-0.50558,0.58456,-0.0097656,0.75,0.77647
0.592,-0.50558,0.59726,0,0.75977,0.76078
0.6,-0.50186,0.60606,0.015625,0.75977,0.75098
0.608,-0.50186,0.61388,0.044922,0.75,0.7451
0.616,-0.50186,0.61975,0.044922,0.7207,0.73529
0.624,-0.50186,0.62659,0.054688,0.69922,0.73137
0.632,-0.50186,0.63148,0.050781,0.68945,0.73529
0.64,-0.49814,0.63636,0.025391,0.68945,0.7549
0.648,-0.49814,0.64223,0,0.69922,0.77059
0.656,-0.49814,0.65005,-0.039062,0.70898,0.79608
0.664,-0.49814,0.65982,-0.035156,0.70508,0.80588
0.672,-0.49814,0.66862,-0.070312,0.70508,0.83529
0.68,-0.50186,0.67742,-0.070312,0.69531,0.83137
0.688,-0.50186,0.68426,-0.074219,0.69531,0.83137
0.696,-0.50186,0.69013,-0.070312,0.69531,0.82549
0.704,-0.50186,0.69501,-0.064453,0.69922,0.83137
0.712,-0.50186,0.69599,-0.054688,0.70508,0.81569
0.72,-0.50186,0.69404,-0.064453,0.81445,0.81569
0.728,-0.49814,0.69013,0.076172,0.83398,0.7098
0.736,-0.49814,0.68328,0.5957,0.33984,0.23922
0.744,-0.49814,0.67351,1.1699,-0.41992,-0.28824
0.752,-0.49814,0.65982,0.72461,-0.49805,0.20392
0.76,-0.49442,0.64418,0.0058594,-0.125,0.83529
0.768,-0.49442,0.62757,-0.20508,0.30469,0.95098
0.776,-0.49442,0.61193,-0.16406,0.60938,0.91176
0.784,-0.49442,0.59726,-0.13867,0.73438,0.88627
0.792,-0.49071,0.58456,-0.14844,0.78516,0.90196
0.8,-0.49071,0.57478,-0.13867,0.79492,0.8902
0.808,-0.49071,0.56794,-0.13477,0.79492,0.87647
0.816,-0.49071,0.56305,-0.11914,0.80469,0.86667
0.824,-0.48699,0.55914,-0.125,0.80469,0.85686
0.832,-0.48699,0.55621,-0.10352,0.81445,0.84118
0.84,-0.48699,0.55327,-0.10938,0.81445,0.85098
0.848,-0.48699,0.55132,-0.10938,0.81055,0.86078
0.856,-0.48327,0.54839,-0.10352,0.80469,0.84118
0.864,-0.48327,0.5435,-0.089844,0.81055,0.82549
0.872,-0.48327,0.53861,-0.080078,0.81055,0.81176
0.88,-0.48327,0.53177,-0.080078,0.80469,0.81569
0.888,-0.48327,0.52493,-0.083984,0.79883,0.82157
0.896,-0.48327,0.51711,-0.058594,0.80469,0.79608
0.904,-0.47955,0.50929,-0.070312,0.79883,0.81176
0.912,-0.47955,0.50049,-0.070312,0.79492,0.81176
0.92,-0.47955,0.49267,-0.074219,0.79883,0.8
0.928,-0.47955,0.48485,-0.048828,0.79883,0.7902
0.936,-0.47584,0.47703,-0.054688,0.78906,0.78627
0.944,-0.47584,0.46921,-0.048828,0.78906,0.77647
0.952,-0.47584,0.46139,-0.035156,0.78516,0.7549
0.96,-0.47212,0.45357,-0.019531,0.7793,0.74118
0.968,-0.47212,0.44673,0,0.79883,0.72549
0.976,-0.4684,0.43891,0.015625,0.79492,0.7098
0.984,-0.4684,0.43206,0.019531,0.79492,0.70588
0.992,-0.46468,0.42522,0.041016,0.79492,0.6902
1,-0.46468,0.41935,0.054688,0.79883,0.68039
1.008,-0.46097,0.41349,0.070312,0.79883,0.6902
1.016,-0.46097,0.4086,0.089844,0.79883,0.66078
1.024,-0.45725,0.40371,0.076172,0.78906,0.68627
1.032,-0.45725,0.3998,0.060547,0.7793,0.7
1.04,-0.45725,0.39687,0.044922,0.77539,0.72157
1.048,-0.45725,0.39492,0.03125,0.77539,0.74118
1.056,-0.45353,0.39101,0.0058594,0.76562,0.7549
1.064,-0.45353,0.3871,-0.025391,0.75391,0.7902
1.072,-0.45353,0.38319,-0.048828,0.75,0.81176
1.08,-0.45353,0.3783,-0.054688,0.75,0.81569
1.088,-0.45353,0.37439,-0.064453,0.74414,0.82157
1.096,-0.45353,0.37048,-0.058594,0.74414,0.81569
1.104,-0.45353,0.36559,-0.064453,0.73438,0.82157
1.112,-0.45353,0.36168,-0.058594,0.73047,0.81569
1.12,-0.45353,0.35777,-0.054688,0.73047,0.81176
1.128,-0.45353,0.35484,-0.058594,0.73047,0.81569
1.136,-0.45725,0.35191,-0.070312,0.74023,0.83137
1.144,-0.45725,0.348,-0.074219,0.74023,0.83529
1.152,-0.45725,0.34409,-0.070312,0.73438,0.83137
1.16,-0.45725,0.34018,-0.054688,0.75,0.81569
1.168,-0.45725,0.33724,-0.070312,0.75,0.83137
1.176,-0.45725,0.33333,-0.064453,0.74414,0.84118
1.184,-0.45725,0.3304,-0.074219,0.74414,0.83529
1.192,-0.46097,0.32747,-0.064453,0.74023,0.82157
1.2,-0.46097,0.32454,-0.048828,0.74414,0.81569
1.208,-0.46097,0.3216,-0.054688,0.74023,0.81569
1.216,-0.46097,0.31965,-0.048828,0.73438,0.81569
1.224,-0.46468,0.31965,-0.039062,0.73438,0.81176
1.232,-0.46468,0.32258,-0.039062,0.73438,0.81569
1.24,-0.46468,0.3304,-0.035156,0.73438,0.8
1.248,-0.46468,0.34311,-0.019531,0.73047,0.7902
1.256,-0.46097,0.36364,-0.044922,0.72461,0.81176
1.264,-0.46097,0.38905,-0.035156,0.73047,0.8
1.272,-0.46097,0.42033,-0.044922,0.71484,0.81569
1.28,-0.46097,0.45357,-0.035156,0.7207,0.80588
1.288,-0.45725,0.48583,-0.029297,0.70898,0.80588
1.296,-0.45725,0.51613,-0.035156,0.72461,0.80588
1.304,-0.45353,0.54252,-0.025391,0.73047,0.8
1.312,-0.45353,0.56305,-0.013672,0.74023,0.7902
1.32,-0.44981,0.57771,-0.013672,0.73047,0.77059
1.328,-0.44981,0.58749,0,0.74414,0.76078
1.336,-0.4461,0.59238,0.025391,0.73438,0.7451
1.344,-0.4461,0.59726,0.041016,0.73047,0.75098
1.352,-0.44238,0.60215,0.050781,0.70508,0.73529
1.36,-0.43866,0.60704,0.054688,0.69531,0.73137
1.368,-0.43494,0.6129,0.044922,0.67969,0.7451
1.376,-0.43123,0.61877,0.0058594,0.67969,0.77647
1.384,-0.42751,0.62561,-0.025391,0.68555,0.8
1.392,-0.42379,0.63343,-0.039062,0.67969,0.81569
1.4,-0.42379,0.64125,-0.058594,0.67969,0.82157
1.408,-0.42007,0.64907,-0.064453,0.68945,0.82549
1.416,-0.41636,0.65591,-0.048828,0.68555,0.8
1.424,-0.41264,0.66178,-0.064453,0.67969,0.82157
1.432,-0.40892,0.66569,-0.058594,0.69531,0.83137
1.44,-0.4052,0.66764,-0.064453,0.68945,0.82549
1.448,-0.40149,0.66862,-0.074219,0.67969,0.82157
1.456,-0.39777,0.66667,-0.089844,0.82422,0.83529
1.464,-0.39405,0.6608,0.16602,0.71484,0.61961
1.472,-0.38662,0.65298,0.86914,0.16602,0.04902
1.48,-0.3829,0.64027,1.209,-0.44922,-0.22745
1.488,-0.37918,0.62561,0.50586,-0.47852,0.46471
1.496,-0.37546,0.60997,-0.14844,0.0058594,0.94706
1.504,-0.37175,0.59335,-0.25,0.38086,0.98235
1.512,-0.36431,0.57674,-0.16016,0.63477,0.90196
1.52,-0.35688,0.56207,-0.13477,0.73047,0.86667
1.528,-0.34944,0.55132,-0.12891,0.76562,0.86078
1.536,-0.34201,0.5435,-0.11914,0.77539,0.85098
1.544,-0.33457,0.53763,-0.125,0.78516,0.86078
1.552,-0.32714,0.53372,-0.11523,0.78906,0.85098
1.56,-0.3197,0.53079,-0.10938,0.79883,0.85686
1.568,-0.30855,0.52884,-0.10938,0.78516,0.84118
1.576,-0.30112,0.52688,-0.099609,0.79492,0.84118
1.584,-0.29368,0.52395,-0.10938,0.78906,0.84118
1.592,-0.28625,0.52004,-0.10352,0.7793,0.84118
1.6,-0.27509,0.51417,-0.089844,0.78516,0.82549
1.608,-0.26394,0.50831,-0.070312,0.78906,0.8
1.616,-0.25651,0.50147,-0.070312,0.77539,0.81569
1.624,-0.24535,0.49365,-0.074219,0.7793,0.81569
1.632,-0.2342,0.4868,-0.083984,0.78516,0.81569
1.64,-0.22305,0.47898,-0.080078,0.77539,0.81569
1.648,-0.21561,0.47214,-0.064453,0.78516,0.80588
1.656,-0.20446,0.46432,-0.054688,0.78516,0.79608
1.664,-0.18959,0.45748,-0.039062,0.77539,0.77647
1.672,-0.17844,0.44966,-0.039062,0.76953,0.77059
1.68,-0.16729,0.44184,-0.039062,0.78516,0.77059
1.688,-0.15242,0.43304,-0.019531,0.75391,0.75098
1.696,-0.13755,0.42522,0.0058594,0.76953,0.73137
1.704,-0.12639,0.41838,0.0097656,0.77539,0.72157
1.712,-0.11152,0.41153,0.03125,0.76953,0.7098
1.72,-0.10037,0.40469,0.044922,0.77539,0.69608
1.728,-0.085502,0.3998,0.060547,0.7793,0.68627
1.736,-0.074349,0.39589,0.064453,0.77539,0.68039
1.744,-0.063197,0.39101,0.076172,0.77539,0.67647
1.752,-0.052045,0.38612,0.089844,0.77539,0.67647
1.76,-0.040892,0.38025,0.099609,0.76953,0.67647
1.768,-0.02974,0.37634,0.080078,0.76953,0.7
1.776,-0.01487,0.37243,0.060547,0.76562,0.72157
1.784,-0.0074349,0.36852,0.03125,0.75977,0.76078
1.792,0.0037175,0.36461,0,0.74414,0.77647
1.8,0.011152,0.3607,-0.013672,0.74023,0.78627
1.808,0.022305,0.35679,-0.025391,0.74414,0.7902
1.816,0.02974,0.35288,-0.039062,0.75,0.79608
1.824,0.040892,0.34897,-0.054688,0.74414,0.81176
1.832,0.048327,0.34604,-0.064453,0.74414,0.83137
1.84,0.05948,0.34311,-0.064453,0.74023,0.82549
1.848,0.070632,0.34018,-0.070312,0.74414,0.83137
1.856,0.078067,0.33627,-0.064453,0.73438,0.81569
1.864,0.089219,0.33236,-0.070312,0.73047,0.83137
1.872,0.10037,0.32747,-0.064453,0.73438,0.83137
1.88,0.10781,0.32454,-0.064453,0.75,0.82157
1.888,0.11896,0.32063,-0.070312,0.75,0.82549
1.896,0.12639,0.31769,-0.054688,0.74023,0.81569
1.904,0.13383,0.31476,-0.074219,0.73047,0.84118
1.912,0.14498,0.31183,-0.080078,0.73047,0.84118
1.92,0.15242,0.3089,-0.070312,0.73047,0.83137
1.928,0.16357,0.30499,-0.044922,0.72461,0.80588
1.936,0.171,0.30303,-0.035156,0.73047,0.79608
1.944,0.17844,0.29912,-0.039062,0.73047,0.79608
1.952,0.18959,0.29619,-0.044922,0.73047,0.81569
1.96,0.19703,0.29521,-0.025391,0.73047,0.79608
1.968,0.20446,0.29717,-0.044922,0.7207,0.81569
1.976,0.21561,0.30401,-0.054688,0.70508,0.81176
1.984,0.22305,0.31867,-0.039062,0.70508,0.81176
1.992,0.23048,0.34018,-0.048828,0.70508,0.80588
2,0.24164,0.36852,-0.035156,0.70508,0.79608
2.008,0.25279,0.40176,-0.039062,0.70508,0.79608
2.016,0.26022,0.43695,-0.039062,0.70508,0.80588
2.024,0.27138,0.46725,-0.044922,0.72461,0.81176
2.032,0.28253,0.49365,-0.019531,0.73438,0.7902
2.04,0.28996,0.52102,-0.013672,0.75,0.77059
2.048,0.30112,0.54448,0.0058594,0.74023,0.7549
2.056,0.30855,0.56305,0.03125,0.73438,0.7451
2.064,0.3197,0.57771,0.054688,0.73047,0.72549
2.072,0.32714,0.58847,0.076172,0.70898,0.71569
2.08,0.33829,0.59531,0.064453,0.68945,0.72157
2.088,0.34572,0.6002,0.050781,0.69922,0.73137
2.096,0.35688,0.60508,-0.019531,0.68945,0.79608
2.104,0.36431,0.60997,-0.054688,0.68945,0.81569
2.112,0.37175,0.61486,-0.048828,0.68945,0.81176
2.12,0.37918,0.62072,-0.048828,0.69531,0.81176
2.128,0.38662,0.62659,-0.058594,0.68555,0.81569
2.136,0.39033,0.63148,-0.070312,0.68945,0.82157
2.144,0.39777,0.63832,-0.064453,0.67969,0.81569
2.152,0.4052,0.64516,-0.064453,0.69531,0.82157
2.16,0.41264,0.652,-0.048828,0.68945,0.79608
2.168,0.42007,0.65787,-0.080078,0.7793,0.81569
2.176,0.42751,0.66178,0.015625,0.83008,0.74118
2.184,0.43494,0.66373,0.49414,0.5,0.37059
2.192,0.44238,0.66178,1.2246,-0.20898,-0.20784
2.2,0.4461,0.65591,1.2539,-0.48828,-0.22745
2.208,0.45353,0.64712,0.085938,-0.16992,0.77647
2.216,0.45725,0.63441,-0.22461,0.21094,0.95686
2.224,0.46097,0.62072,-0.24023,0.53516,0.93137
2.232,0.4684,0.60802,-0.14844,0.69922,0.88627
2.24,0.47212,0.59335,-0.13867,0.75391,0.87647
2.248,0.47584,0.57967,-0.11914,0.7793,0.86667
2.256,0.48327,0.56794,-0.10352,0.79492,0.8451
2.264,0.48699,0.55816,-0.099609,0.79883,0.83529
2.272,0.49071,0.55132,-0.10938,0.79883,0.84118
2.28,0.49442,0.54741,-0.10352,0.80469,0.85098
2.288,0.49814,0.54448,-0.11523,0.79492,0.8451
2.296,0.50186,0.5435,-0.099609,0.78906,0.83137
2.304,0.50558,0.54252,-0.10352,0.78906,0.82549
2.312,0.50929,0.54057,-0.089844,0.7793,0.82157
2.32,0.51301,0.53763,-0.083984,0.78906,0.81569
2.328,0.51301,0.5347,-0.089844,0.78906,0.82157
2.336,0.51673,0.52981,-0.080078,0.78516,0.81569
2.344,0.51673,0.52395,-0.070312,0.78516,0.81176
2.352,0.52045,0.51613,-0.074219,0.7793,0.80588
2.36,0.52045,0.50831,-0.048828,0.78906,0.7902
2.368,0.52045,0.49951,-0.074219,0.77539,0.81176
2.376,0.52045,0.49169,-0.080078,0.77539,0.8
2.384,0.52045,0.48289,-0.039062,0.78516,0.76078
2.392,0.52045,0.47507,-0.029297,0.7793,0.76667
2.4,0.52045,0.46725,-0.039062,0.7793,0.77059
2.408,0.51673,0.46041,-0.019531,0.78906,0.77647
2.416,0.51673,0.45357,0.0058594,0.78516,0.73137
2.424,0.51301,0.44673,0.03125,0.77539,0.7
2.432,0.50929,0.44184,0.03125,0.7793,0.69608
2.44,0.50558,0.435,0.025391,0.77539,0.7
2.448,0.50186,0.42913,0.070312,0.7793,0.67059
2.456,0.49442,0.42424,0.085938,0.78906,0.66078
2.464,0.48699,0.42033,0.095703,0.79492,0.65098
2.472,0.47955,0.41642,0.080078,0.7793,0.68039
2.48,0.4684,0.41251,0.076172,0.77539,0.69608
2.488,0.45725,0.4086,0.044922,0.7793,0.72549
2.496,0.4461,0.40371,0.019531,0.76953,0.7451
2.504,0.43123,0.3998,0,0.75977,0.76667
2.512,0.41636,0.39492,-0.035156,0.75391,0.79608
2.52,0.4052,0.39003,-0.039062,0.75,0.80588
2.528,0.39033,0.38612,-0.054688,0.75,0.81569
2.536,0.37546,0.38319,-0.064453,0.75,0.82157
2.544,0.36059,0.38025,-0.054688,0.75,0.80588
2.552,0.34201,0.37732,-0.070312,0.74414,0.82157
2.56,0.32714,0.37439,-0.074219,0.74023,0.83137
2.568,0.30855,0.37146,-0.064453,0.75,0.82157
2.576,0.28996,0.36852,-0.070312,0.75,0.82549
2.584,0.27138,0.36559,-0.083984,0.74023,0.84118
2.592,0.25279,0.36168,-0.09375,0.74023,0.85098
2.6,0.2342,0.35875,-0.089844,0.75,0.8451
2.608,0.21933,0.35484,-0.080078,0.75,0.84118
2.616,0.20074,0.35093,-0.083984,0.74414,0.84118
2.624,0.18216,0.348,-0.070312,0.75,0.83137
2.632,0.15985,0.34506,-0.044922,0.74414,0.81176
2.64,0.14126,0.34213,-0.083984,0.75,0.83529
2.648,0.11896,0.33822,-0.074219,0.73438,0.84118
2.656,0.10037,0.33431,-0.044922,0.73047,0.8
2.664,0.078067,0.33138,-0.029297,0.74023,0.79608
2.672,0.05948,0.32942,-0.029297,0.73047,0.7902
2.68,0.040892,0.33138,-0.035156,0.73047,0.8
2.688,0.022305,0.33822,-0.039062,0.73047,0.81176
2.696,0.0037175,0.35093,-0.044922,0.73047,0.81569
2.704,-0.011152,0.37048,-0.035156,0.73047,0.8
2.712,-0.02974,0.39589,-0.039062,0.72461,0.79608
2.72,-0.04461,0.4262,-0.019531,0.73047,0.7902
2.728,-0.05948,0.45455,-0.029297,0.7207,0.79608
2.736,-0.078067,0.48192,-0.039062,0.71484,0.81176
2.744,-0.092937,0.51124,-0.039062,0.72461,0.81569
2.752,-0.10409,0.53861,-0.039062,0.72461,0.80588
2.76,-0.11896,0.56305,-0.019531,0.72461,0.79608
2.768,-0.13011,0.5826,-0.019531,0.73438,0.7902
2.776,-0.14498,0.59726,0.0097656,0.74414,0.76078
2.784,-0.15613,0.60899,0.025391,0.75,0.74118
2.792,-0.171,0.61681,0.035156,0.76562,0.73137
2.8,-0.18216,0.62366,0.025391,0.75,0.75098
2.808,-0.19703,0.6305,0.035156,0.73047,0.76078
2.816,-0.20818,0.63636,0.054688,0.70508,0.72549
2.824,-0.22305,0.64125,0.060547,0.69531,0.72157
2.832,-0.23792,0.64614,0.064453,0.69531,0.73529
2.84,-0.24907,0.65298,0.019531,0.70508,0.76078
2.848,-0.26022,0.6608,-0.029297,0.70508,0.79608
2.856,-0.27138,0.66862,-0.039062,0.69922,0.8
2.864,-0.28253,0.67742,-0.058594,0.70508,0.81569
2.872,-0.2974,0.68524,-0.054688,0.69922,0.81569
2.88,-0.30855,0.69208,-0.058594,0.69922,0.81569
2.888,-0.3197,0.69795,-0.048828,0.70898,0.81569
2.896,-0.33086,0.70088,-0.054688,0.69922,0.81176
2.904,-0.34201,0.70186,-0.048828,0.70508,0.8
2.912,-0.34944,0.69892,-0.048828,0.73438,0.81176
2.92,-0.36059,0.69306,-0.070312,0.85547,0.82549
2.928,-0.36803,0.68426,0.23438,0.69922,0.56471
2.936,-0.37918,0.67351,0.90039,0.080078,-0.011765
2.944,-0.38662,0.65885,1.1602,-0.49805,-0.25294
2.952,-0.39777,0.64321,0.41992,-0.35938,0.5098
2.96,-0.4052,0.62561,-0.13477,0.044922,0.91569
2.968,-0.41636,0.60997,-0.21484,0.44531,0.95686
2.976,-0.42379,0.59726,-0.14453,0.67578,0.8902
2.984,-0.43123,0.58651,-0.12891,0.76562,0.87059
2.992,-0.44238,0.57869,-0.099609,0.79492,0.85098
3,-0.44981,0.5738,-0.10352,0.81055,0.84118
3.008,-0.45725,0.57087,-0.09375,0.82031,0.83529
3.016,-0.46097,0.56989,-0.10938,0.81445,0.86078
3.024,-0.4684,0.56891,-0.10352,0.82031,0.8451
3.032,-0.47584,0.56598,-0.09375,0.82031,0.84118
3.04,-0.47955,0.56305,-0.099609,0.81445,0.84118
3.048,-0.48699,0.55914,-0.089844,0.81055,0.84118
3.056,-0.49071,0.55327,-0.083984,0.81055,0.82549
3.064,-0.49442,0.54741,-0.074219,0.80469,0.81569
3.072,-0.49814,0.53959,-0.083984,0.81445,0.82157
3.08,-0.50186,0.53079,-0.070312,0.82031,0.81176
3.088,-0.50558,0.52102,-0.070312,0.80469,0.8
3.096,-0.50929,0.51222,-0.064453,0.81445,0.79608
3.104,-0.51301,0.5044,-0.054688,0.81055,0.79608
3.112,-0.51301,0.4956,-0.064453,0.79883,0.80588
3.12,-0.51673,0.4868,-0.074219,0.79883,0.81176
3.128,-0.52045,0.47996,-0.039062,0.79883,0.79608
3.136,-0.52416,0.47312,-0.044922,0.79883,0.78627
3.144,-0.52416,0.46725,0.0058594,0.79883,0.73529
3.152,-0.52788,0.46041,-0.0097656,0.79883,0.7451
3.16,-0.5316,0.45357,-0.025391,0.78906,0.75098
3.168,-0.5316,0.44673,0,0.78906,0.72549
3.176,-0.53532,0.44086,0.025391,0.79492,0.7
3.184,-0.53532,0.43402,0.044922,0.79883,0.68039
3.192,-0.53903,0.42815,0.054688,0.78906,0.67647
3.2,-0.53903,0.42326,0.064453,0.78516,0.67647
3.208,-0.54275,0.41838,0.099609,0.79883,0.6549
3.216,-0.54275,0.41251,0.089844,0.78906,0.67059
3.224,-0.54275,0.4086,0.080078,0.78906,0.68627
3.232,-0.54275,0.40469,0.060547,0.78516,0.7098
3.24,-0.54647,0.40078,0.044922,0.77539,0.72549
3.248,-0.54647,0.39687,0.019531,0.76953,0.7451
3.256,-0.54647,0.39394,0.0058594,0.76562,0.7549
3.264,-0.55019,0.39003,-0.025391,0.75391,0.7902
3.272,-0.55019,0.38612,-0.044922,0.75977,0.81569
3.28,-0.5539,0.38319,-0.039062,0.75,0.82549
3.288,-0.5539,0.37928,-0.064453,0.74414,0.83529
3.296,-0.55762,0.37537,-0.044922,0.75,0.81569
3.304,-0.55762,0.37146,-0.064453,0.74023,0.83529
3.312,-0.56134,0.36755,-0.070312,0.74023,0.83137
3.32,-0.56134,0.36364,-0.054688,0.75,0.81569
3.328,-0.56506,0.35973,-0.074219,0.73438,0.83529
3.336,-0.56506,0.35777,-0.089844,0.73047,0.8451
3.344,-0.56877,0.35386,-0.074219,0.73047,0.83529
3.352,-0.56877,0.34995,-0.070312,0.73438,0.82549
3.36,-0.56877,0.34604,-0.074219,0.75,0.83137
3.368,-0.56877,0.34213,-0.083984,0.74414,0.83529
3.376,-0.57249,0.3392,-0.070312,0.75,0.83137
3.384,-0.57249,0.33529,-0.054688,0.76562,0.81569
3.392,-0.57249,0.33138,-0.064453,0.76953,0.82549
3.4,-0.57249,0.32845,-0.070312,0.75391,0.83529
3.408,-0.57621,0.32551,-0.064453,0.75391,0.83529
3.416,-0.57621,0.32551,-0.044922,0.75,0.81569
3.424,-0.57621,0.32845,-0.029297,0.75,0.79608
3.432,-0.57621,0.33529,-0.048828,0.74023,0.81569
3.44,-0.57621,0.34702,-0.058594,0.73438,0.82157
3.448,-0.57621,0.36559,-0.044922,0.73047,0.82157
3.456,-0.57621,0.39101,-0.064453,0.73047,0.83529
3.464,-0.57621,0.42131,-0.048828,0.73047,0.81569
3.472,-0.57621,0.45455,-0.035156,0.72461,0.80588
3.48,-0.57621,0.48974,-0.029297,0.73047,0.79608
3.488,-0.57621,0.52297,-0.064453,0.73047,0.82549
3.496,-0.57621,0.55327,-0.039062,0.72461,0.81176
3.504,-0.57621,0.57771,-0.039062,0.73047,0.80588
3.512,-0.57621,0.59726,-0.039062,0.73438,0.8
3.52,-0.57621,0.61193,-0.025391,0.75,0.7902
3.528,-0.57621,0.6217,0,0.75977,0.76667
3.536,-0.57621,0.62854,0.0097656,0.76953,0.7451
3.544,-0.57621,0.63441,0.025391,0.75,0.7549
3.552,-0.57621,0.64125,0.015625,0.72461,0.77059
3.56,-0.57993,0.64712,0.025391,0.69922,0.7549
3.568,-0.57993,0.65494,0.019531,0.68555,0.7549
3.576,-0.57993,0.66373,0.025391,0.68945,0.76078
3.584,-0.57993,0.67253,-0.013672,0.69531,0.7902
3.592,-0.57993,0.68231,-0.035156,0.69922,0.80588
3.6,-0.58364,0.6911,-0.058594,0.69922,0.82157
3.608,-0.58364,0.70088,-0.064453,0.68945,0.82549
3.616,-0.58736,0.71065,-0.058594,0.69922,0.82549
3.624,-0.58736,0.71652,-0.070312,0.68945,0.83529
3.632,-0.59108,0.72141,-0.058594,0.69531,0.81569
3.64,-0.59108,0.72532,-0.054688,0.69922,0.81176
3.648,-0.59108,0.72727,-0.064453,0.68945,0.83137
3.656,-0.59108,0.7263,-0.083984,0.74414,0.85686
3.664,-0.59108,0.72141,-0.029297,0.84375,0.8
3.672,-0.59108,0.71359,0.27539,0.61914,0.52941
3.68,-0.59108,0.70088,1.0039,-0.083984,-0.12157
3.688,-0.59108,0.68622,1.1602,-0.49805,-0.28235
3.696,-0.58736,0.66862,0.28516,-0.33008,0.61961
3.704,-0.58736,0.65005,-0.19336,0.10547,0.95686
3.712,-0.58736,0.63343,-0.22852,0.5,0.97647
3.72,-0.58364,0.61877,-0.13867,0.70508,0.8902
3.728,-0.58364,0.60704,-0.11523,0.76953,0.86667
3.736,-0.57993,0.59726,-0.10938,0.78906,0.85098
3.744,-0.57993,0.59042,-0.09375,0.80469,0.84118
3.752,-0.57621,0.58553,-0.125,0.78906,0.86667
3.76,-0.57249,0.5826,-0.12891,0.80469,0.87059
3.768,-0.57249,0.57869,-0.10938,0.81055,0.84118
3.776,-0.56877,0.57576,-0.10352,0.81055,0.8451
3.784,-0.56877,0.57087,-0.10938,0.80469,0.85686
3.792,-0.56506,0.56598,-0.10352,0.79883,0.84118
3.8,-0.56134,0.56012,-0.10938,0.79883,0.8451
3.808,-0.55762,0.55327,-0.089844,0.80469,0.83137
3.816,-0.55762,0.54545,-0.083984,0.79883,0.82549
3.824,-0.5539,0.53861,-0.083984,0.79492,0.82157
3.832,-0.55019,0.53079,-0.080078,0.79883,0.81176
3.84,-0.55019,0.52199,-0.064453,0.79492,0.8
3.848,-0.54647,0.51417,-0.039062,0.78906,0.77059
3.856,-0.54647,0.50538,-0.048828,0.79883,0.78039
3.864,-0.54275,0.49658,-0.064453,0.78906,0.8
3.872,-0.54275,0.48778,-0.054688,0.78516,0.7902
3.88,-0.53903,0.47898,-0.048828,0.78516,0.78627
3.888,-0.53903,0.47116,-0.035156,0.79492,0.76667
3.896,-0.53532,0.46334,-0.019531,0.78516,0.7549
3.904,-0.53532,0.4565,-0.013672,0.77539,0.74118
3.912,-0.5316,0.44868,0.0058594,0.77539,0.72157
3.92,-0.5316,0.44282,0.025391,0.7793,0.70588
3.928,-0.52788,0.43793,0.054688,0.77539,0.68627
3.936,-0.52788,0.43206,0.060547,0.78516,0.67647
3.944,-0.52416,0.4262,0.080078,0.77539,0.67059
3.952,-0.52416,0.42033,0.099609,0.7793,0.65098
3.96,-0.52045,0.41447,0.11523,0.78516,0.64118
3.968,-0.51673,0.41056,0.070312,0.76953,0.6902
3.976,-0.51301,0.40567,0.054688,0.75977,0.71569
3.984,-0.51301,0.40176,0.041016,0.75977,0.73529
3.992,-0.50929,0.39785,0.015625,0.75391,0.76667
4,-0.50929,0.39394,-0.019531,0.75,0.7902
4.008,-0.50558,0.38905,-0.029297,0.74414,0.80588
4.016,-0.50558,0.38416,-0.025391,0.74414,0.79608
4.024,-0.50186,0.38025,-0.048828,0.75,0.81569
4.032,-0.50186,0.37732,-0.058594,0.73438,0.82549
4.04,-0.50186,0.37341,-0.058594,0.73047,0.82549
4.048,-0.50186,0.3695,-0.058594,0.73438,0.83137
4.056,-0.50186,0.36559,-0.019531,0.73438,0.7902
4.064,-0.50186,0.36168,-0.064453,0.73047,0.82549
4.072,-0.50186,0.35777,-0.080078,0.70898,0.84118
4.08,-0.49814,0.35288,-0.083984,0.7207,0.84118
4.088,-0.49814,0.34213,-0.074219,0.73047,0.83529
4.096,-0.49814,0.32747,-0.064453,0.73438,0.82549
4.104,-0.49814,0.31867,-0.064453,0.74023,0.82157
4.112,-0.49814,0.31281,-0.064453,0.74414,0.83137
4.12,-0.49814,0.3089,-0.054688,0.75391,0.81569
4.128,-0.49814,0.30694,-0.044922,0.74414,0.81176
4.136,-0.49814,0.30303,-0.070312,0.75,0.84118
4.144,-0.49814,0.3001,-0.054688,0.75,0.82549
4.152,-0.49814,0.29619,-0.048828,0.75391,0.81569
4.16,-0.49814,0.29423,-0.039062,0.74414,0.81569
4.168,-0.49814,0.29521,-0.019531,0.75,0.79608
4.176,-0.49814,0.3001,-0.048828,0.73047,0.81569
4.184,-0.49814,0.31183,-0.044922,0.73047,0.81569
4.192,-0.49814,0.3304,-0.048828,0.73047,0.81176
4.2,-0.49814,0.35582,-0.044922,0.73047,0.80588
4.208,-0.49442,0.38612,-0.039062,0.73047,0.80588
4.216,-0.49442,0.41935,-0.039062,0.72461,0.8
4.224,-0.49442,0.44868,-0.044922,0.72461,0.81569
4.232,-0.49442,0.4741,-0.048828,0.7207,0.81176
4.24,-0.49442,0.49951,-0.044922,0.70898,0.81176
4.248,-0.49442,0.52297,-0.029297,0.72461,0.8
4.256,-0.49442,0.54252,-0.039062,0.7207,0.81176
4.264,-0.49442,0.55816,-0.054688,0.70898,0.81569
4.272,-0.49442,0.56891,-0.039062,0.7207,0.8
4.28,-0.49442,0.57869,-0.0097656,0.74414,0.78039
4.288,-0.49442,0.58651,-0.013672,0.74023,0.78039
4.296,-0.49814,0.59433,0,0.75,0.77059
4.304,-0.49814,0.60117,-0.0039062,0.74023,0.75098
4.312,-0.49814,0.60899,0.03125,0.73047,0.7451
4.32,-0.49814,0.61486,0.050781,0.70508,0.73137
4.328,-0.50186,0.62072,0.054688,0.68945,0.72157
4.336,-0.50186,0.62757,0.03125,0.67969,0.75098
4.344,-0.50186,0.63636,0.0058594,0.68555,0.77647
4.352,-0.50186,0.64516,-0.0097656,0.67969,0.7902
4.36,-0.50558,0.65396,-0.019531,0.69531,0.79608
4.368,-0.50558,0.6608,-0.054688,0.68945,0.81569
4.376,-0.50558,0.66667,-0.044922,0.69922,0.80588
4.384,-0.50558,0.67155,-0.064453,0.68555,0.82157
4.392,-0.50558,0.67253,-0.058594,0.69531,0.81569
4.4,-0.50558,0.6696,-0.070312,0.69922,0.83137
4.408,-0.50558,0.66276,-0.064453,0.69531,0.82549
4.416,-0.50558,0.652,-0.064453,0.70508,0.81569
4.424,-0.50558,0.63832,-0.048828,0.77539,0.8
4.432,-0.50558,0.62463,-0.054688,0.83984,0.80588
4.44,-0.50558,0.60802,0.39453,0.53516,0.4098
4.448,-0.50558,0.5914,1.0996,-0.23438,-0.21765
4.456,-0.50186,0.57576,1.1484,-0.49805,-0.27255
4.464,-0.50186,0.56305,0.16602,-0.22852,0.71569
4.472,-0.49814,0.55327,-0.19922,0.19531,0.96078
4.48,-0.49814,0.54741,-0.22461,0.53906,0.94706
4.488,-0.49442,0.5435,-0.11523,0.72461,0.87059
4.496,-0.49442,0.54154,-0.10938,0.77539,0.85686
4.504,-0.49071,0.53959,-0.13477,0.79492,0.87647
4.512,-0.49071,0.53763,-0.11523,0.81445,0.86078
4.52,-0.49071,0.5347,-0.10938,0.81055,0.85098
4.528,-0.48699,0.53079,-0.10938,0.81445,0.85098
4.536,-0.48699,0.52493,-0.10938,0.81445,0.85686
4.544,-0.48327,0.51808,-0.10352,0.82031,0.84118
4.552,-0.48327,0.51026,-0.10938,0.81055,0.85098
4.56,-0.47955,0.50147,-0.099609,0.81055,0.84118
4.568,-0.47955,0.49169,-0.083984,0.81055,0.81569
4.576,-0.47584,0.48289,-0.074219,0.81055,0.80588
4.584,-0.47584,0.47507,-0.083984,0.79883,0.81569
4.592,-0.47584,0.46628,-0.070312,0.81055,0.81569
4.6,-0.47584,0.45846,-0.080078,0.79883,0.82549
4.608,-0.47212,0.45064,-0.064453,0.80469,0.8
4.616,-0.47212,0.44379,-0.070312,0.79492,0.80588
4.624,-0.47212,0.43695,-0.064453,0.78906,0.8
4.632,-0.47212,0.43206,-0.064453,0.79883,0.80588
4.64,-0.4684,0.42522,-0.048828,0.79492,0.78039
4.648,-0.4684,0.41935,-0.039062,0.79883,0.76667
4.656,-0.46468,0.41251,-0.039062,0.79492,0.77059
4.664,-0.46468,0.40567,-0.029297,0.78516,0.75098
4.672,-0.46468,0.3998,-0.0097656,0.79492,0.73137
4.68,-0.46468,0.39394,0,0.79883,0.72549
4.688,-0.46097,0.38807,0.019531,0.78906,0.7098
4.696,-0.46097,0.38221,0.03125,0.79492,0.7
4.704,-0.46097,0.37634,0.060547,0.79883,0.68039
4.712,-0.45725,0.37146,0.080078,0.79492,0.66078
4.72,-0.45725,0.36657,0.080078,0.78906,0.67647
4.728,-0.45353,0.36266,0.080078,0.79492,0.67647
4.736,-0.45353,0.35777,0.085938,0.79883,0.68627
4.744,-0.44981,0.35484,0.054688,0.77539,0.71569
4.752,-0.44981,0.35093,0.03125,0.77539,0.73137
4.76,-0.44981,0.34702,0.0058594,0.76562,0.7549
4.768,-0.4461,0.34409,-0.013672,0.75391,0.76667
4.776,-0.4461,0.34115,-0.029297,0.75977,0.7902
4.784,-0.4461,0.33822,-0.044922,0.74414,0.80588
4.792,-0.4461,0.33529,-0.048828,0.74023,0.81569
4.8,-0.44238,0.33138,-0.058594,0.74414,0.82157
4.808,-0.44238,0.32747,-0.064453,0.74023,0.82157
4.816,-0.44238,0.32356,-0.054688,0.73438,0.81569
4.824,-0.44238,0.32063,-0.064453,0.73047,0.82157
4.832,-0.44238,0.31867,-0.058594,0.72461,0.81569
4.84,-0.44238,0.31476,-0.070312,0.73047,0.82549
4.848,-0.44238,0.31183,-0.083984,0.73047,0.83529
4.856,-0.44238,0.3089,-0.080078,0.74023,0.83137
4.864,-0.44238,0.30694,-0.070312,0.74414,0.83137
4.872,-0.44238,0.30401,-0.064453,0.75,0.81569
4.88,-0.44238,0.30108,-0.058594,0.74414,0.81569
4.888,-0.44238,0.29717,-0.070312,0.75,0.83529
4.896,-0.44238,0.29326,-0.064453,0.74414,0.84118
4.904,-0.44238,0.28935,-0.058594,0.75,0.82157
4.912,-0.44238,0.28641,-0.048828,0.75977,0.81569
4.92,-0.44238,0.28446,-0.035156,0.75,0.79608
4.928,-0.44238,0.28446,-0.039062,0.74414,0.81569
4.936,-0.44238,0.28739,-0.039062,0.74023,0.80588
4.944,-0.44238,0.29423,-0.044922,0.73047,0.81569
4.952,-0.43866,0.30792,-0.029297,0.73438,0.81176
4.96,-0.43866,0.32747,-0.039062,0.73047,0.81176
4.968,-0.43866,0.35288,-0.064453,0.70898,0.82157
4.976,-0.43494,0.38416,-0.054688,0.70508,0.82549
4.984,-0.43494,0.41838,-0.048828,0.71484,0.81176
4.992,-0.43123,0.45259,-0.054688,0.7207,0.81569
5,-0.43123,0.48485,-0.048828,0.70508,0.81176
5.008,-0.42751,0.5132,-0.044922,0.70508,0.80588
5.016,-0.42751,0.53666,-0.044922,0.70898,0.81569
5.024,-0.42379,0.5523,-0.029297,0.72461,0.79608
5.032,-0.42007,0.56403,-0.013672,0.73438,0.78627
5.04,-0.41636,0.57283,0,0.75,0.77059
5.048,-0.41636,0.57967,-0.0097656,0.73047,0.77647
5.056,-0.41264,0.58553,0.019531,0.73047,0.7549
5.064,-0.40892,0.5914,0.03125,0.70508,0.7451
5.072,-0.4052,0.59824,0.03125,0.67969,0.7451
5.08,-0.40149,0.60411,0.035156,0.68555,0.75098
5.088,-0.39777,0.61095,0.025391,0.67969,0.76078
5.096,-0.39405,0.61877,0,0.68555,0.78039
5.104,-0.39405,0.62659,-0.019531,0.68945,0.79608
5.112,-0.39033,0.63441,-0.048828,0.68945,0.81569
5.12,-0.38662,0.64125,-0.064453,0.67969,0.83137
5.128,-0.3829,0.64712,-0.070312,0.67969,0.83137
5.136,-0.37918,0.652,-0.080078,0.67969,0.84118
5.144,-0.37546,0.65591,-0.058594,0.67969,0.81569
5.152,-0.37175,0.65787,-0.048828,0.67969,0.81569
5.16,-0.36803,0.65689,-0.058594,0.68945,0.82549
5.168,-0.36431,0.652,-0.070312,0.73047,0.82549
5.176,-0.36431,0.64418,-0.080078,0.82422,0.78627
5.184,-0.36059,0.63245,0.25,0.65039,0.5549
5.192,-0.35688,0.61877,1,0.03125,-0.056863
5.2,-0.35316,0.60313,1.2285,-0.49414,-0.25294
5.208,-0.34944,0.58651,0.33594,-0.28906,0.6
5.216,-0.34201,0.57185,-0.18945,0.070312,0.96667
5.224,-0.33829,0.55816,-0.22852,0.44531,0.97647
5.232,-0.33457,0.54839,-0.14844,0.66406,0.8902
5.24,-0.33086,0.53959,-0.13477,0.74023,0.87647
5.248,-0.32342,0.53275,-0.12891,0.77539,0.86078
5.256,-0.3197,0.52981,-0.10938,0.78516,0.8451
5.264,-0.31599,0.52688,-0.10938,0.78906,0.84118
5.272,-0.30855,0.52493,-0.125,0.79883,0.86078
5.28,-0.30112,0.52297,-0.11523,0.79883,0.85686
5.288,-0.2974,0.52004,-0.10938,0.79883,0.84118
5.296,-0.28996,0.51613,-0.089844,0.79883,0.82157
5.304,-0.28253,0.51124,-0.09375,0.79492,0.82549
5.312,-0.27509,0.5044,-0.089844,0.78906,0.84118
5.32,-0.27138,0.49756,-0.083984,0.79492,0.82157
5.328,-0.26394,0.48974,-0.080078,0.7793,0.81569
5.336,-0.25651,0.48192,-0.083984,0.77539,0.82157
5.344,-0.24535,0.4741,-0.080078,0.76953,0.81569
5.352,-0.23792,0.46628,-0.083984,0.77539,0.81569
5.36,-0.23048,0.45748,-0.070312,0.77539,0.8
5.368,-0.21933,0.44868,-0.064453,0.76953,0.8
5.376,-0.2119,0.43988,-0.058594,0.76562,0.7902
5.384,-0.20074,0.43109,-0.048828,0.76562,0.78627
5.392,-0.18959,0.42326,-0.048828,0.76953,0.78039
5.4,-0.18216,0.41544,-0.029297,0.77539,0.76078
5.408,-0.17472,0.4086,-0.0097656,0.76953,0.7451
5.416,-0.16729,0.40176,-0.013672,0.76562,0.7451
5.424,-0.15613,0.39687,0.0058594,0.77539,0.73529
5.432,-0.1487,0.39198,0.019531,0.76953,0.7098
5.44,-0.14126,0.38612,0.044922,0.77539,0.6902
5.448,-0.13011,0.38025,0.060547,0.77539,0.67059
5.456,-0.12268,0.37537,0.054688,0.76953,0.6902
5.464,-0.11524,0.3695,0.060547,0.76953,0.68627
5.472,-0.10781,0.36364,0.064453,0.77539,0.7
5.48,-0.10037,0.35875,0.076172,0.76562,0.69608
5.488,-0.092937,0.35484,0.054688,0.77539,0.7098
5.496,-0.081784,0.35093,0.035156,0.75,0.73529
5.504,-0.074349,0.34604,0.019531,0.75391,0.75098
5.512,-0.063197,0.34213,-0.0039062,0.75977,0.77059
5.52,-0.055762,0.3392,-0.029297,0.75,0.7902
5.528,-0.04461,0.33627,-0.054688,0.74023,0.81176
5.536,-0.037175,0.33333,-0.064453,0.74023,0.82157
5.544,-0.026022,0.32942,-0.064453,0.75,0.81569
5.552,-0.018587,0.32551,-0.070312,0.74023,0.83137
5.56,-0.011152,0.3216,-0.074219,0.74023,0.82549
5.568,0,0.31672,-0.089844,0.74414,0.84118
5.576,0.0074349,0.31183,-0.080078,0.74414,0.83137
5.584,0.01487,0.30694,-0.074219,0.75,0.8451
5.592,0.022305,0.30303,-0.10938,0.75,0.86078
5.6,0.02974,0.29912,-0.089844,0.74414,0.84118
5.608,0.037175,0.29619,-0.080078,0.75,0.83137
5.616,0.04461,0.29423,-0.083984,0.74023,0.82549
5.624,0.052045,0.29228,-0.064453,0.75,0.81569
5.632,0.063197,0.28935,-0.058594,0.74023,0.81569
5.64,0.066915,0.28543,-0.070312,0.74023,0.83137
5.648,0.074349,0.28152,-0.074219,0.73047,0.83529
5.656,0.081784,0.27761,-0.058594,0.73047,0.83137
5.664,0.092937,0.27273,-0.048828,0.73047,0.82157
5.672,0.10037,0.26979,-0.058594,0.72461,0.81176
5.68,0.11152,0.26882,-0.048828,0.7207,0.80588
5.688,0.12268,0.27077,-0.054688,0.70898,0.81569
5.696,0.13011,0.27859,-0.064453,0.7207,0.81569
5.704,0.14126,0.29228,-0.039062,0.73047,0.79608
5.712,0.15242,0.31281,-0.039062,0.7207,0.8
5.72,0.16357,0.33529,-0.054688,0.70508,0.81569
5.728,0.17472,0.3607,-0.039062,0.70898,0.81176
5.736,0.18216,0.39198,-0.039062,0.72461,0.79608
5.744,0.19331,0.42522,-0.029297,0.73047,0.79608
5.752,0.20074,0.4565,-0.035156,0.72461,0.79608
5.76,0.2119,0.48485,0,0.75,0.76667
5.768,0.21933,0.50929,0.025391,0.75391,0.7451
5.776,0.23048,0.52786,0.03125,0.74023,0.7549
5.784,0.23792,0.54154,0.015625,0.72461,0.76667
5.792,0.24535,0.55132,0.03125,0.70508,0.7451
5.8,0.25279,0.55914,0.035156,0.69531,0.7549
5.808,0.26022,0.56598,0.019531,0.68945,0.76078
5.816,0.26766,0.57087,-0.0097656,0.69922,0.78627
5.824,0.27509,0.57576,-0.025391,0.69531,0.79608
5.832,0.28625,0.58162,-0.044922,0.69531,0.8
5.84,0.29368,0.58847,-0.058594,0.68555,0.79608
5.848,0.30112,0.59629,-0.083984,0.67969,0.83137
5.856,0.30855,0.60508,-0.080078,0.67969,0.83529
5.864,0.31599,0.6129,-0.074219,0.68555,0.83137
5.872,0.32342,0.62072,-0.083984,0.68945,0.84118
5.88,0.33086,0.62757,-0.083984,0.68555,0.83137
5.888,0.33829,0.63343,-0.10352,0.81055,0.83529
5.896,0.34201,0.63832,0.064453,0.84375,0.70588
5.904,0.34944,0.6393,0.62891,0.375,0.25882
5.912,0.35316,0.63734,1.2402,-0.32422,-0.23137
5.92,0.36059,0.63245,0.78516,-0.49805,0.21373
5.928,0.36431,0.62463,-0.029297,-0.099609,0.85686
5.936,0.37175,0.61486,-0.24023,0.27539,0.96667
5.944,0.37546,0.60117,-0.17969,0.57031,0.92157
5.952,0.37918,0.58553,-0.1543,0.71484,0.90196
5.96,0.3829,0.56989,-0.14844,0.75977,0.88627
5.968,0.39033,0.55425,-0.13477,0.7793,0.87059
5.976,0.39405,0.54154,-0.125,0.79492,0.86078
5.984,0.39777,0.53079,-0.12891,0.78906,0.86078
5.992,0.40149,0.52395,-0.12891,0.79492,0.86078
6,0.40892,0.52004,-0.11914,0.79883,0.85098
6.008,0.41264,0.51808,-0.10352,0.80469,0.84118
6.016,0.41636,0.51711,-0.10352,0.79883,0.84118
6.024,0.42007,0.51613,-0.09375,0.78906,0.83137
6.032,0.42379,0.51417,-0.099609,0.78516,0.84118
6.04,0.42751,0.51222,-0.10938,0.7793,0.8451
6.048,0.43123,0.50929,-0.099609,0.77539,0.83137
6.056,0.43494,0.5044,-0.064453,0.79492,0.79608
6.064,0.43866,0.49756,-0.058594,0.7793,0.81176
6.072,0.43866,0.49071,-0.10352,0.77539,0.83529
6.08,0.43866,0.48289,-0.089844,0.7793,0.84118
6.088,0.44238,0.47507,-0.074219,0.7793,0.81569
6.096,0.44238,0.46725,-0.044922,0.77539,0.78627
6.104,0.44238,0.45748,-0.035156,0.78516,0.77059
6.112,0.44238,0.44868,-0.039062,0.77539,0.78039
6.12,0.44238,0.44086,-0.039062,0.77539,0.77059
6.128,0.44238,0.435,0.0058594,0.77539,0.73529
6.136,0.43866,0.43402,0.0097656,0.78516,0.72549
6.144,0.43494,0.43597,0.0097656,0.77539,0.72157
6.152,0.43123,0.43304,0.0097656,0.77539,0.72549
6.16,0.42751,0.42913,0.025391,0.77539,0.72157
6.168,0.42007,0.42326,0.054688,0.78516,0.69608
6.176,0.41636,0.4174,0.080078,0.77539,0.67059
6.184,0.40892,0.41153,0.080078,0.7793,0.67647
6.192,0.40149,0.40567,0.080078,0.78516,0.6902
6.2,0.39033,0.40078,0.064453,0.77539,0.70588
6.208,0.3829,0.39687,0.054688,0.77539,0.71569
6.216,0.37546,0.39394,0.03125,0.77539,0.73529
6.224,0.36431,0.39198,0,0.76562,0.76667
6.232,0.35316,0.38807,-0.025391,0.75977,0.7902
6.24,0.34201,0.38416,-0.044922,0.75391,0.81569
6.248,0.32714,0.38123,-0.064453,0.75977,0.82549
6.256,0.31599,0.3783,-0.064453,0.75,0.84118
6.264,0.30112,0.37537,-0.089844,0.75,0.85098
6.272,0.28996,0.37146,-0.089844,0.74414,0.84118
6.28,0.27509,0.36755,-0.074219,0.75,0.83529
6.288,0.26394,0.36364,-0.083984,0.75977,0.84118
6.296,0.24535,0.35973,-0.080078,0.75,0.8451
6.304,0.23048,0.35582,-0.083984,0.75391,0.84118
6.312,0.21561,0.35093,-0.080078,0.75391,0.83529
6.32,0.19703,0.348,-0.080078,0.75,0.83529
6.328,0.17844,0.34506,-0.083984,0.76562,0.84118
6.336,0.15985,0.34115,-0.074219,0.75977,0.83529
6.344,0.14126,0.33724,-0.074219,0.74414,0.84118
6.352,0.11896,0.33333,-0.070312,0.74023,0.83137
6.36,0.10409,0.32942,-0.064453,0.74414,0.82549
6.368,0.085502,0.32551,-0.070312,0.74023,0.83137
6.376,0.070632,0.32258,-0.064453,0.73438,0.82549
6.384,0.055762,0.31867,-0.048828,0.73047,0.81569
6.392,0.040892,0.31672,-0.035156,0.73047,0.8
6.4,0.026022,0.31867,-0.044922,0.74023,0.82157
6.408,0.011152,0.32551,-0.054688,0.73047,0.82549
6.416,-0.0037175,0.33529,-0.029297,0.72461,0.7902
6.424,-0.018587,0.34995,-0.054688,0.7207,0.81569
6.432,-0.033457,0.37243,-0.064453,0.7207,0.82549
6.44,-0.04461,0.40176,-0.039062,0.73047,0.80588
6.448,-0.055762,0.435,-0.029297,0.72461,0.79608
6.456,-0.070632,0.47019,-0.039062,0.7207,0.8
6.464,-0.081784,0.5044,-0.029297,0.74023,0.79608
6.472,-0.092937,0.53568,-0.039062,0.75,0.8
6.48,-0.10409,0.56305,-0.0039062,0.75,0.76667
6.488,-0.11896,0.58456,0.019531,0.76562,0.7451
6.496,-0.13011,0.60117,0.03125,0.75,0.77059
6.504,-0.14126,0.61486,0.025391,0.73047,0.74118
6.512,-0.15242,0.62463,0.050781,0.70508,0.73137
6.52,-0.16357,0.63245,0.03125,0.69922,0.7549
6.528,-0.17472,0.63832,0.035156,0.69531,0.7451
6.536,-0.18216,0.64418,-0.013672,0.70508,0.78039
6.544,-0.19331,0.65103,-0.019531,0.71484,0.7902
6.552,-0.20446,0.65982,-0.044922,0.70508,0.81569
6.56,-0.2119,0.66764,-0.058594,0.69922,0.81569
6.568,-0.22305,0.67644,-0.064453,0.70508,0.81569
6.576,-0.2342,0.68524,-0.054688,0.70508,0.81176
6.584,-0.24164,0.69404,-0.080078,0.68945,0.82549
6.592,-0.25279,0.70186,-0.080078,0.69922,0.84118
6.6,-0.26022,0.70968,-0.074219,0.70508,0.83137
6.608,-0.27138,0.71554,-0.070312,0.79492,0.82549
6.616,-0.27881,0.71848,0.035156,0.85547,0.7451
6.624,-0.28996,0.71848,0.48438,0.47461,0.34902
6.632,-0.2974,0.71652,1.1348,-0.26953,-0.22157
6.64,-0.30855,0.71065,1.1387,-0.49805,-0.24706
6.648,-0.3197,0.70186,0.070312,-0.18945,0.78039
6.656,-0.32714,0.68915,-0.22461,0.22461,0.96667
6.664,-0.33829,0.67351,-0.16992,0.56055,0.91176
6.672,-0.34572,0.65689,-0.13477,0.7207,0.87647
6.68,-0.35316,0.6393,-0.14453,0.76953,0.89608
6.688,-0.36059,0.62366,-0.13867,0.79492,0.88627
6.696,-0.36803,0.60997,-0.13477,0.79883,0.87059
6.704,-0.37546,0.59922,-0.125,0.80469,0.86078
6.712,-0.37918,0.5914,-0.11523,0.81055,0.85686
6.72,-0.38662,0.58553,-0.10352,0.80469,0.84118
6.728,-0.39405,0.58162,-0.10352,0.81055,0.8451
6.736,-0.40149,0.57771,-0.10352,0.81055,0.84118
6.744,-0.40892,0.57478,-0.089844,0.81445,0.83529
6.752,-0.41264,0.57087,-0.10352,0.81055,0.85098
6.76,-0.42007,0.56696,-0.083984,0.81055,0.82157
6.768,-0.42379,0.56207,-0.064453,0.81445,0.8
6.776,-0.42751,0.55621,-0.080078,0.79883,0.82157
6.784,-0.43123,0.55034,-0.09375,0.78906,0.84118
6.792,-0.43494,0.54252,-0.080078,0.79883,0.82157
6.8,-0.43866,0.53372,-0.074219,0.79492,0.81569
6.808,-0.44238,0.52493,-0.058594,0.80469,0.80588
6.816,-0.4461,0.51711,-0.064453,0.79883,0.81176
6.824,-0.44981,0.50929,-0.039062,0.79883,0.78039
6.832,-0.45353,0.50147,-0.013672,0.79883,0.75098
6.84,-0.45725,0.49267,-0.025391,0.79883,0.7451
6.848,-0.46097,0.48387,-0.039062,0.78906,0.78039
6.856,-0.46468,0.47507,-0.013672,0.78906,0.76078
6.864,-0.4684,0.46725,0.019531,0.78516,0.71569
6.872,-0.47212,0.45943,0.03125,0.79883,0.69608
6.88,-0.47212,0.45161,0.054688,0.78516,0.68039
6.888,-0.47584,0.44379,0.080078,0.79492,0.66078
6.896,-0.47955,0.43695,0.064453,0.77539,0.68627
6.904,-0.47955,0.43011,0.076172,0.77539,0.6902
6.912,-0.48327,0.42424,0.080078,0.7793,0.68039
6.92,-0.48327,0.41935,0.085938,0.78516,0.69608
6.928,-0.48699,0.41642,0.089844,0.77539,0.68627
6.936,-0.49071,0.41349,0.025391,0.77539,0.75098
6.944,-0.49071,0.41056,-0.0039062,0.75391,0.77647
6.952,-0.49442,0.40762,-0.019531,0.75,0.78627
6.96,-0.49814,0.40469,-0.039062,0.76562,0.8
6.968,-0.50186,0.40078,-0.064453,0.75977,0.82549
6.976,-0.50186,0.39589,-0.064453,0.75,0.82549
6.984,-0.50558,0.39003,-0.048828,0.74414,0.81176
6.992,-0.50929,0.38416,-0.064453,0.74023,0.82549
7,-0.51301,0.37928,-0.080078,0.74023,0.83529
7.008,-0.51301,0.37439,-0.070312,0.74414,0.82549
7.016,-0.51673,0.37048,-0.064453,0.74414,0.82549
7.024,-0.51673,0.36755,-0.074219,0.74414,0.83529
7.032,-0.52045,0.36364,-0.080078,0.74023,0.83529
7.04,-0.52045,0.35973,-0.074219,0.74414,0.84118
7.048,-0.52416,0.35484,-0.074219,0.74414,0.84118
7.056,-0.52416,0.35093,-0.064453,0.74414,0.82549
7.064,-0.52788,0.34604,-0.064453,0.75,0.82157
7.072,-0.52788,0.34213,-0.070312,0.75391,0.84118
7.08,-0.52788,0.33724,-0.054688,0.75391,0.82157
7.088,-0.5316,0.33333,-0.058594,0.75977,0.81569
7.096,-0.5316,0.32942,-0.048828,0.75,0.81176
7.104,-0.5316,0.32747,-0.054688,0.75391,0.81569
7.112,-0.5316,0.32649,-0.039062,0.75,0.80588
7.12,-0.53532,0.32845,-0.058594,0.75,0.83137
7.128,-0.53532,0.33431,-0.039062,0.75,0.81569
7.136,-0.53532,0.34506,-0.044922,0.75,0.8
7.144,-0.53532,0.36266,-0.029297,0.74414,0.79608
7.152,-0.53903,0.3871,-0.044922,0.73047,0.81176
7.16,-0.53903,0.4174,-0.058594,0.7207,0.82157
7.168,-0.53903,0.45259,-0.054688,0.73047,0.81569
7.176,-0.53903,0.48778,-0.058594,0.72461,0.81569
7.184,-0.53903,0.52199,-0.044922,0.74023,0.81176
7.192,-0.53903,0.55327,-0.019531,0.75,0.79608
7.2,-0.53903,0.57967,0.0058594,0.75391,0.76667
7.208,-0.53903,0.6002,0,0.75977,0.76078
7.216,-0.53903,0.61486,0.015625,0.75,0.7451
7.224,-0.53903,0.62561,0.044922,0.75,0.73529
7.232,-0.53903,0.63636,0.050781,0.72461,0.73529
7.24,-0.53903,0.64516,0.041016,0.70508,0.7451
7.248,-0.54275,0.65298,0.054688,0.70508,0.73529
7.256,-0.54275,0.66178,0.035156,0.69922,0.7451
7.264,-0.54275,0.67058,0.0058594,0.70898,0.77059
7.272,-0.54275,0.67937,-0.039062,0.70508,0.8
7.28,-0.54275,0.68915,-0.039062,0.70898,0.80588
7.288,-0.54647,0.69892,-0.058594,0.70508,0.81569
7.296,-0.54647,0.7087,-0.058594,0.69531,0.81569
7.304,-0.54647,0.7175,-0.064453,0.70898,0.83137
7.312,-0.54647,0.72532,-0.064453,0.70508,0.82549
7.32,-0.54647,0.73021,-0.054688,0.70508,0.81569
7.328,-0.54647,0.73607,-0.054688,0.69922,0.81176
7.336,-0.54647,0.74194,-0.054688,0.83008,0.81569
7.344,-0.54647,0.74487,0.11523,0.84375,0.67647
7.352,-0.54647,0.74389,0.67578,0.30078,0.17451
7.36,-0.54647,0.73998,1.1641,-0.47461,-0.28824
7.368,-0.54275,0.73021,0.67578,-0.49805,0.25882
7.376,-0.54275,0.7175,-0.048828,-0.089844,0.86667
7.384,-0.54275,0.70186,-0.22461,0.3457,0.96667
7.392,-0.54275,0.68328,-0.16016,0.62891,0.91176
7.4,-0.53903,0.66373,-0.12891,0.75,0.87647
7.408,-0.53903,0.64516,-0.099609,0.78906,0.84118
7.416,-0.53903,0.62854,-0.12891,0.79883,0.87059
7.424,-0.53903,0.61681,-0.13477,0.80469,0.87647
7.432,-0.53903,0.60704,-0.125,0.81445,0.86667
7.44,-0.53903,0.59922,-0.11523,0.82031,0.87059
7.448,-0.53903,0.59433,-0.10352,0.81445,0.84118
7.456,-0.53903,0.59042,-0.089844,0.81055,0.83137
7.464,-0.53532,0.58651,-0.074219,0.82031,0.82157
7.472,-0.53532,0.58358,-0.089844,0.80469,0.83529
7.48,-0.53532,0.57967,-0.083984,0.79883,0.82549
7.488,-0.53532,0.57478,-0.083984,0.79883,0.82157
7.496,-0.5316,0.56891,-0.058594,0.80469,0.79608
7.504,-0.5316,0.56207,-0.054688,0.80469,0.8
7.512,-0.5316,0.55523,-0.064453,0.79883,0.81176
7.52,-0.52788,0.54741,-0.058594,0.79883,0.8
7.528,-0.52788,0.53861,-0.064453,0.79492,0.79608
7.536,-0.52416,0.52884,-0.070312,0.78906,0.81176
7.544,-0.52416,0.51808,-0.054688,0.78906,0.79608
7.552,-0.52045,0.50831,-0.039062,0.79492,0.78039
7.56,-0.52045,0.49756,-0.029297,0.79492,0.77059
7.568,-0.51673,0.4868,-0.013672,0.79883,0.75098
7.576,-0.51673,0.47801,-0.0039062,0.78906,0.73137
7.584,-0.51301,0.46921,0.0097656,0.78516,0.72157
7.592,-0.50929,0.46041,0.025391,0.78906,0.70588
7.6,-0.50558,0.45259,0.041016,0.79492,0.7
7.608,-0.50558,0.44477,0.080078,0.78906,0.66078
7.616,-0.50186,0.43793,0.080078,0.78516,0.66078
7.624,-0.49814,0.43206,0.089844,0.78516,0.66471
7.632,-0.49442,0.42717,0.095703,0.7793,0.66471
7.64,-0.49442,0.42131,0.099609,0.78516,0.67059
7.648,-0.49071,0.41642,0.085938,0.78516,0.6902
7.656,-0.48699,0.41056,0.064453,0.76953,0.7098
7.664,-0.48327,0.40567,0.03125,0.76562,0.74118
7.672,-0.48327,0.40078,0.0058594,0.75977,0.77059
7.68,-0.47955,0.39589,-0.019531,0.76562,0.7902
7.688,-0.47955,0.39101,-0.019531,0.75391,0.79608
7.696,-0.47584,0.38612,-0.044922,0.75,0.8
7.704,-0.47584,0.38123,-0.058594,0.74414,0.81569
7.712,-0.47212,0.3783,-0.064453,0.73438,0.81569
7.72,-0.47212,0.37537,-0.048828,0.74023,0.81176
7.728,-0.47212,0.37146,-0.044922,0.74414,0.80588
7.736,-0.4684,0.36755,-0.083984,0.73438,0.83529
7.744,-0.4684,0.36168,-0.074219,0.73047,0.83137
7.752,-0.4684,0.35679,-0.064453,0.73438,0.82157
7.76,-0.4684,0.35093,-0.080078,0.73047,0.83529
7.768,-0.46468,0.34604,-0.054688,0.74414,0.80588
7.776,-0.46468,0.34115,-0.044922,0.75,0.79608
7.784,-0.46468,0.33627,-0.089844,0.74023,0.8451
7.792,-0.46468,0.33236,-0.083984,0.75,0.84118
7.8,-0.46468,0.32747,-0.080078,0.75391,0.83529
7.808,-0.46468,0.32356,-0.070312,0.75,0.82549
7.816,-0.46097,0.3216,-0.054688,0.75,0.80588
7.824,-0.46097,0.31965,-0.044922,0.75391,0.79608
7.832,-0.46097,0.31672,-0.064453,0.74414,0.82157
7.84,-0.46097,0.31574,-0.064453,0.74023,0.82549
7.848,-0.45725,0.31769,-0.044922,0.75,0.81176
7.856,-0.45725,0.32551,-0.035156,0.74414,0.8
7.864,-0.45725,0.3392,-0.044922,0.73438,0.81176
7.872,-0.45725,0.35973,-0.048828,0.73047,0.81569
7.88,-0.45353,0.3871,-0.035156,0.73047,0.79608
7.888,-0.45353,0.41838,-0.039062,0.7207,0.79608
7.896,-0.44981,0.45161,-0.044922,0.71484,0.80588
7.904,-0.44981,0.48583,-0.039062,0.70898,0.81569
7.912,-0.4461,0.51417,-0.048828,0.71484,0.79608
7.92,-0.4461,0.53861,-0.039062,0.72461,0.8
7.928,-0.44238,0.56207,-0.029297,0.74023,0.7902
7.936,-0.44238,0.58162,-0.013672,0.74414,0.76667
7.944,-0.43866,0.59629,0,0.75977,0.7549
7.952,-0.43866,0.60802,0.0097656,0.75,0.7549
7.96,-0.43494,0.61779,0.03125,0.73438,0.76078
7.968,-0.43494,0.62659,0.041016,0.71484,0.74118
7.976,-0.43123,0.63441,0.050781,0.69922,0.73529
7.984,-0.43123,0.64321,0.044922,0.69531,0.73137
7.992,-0.42751,0.652,0.0097656,0.69531,0.76078
8,-0.42751,0.66178,-0.0097656,0.70508,0.77647
8.008,-0.42379,0.67155,-0.064453,0.69531,0.82157
8.016,-0.42379,0.67937,-0.074219,0.69531,0.83137
8.024,-0.42007,0.68622,-0.054688,0.69922,0.81176
8.032,-0.42007,0.69404,-0.064453,0.68555,0.81569
8.04,-0.41636,0.70088,-0.080078,0.68555,0.82549
8.048,-0.41636,0.70674,-0.083984,0.68555,0.83529
8.056,-0.41264,0.71163,-0.064453,0.68555,0.81569
8.064,-0.40892,0.71359,-0.054688,0.71484,0.81569
8.072,-0.4052,0.71261,-0.070312,0.83984,0.80588
8.08,-0.40149,0.70772,0.17578,0.70898,0.61569
8.088,-0.39777,0.6999,0.84375,0.16992,0.07451
8.096,-0.39405,0.68817,1.2051,-0.46484,-0.22157
8.104,-0.39033,0.67155,0.5,-0.47852,0.46471
8.112,-0.38662,0.65494,-0.13867,0,0.93725
8.12,-0.3829,0.63734,-0.24023,0.39062,0.98235
8.128,-0.37546,0.61975,-0.14844,0.64453,0.90196
8.136,-0.37175,0.60215,-0.10938,0.75,0.85686
8.144,-0.36803,0.58651,-0.10352,0.77539,0.84118
8.152,-0.36431,0.57478,-0.13477,0.77539,0.86667
8.16,-0.35688,0.56794,-0.10938,0.79883,0.8451
8.168,-0.35316,0.56305,-0.11914,0.79492,0.85686
8.176,-0.34572,0.56012,-0.125,0.78906,0.85686
8.184,-0.33829,0.55034,-0.11914,0.79883,0.85098
8.192,-0.33086,0.53666,-0.10352,0.79492,0.84118
8.2,-0.32342,0.52786,-0.099609,0.79492,0.83137
8.208,-0.31599,0.52199,-0.083984,0.79492,0.82157
8.216,-0.30483,0.51515,-0.083984,0.79492,0.82157
8.224,-0.2974,0.50831,-0.083984,0.79883,0.81569
8.232,-0.28625,0.49951,-0.09375,0.7793,0.83529
8.24,-0.27881,0.48974,-0.09375,0.78516,0.84118
8.248,-0.26766,0.47898,-0.083984,0.77539,0.81569
8.256,-0.25651,0.46823,-0.054688,0.77539,0.7902
8.264,-0.24535,0.45748,-0.039062,0.78516,0.78039
8.272,-0.2342,0.4477,-0.044922,0.77539,0.79608
8.28,-0.22305,0.43891,-0.064453,0.76562,0.79608
8.288,-0.2119,0.43011,-0.048828,0.76953,0.78627
8.296,-0.20074,0.42131,-0.039062,0.77539,0.77059
8.304,-0.18959,0.41251,-0.013672,0.76562,0.7451
8.312,-0.17844,0.40567,0.015625,0.78516,0.72157
8.32,-0.16357,0.39883,0.025391,0.77539,0.72157
8.328,-0.15242,0.39198,0.0097656,0.76562,0.72157
8.336,-0.13755,0.38514,0.015625,0.76953,0.73137
8.344,-0.12639,0.3783,0.044922,0.77539,0.7
8.352,-0.11524,0.37243,0.070312,0.76953,0.67059
8.36,-0.10409,0.36559,0.089844,0.76953,0.66078
8.368,-0.092937,0.35875,0.089844,0.76953,0.67647
8.376,-0.081784,0.35288,0.080078,0.76562,0.69608
8.384,-0.070632,0.34702,0.076172,0.75977,0.7
8.392,-0.05948,0.34115,0.041016,0.76562,0.73529
8.4,-0.04461,0.33627,0.03125,0.75391,0.7451
8.408,-0.033457,0.33236,-0.0039062,0.75,0.77059
8.416,-0.018587,0.32845,-0.029297,0.74414,0.7902
8.424,-0.0037175,0.32551,-0.044922,0.73047,0.81176
8.432,0.011152,0.32258,-0.048828,0.74023,0.81569
8.44,0.022305,0.31867,-0.058594,0.74414,0.81569
8.448,0.033457,0.31476,-0.070312,0.74414,0.83529
8.456,0.04461,0.30987,-0.080078,0.73047,0.82549
8.464,0.055762,0.30499,-0.083984,0.74414,0.83137
8.472,0.066915,0.3001,-0.080078,0.75,0.82157
8.48,0.078067,0.29521,-0.089844,0.74023,0.83529
8.488,0.089219,0.29032,-0.10352,0.73047,0.85098
8.496,0.10037,0.28543,-0.089844,0.75,0.85686
8.504,0.11152,0.28152,-0.080078,0.75,0.83137
8.512,0.12268,0.27859,-0.070312,0.74414,0.83529
8.52,0.13011,0.27664,-0.064453,0.75,0.81569
8.528,0.14126,0.2737,-0.080078,0.74023,0.82549
8.536,0.15242,0.26882,-0.083984,0.74023,0.84118
8.544,0.16357,0.26393,-0.064453,0.74414,0.81569
8.552,0.171,0.26002,-0.064453,0.73047,0.82157
8.56,0.18216,0.25611,-0.064453,0.73047,0.82157
8.568,0.19331,0.25318,-0.064453,0.73047,0.82549
8.576,0.20074,0.2522,-0.044922,0.7207,0.80588
8.584,0.2119,0.25513,-0.048828,0.71484,0.81569
8.592,0.21933,0.26393,-0.054688,0.7207,0.81176
8.6,0.23048,0.27859,-0.039062,0.71484,0.79608
8.608,0.23792,0.30205,-0.029297,0.7207,0.7902
8.616,0.24535,0.32747,-0.044922,0.71484,0.79608
8.624,0.25651,0.35484,-0.039062,0.71484,0.8
8.632,0.26394,0.38905,-0.044922,0.7207,0.79608
8.64,0.27138,0.4262,-0.054688,0.71484,0.81569
8.648,0.27881,0.46237,-0.029297,0.73047,0.7902
8.656,0.28625,0.4956,-0.0097656,0.75,0.77647
8.664,0.29368,0.52395,-0.0039062,0.75391,0.77059
8.672,0.30112,0.54643,0.019531,0.74023,0.7549
8.68,0.30483,0.56305,0.035156,0.7207,0.7451
8.688,0.30855,0.57576,0.044922,0.69922,0.73529
8.696,0.31599,0.58553,0.050781,0.68945,0.7451
8.704,0.3197,0.59531,0.044922,0.68555,0.7451
8.712,0.32342,0.60215,0.015625,0.69922,0.76078
8.72,0.32714,0.60704,-0.035156,0.69531,0.8
8.728,0.33086,0.61388,-0.064453,0.68945,0.82157
8.736,0.33457,0.62268,-0.039062,0.69531,0.79608
8.744,0.33829,0.6305,-0.070312,0.67969,0.81569
8.752,0.33829,0.6393,-0.074219,0.68555,0.82157
8.76,0.34201,0.64907,-0.064453,0.68945,0.81569
8.768,0.34201,0.65787,-0.070312,0.70508,0.82549
8.776,0.34572,0.66667,-0.058594,0.68945,0.80588
8.784,0.34572,0.67351,-0.080078,0.74023,0.82549
8.792,0.34572,0.67937,-0.083984,0.84375,0.77647
8.8,0.34572,0.68231,0.33008,0.5957,0.48431
8.808,0.34572,0.68231,1.084,-0.058594,-0.11765
8.816,0.34572,0.6784,1.2402,-0.49805,-0.25686
8.824,0.34572,0.67253,0.20508,-0.24414,0.6902
8.832,0.34572,0.66178,-0.22461,0.12109,0.96667
8.84,0.34201,0.64712,-0.24414,0.49414,0.93137
8.848,0.34201,0.6305,-0.14453,0.69531,0.88627
8.856,0.33829,0.6129,-0.12891,0.76562,0.87647
8.864,0.33457,0.59531,-0.125,0.78906,0.86667
8.872,0.33086,0.57869,-0.11523,0.79883,0.85098
8.88,0.32714,0.565,-0.11914,0.79883,0.85686
8.888,0.32342,0.55425,-0.099609,0.79883,0.83137
8.896,0.31599,0.54643,-0.09375,0.80469,0.82549
8.904,0.30855,0.54154,-0.10938,0.79883,0.84118
8.912,0.30483,0.53763,-0.11914,0.79883,0.8451
8.92,0.2974,0.5347,-0.10938,0.79883,0.85098
8.928,0.28996,0.53177,-0.09375,0.79883,0.82157
8.936,0.28253,0.52981,-0.083984,0.78906,0.82157
8.944,0.27509,0.52688,-0.070312,0.79492,0.81176
8.952,0.26766,0.52297,-0.074219,0.79492,0.81569
8.96,0.25651,0.51808,-0.080078,0.78906,0.81569
8.968,0.24535,0.51026,-0.058594,0.78906,0.80588
8.976,0.2342,0.50147,-0.054688,0.79883,0.8
8.984,0.22305,0.49267,-0.058594,0.7793,0.7902
8.992,0.2119,0.48289,-0.039062,0.79492,0.77059
9,0.19703,0.4741,-0.019531,0.78906,0.75098
9.008,0.18587,0.46432,-0.035156,0.79492,0.77059
9.016,0.17472,0.4565,-0.054688,0.7793,0.79608
9.024,0.16357,0.44966,-0.029297,0.7793,0.76667
9.032,0.1487,0.44184,0,0.78516,0.74118
9.04,0.13383,0.43402,0.044922,0.78906,0.69608
9.048,0.12268,0.4262,0.041016,0.77539,0.7
9.056,0.10781,0.41838,0.054688,0.77539,0.68039
9.064,0.092937,0.41056,0.076172,0.7793,0.67059
9.072,0.078067,0.40371,0.085938,0.7793,0.67059
9.08,0.066915,0.39589,0.089844,0.78906,0.67647
9.088,0.052045,0.39003,0.11523,0.78516,0.6549
9.096,0.040892,0.38612,0.10547,0.77539,0.67059
9.104,0.02974,0.38221,0.070312,0.77539,0.7
9.112,0.018587,0.37928,0.044922,0.77539,0.74118
9.12,0.0037175,0.37732,0.0097656,0.77539,0.77059
9.128,-0.0074349,0.37439,0.0058594,0.75977,0.77647
9.136,-0.018587,0.3695,-0.019531,0.75977,0.7902
9.144,-0.02974,0.36461,-0.039062,0.75977,0.81176
9.152,-0.040892,0.35973,-0.039062,0.76562,0.81176
9.16,-0.052045,0.35386,-0.044922,0.75977,0.81569
9.168,-0.063197,0.348,-0.054688,0.75391,0.80588
9.176,-0.074349,0.34311,-0.080078,0.75,0.84118
9.184,-0.085502,0.33822,-0.064453,0.75,0.83137
9.192,-0.10037,0.33333,-0.044922,0.75977,0.81569
9.2,-0.11152,0.32845,-0.074219,0.75,0.83529
9.208,-0.12268,0.32551,-0.083984,0.74414,0.84118
9.216,-0.13383,0.32258,-0.070312,0.75,0.82549
9.224,-0.14498,0.31867,-0.054688,0.75,0.82157
9.232,-0.15613,0.31476,-0.070312,0.74414,0.83137
9.24,-0.16357,0.30987,-0.070312,0.74023,0.82157
9.248,-0.17472,0.30596,-0.054688,0.75391,0.81569
9.256,-0.18587,0.30108,-0.039062,0.75,0.80588
9.264,-0.19703,0.29717,-0.029297,0.75977,0.79608
9.272,-0.20446,0.29326,-0.039062,0.75,0.81176
9.28,-0.21561,0.29032,-0.048828,0.75,0.82157
9.288,-0.22677,0.28837,-0.039062,0.74414,0.81176
9.296,-0.2342,0.28935,-0.029297,0.74414,0.79608
9.304,-0.24535,0.29326,-0.013672,0.73438,0.7902
9.312,-0.25279,0.30205,-0.029297,0.74023,0.79608
9.32,-0.26022,0.31574,-0.025391,0.74414,0.79608
9.328,-0.27138,0.33627,-0.035156,0.73438,0.8
9.336,-0.27881,0.36461,-0.039062,0.73047,0.80588
9.344,-0.28625,0.39687,-0.039062,0.73047,0.81176
9.352,-0.2974,0.43304,-0.029297,0.73047,0.7902
9.36,-0.30483,0.46921,-0.019531,0.74414,0.78627
9.368,-0.31599,0.50342,-0.0039062,0.75391,0.77647
9.376,-0.32342,0.5347,0.0097656,0.77539,0.7549
9.384,-0.33457,0.56012,0.025391,0.76953,0.7451
9.392,-0.34201,0.58162,0.035156,0.75,0.7549
9.4,-0.34944,0.59922,0.054688,0.73438,0.73529
9.408,-0.36059,0.61193,0.064453,0.72461,0.72549
9.416,-0.36803,0.61975,0.054688,0.70898,0.74118
9.424,-0.37546,0.62757,0.041016,0.70508,0.7451
9.432,-0.3829,0.63539,0.0058594,0.70508,0.76667
9.44,-0.39033,0.64321,-0.0097656,0.70898,0.78039
9.448,-0.39777,0.652,-0.044922,0.70508,0.80588
9.456,-0.4052,0.66178,-0.044922,0.69922,0.81569
9.464,-0.41264,0.67155,-0.054688,0.69531,0.81569
9.472,-0.41636,0.68133,-0.058594,0.70508,0.82157
9.48,-0.42379,0.69208,-0.070312,0.69922,0.81569
9.488,-0.42751,0.70283,-0.048828,0.70508,0.8
9.496,-0.43494,0.71261,-0.039062,0.70898,0.79608
9.504,-0.43866,0.71945,-0.070312,0.7793,0.83137
9.512,-0.44238,0.72336,0.019531,0.84961,0.76078
9.52,-0.44981,0.72532,0.41992,0.54492,0.41569
9.528,-0.45353,0.72434,1.1348,-0.20508,-0.21176
9.536,-0.45725,0.72043,1.1797,-0.49805,-0.27255
9.544,-0.45725,0.71359,0.15625,-0.23438,0.71569
9.552,-0.46097,0.70283,-0.20898,0.19531,0.95686
9.56,-0.46468,0.68719,-0.22852,0.55078,0.96078
9.568,-0.46468,0.6696,-0.11914,0.73047,0.87059
9.576,-0.4684,0.65103,-0.10938,0.7793,0.85098
9.584,-0.4684,0.63343,-0.10938,0.80469,0.8451
9.592,-0.4684,0.61779,-0.10938,0.81445,0.86078
9.6,-0.4684,0.60411,-0.11523,0.81055,0.8451
9.608,-0.4684,0.59335,-0.10938,0.81445,0.84118
9.616,-0.4684,0.58651,-0.099609,0.82031,0.83529
9.624,-0.4684,0.58162,-0.083984,0.83008,0.82549
9.632,-0.4684,0.57869,-0.10938,0.81445,0.84118
9.64,-0.4684,0.57674,-0.089844,0.80469,0.82157
9.648,-0.4684,0.5738,-0.083984,0.81055,0.83137
9.656,-0.4684,0.57087,-0.089844,0.81445,0.83529
9.664,-0.4684,0.56598,-0.083984,0.81055,0.82157
9.672,-0.46468,0.56109,-0.070312,0.80469,0.80588
9.68,-0.46468,0.55425,-0.054688,0.79883,0.78627
9.688,-0.46468,0.54643,-0.058594,0.80469,0.79608
9.696,-0.46468,0.53763,-0.064453,0.81055,0.80588
9.704,-0.46097,0.52786,-0.058594,0.79883,0.79608
9.712,-0.46097,0.51906,-0.054688,0.79883,0.80588
9.72,-0.46097,0.51026,-0.064453,0.79883,0.7902
9.728,-0.46097,0.49951,-0.029297,0.80469,0.76078
9.736,-0.46097,0.48778,-0.013672,0.80469,0.7451
9.744,-0.45725,0.47703,-0.0039062,0.79492,0.73137
9.752,-0.45725,0.46725,-0.0039062,0.79883,0.72157
9.76,-0.45725,0.45748,0.03125,0.79883,0.69608
9.768,-0.45725,0.44868,0.050781,0.79492,0.7
9.776,-0.45725,0.43988,0.054688,0.79883,0.70588
9.784,-0.45725,0.43206,0.064453,0.78516,0.67059
9.792,-0.45725,0.42424,0.095703,0.77539,0.65098
9.8,-0.45725,0.4174,0.10547,0.7793,0.6451
9.808,-0.45725,0.41153,0.11523,0.7793,0.65098
9.816,-0.45725,0.40567,0.10547,0.7793,0.67647
9.824,-0.45725,0.3998,0.070312,0.77539,0.71569
9.832,-0.45725,0.39394,0.025391,0.77539,0.76078
9.84,-0.45725,0.38807,0.0097656,0.75391,0.76667
9.848,-0.45725,0.38319,0,0.75,0.76667
9.856,-0.45725,0.3783,-0.013672,0.75391,0.77059
9.864,-0.45725,0.37243,-0.039062,0.75,0.81176
9.872,-0.45725,0.36755,-0.064453,0.74414,0.83529
9.88,-0.45725,0.36168,-0.064453,0.74023,0.83529
9.888,-0.45725,0.35484,-0.058594,0.73438,0.82549
9.896,-0.46097,0.34995,-0.048828,0.75,0.81569
9.904,-0.46097,0.34409,-0.064453,0.73047,0.81569
9.912,-0.46097,0.34115,-0.070312,0.73438,0.82549
9.92,-0.46097,0.33822,-0.064453,0.73047,0.81569
9.928,-0.46097,0.33431,-0.039062,0.73438,0.7902
9.936,-0.46097,0.3304,-0.080078,0.74023,0.84118
9.944,-0.46097,0.32551,-0.083984,0.73047,0.85686
9.952,-0.46097,0.3216,-0.080078,0.73047,0.83529
9.96,-0.46097,0.31672,-0.074219,0.73438,0.83137
9.968,-0.46097,0.31183,-0.070312,0.74414,0.82157
9.976,-0.46097,0.30596,-0.058594,0.75,0.81569
9.984,-0.46097,0.29912,-0.080078,0.74414,0.83529
9.992,-0.46097,0.29423,-0.080078,0.75977,0.85098
10,-0.45725,0.28935,-0.064453,0.75,0.83529
10.008,-0.45725,0.28739,-0.044922,0.74414,0.80588
10.016,-0.45725,0.28837,-0.054688,0.75,0.80588
10.024,-0.45725,0.29228,-0.048828,0.73438,0.81176
10.032,-0.45353,0.30108,-0.039062,0.75,0.79608
10.04,-0.45353,0.31769,-0.035156,0.73047,0.81176
10.048,-0.44981,0.34213,-0.070312,0.73047,0.84118
10.056,-0.44981,0.37341,-0.054688,0.73047,0.81569
10.064,-0.4461,0.4086,-0.035156,0.74023,0.79608
10.072,-0.44238,0.44477,-0.0097656,0.74023,0.7549
10.08,-0.44238,0.47996,0.0058594,0.75,0.76078
10.088,-0.43866,0.51222,0.025391,0.75391,0.7451
10.096,-0.43494,0.54057,0.03125,0.74023,0.7549
10.104,-0.43123,0.56305,0.054688,0.70898,0.73529
10.112,-0.42751,0.57967,0.060547,0.69922,0.74118
10.12,-0.42007,0.59042,0.050781,0.70508,0.7549
10.128,-0.41636,0.60215,0,0.68555,0.7902
10.136,-0.41264,0.61193,-0.039062,0.68945,0.81569
10.144,-0.4052,0.62072,-0.048828,0.69922,0.82157
10.152,-0.39777,0.6305,-0.039062,0.69531,0.81176
10.16,-0.39405,0.6393,-0.054688,0.68555,0.81176
10.168,-0.38662,0.64907,-0.080078,0.67578,0.82549
10.176,-0.37546,0.65787,-0.089844,0.67969,0.82549
10.184,-0.36803,0.66862,-0.080078,0.67578,0.82157
10.192,-0.36059,0.6784,-0.058594,0.67969,0.81176
10.2,-0.35316,0.68817,-0.070312,0.73438,0.82157
10.208,-0.34572,0.69501,-0.083984,0.84375,0.84118
10.216,-0.33829,0.6999,0.29102,0.64062,0.5451
10.224,-0.33086,0.70674,1.0547,-0.048828,-0.082353
10.232,-0.32342,0.70968,1.2344,-0.49805,-0.25294
10.24,-0.31227,0.70968,0.30469,-0.30859,0.61569
10.248,-0.30483,0.70772,-0.18945,0.085938,0.95686
10.256,-0.29368,0.70283,-0.22461,0.4707,0.96078
10.264,-0.28253,0.69501,-0.16016,0.66992,0.90588
10.272,-0.27509,0.68328,-0.13477,0.74414,0.86667
10.28,-0.26766,0.66667,-0.13477,0.75391,0.8451
10.288,-0.25651,0.64907,-0.11914,0.7793,0.8451
10.296,-0.24535,0.62952,-0.11523,0.78906,0.85098
10.304,-0.2342,0.61095,-0.089844,0.82031,0.86667
10.312,-0.22305,0.59531,-0.10938,0.80469,0.85686
10.32,-0.20818,0.58358,-0.13477,0.77539,0.8451
10.328,-0.19331,0.57283,-0.11523,0.75977,0.81569
10.336,-0.17844,0.565,-0.099609,0.77539,0.81176
10.344,-0.16357,0.55914,-0.074219,0.79492,0.81176
10.352,-0.1487,0.55523,-0.080078,0.76953,0.8
10.36,-0.13383,0.55132,-0.058594,0.78906,0.7902
10.368,-0.12268,0.54643,-0.064453,0.79492,0.81176
10.376,-0.10781,0.54154,-0.083984,0.76953,0.82549
10.384,-0.096654,0.53568,-0.070312,0.77539,0.80588
10.392,-0.081784,0.52884,-0.044922,0.77539,0.78627
10.4,-0.066915,0.52004,-0.058594,0.75977,0.78039
10.408,-0.048327,0.51222,-0.064453,0.77539,0.79608
10.416,-0.033457,0.5044,-0.070312,0.76562,0.7902
10.424,-0.018587,0.49658,-0.039062,0.77539,0.78627
10.432,-0.0037175,0.48778,-0.0097656,0.79492,0.77059
10.44,0.011152,0.47898,-0.013672,0.79883,0.75098
10.448,0.026022,0.46921,0.0058594,0.74414,0.71569
10.456,0.040892,0.46041,0.015625,0.75,0.7
10.464,0.05948,0.45161,0.035156,0.77539,0.69608
10.472,0.078067,0.44379,0.064453,0.7793,0.67647
10.48,0.096654,0.43597,0.089844,0.76953,0.6549
10.488,0.11524,0.42815,0.095703,0.75,0.6451
10.496,0.13383,0.42033,0.10547,0.75,0.66471
10.504,0.15613,0.41251,0.125,0.75391,0.67647
10.512,0.17844,0.40665,0.085938,0.75,0.7
10.52,0.19703,0.40176,0.064453,0.74023,0.70588
10.528,0.21561,0.39687,0.054688,0.73047,0.7
10.536,0.2342,0.39198,0.060547,0.74023,0.72549
10.544,0.25279,0.38612,-0.019531,0.74414,0.78627
10.552,0.27138,0.38025,-0.039062,0.76953,0.83137
10.56,0.29368,0.37341,-0.048828,0.73047,0.80588
10.568,0.31227,0.36755,-0.058594,0.71484,0.79608
10.576,0.33457,0.36266,-0.070312,0.73047,0.8
10.584,0.35316,0.35679,-0.058594,0.75,0.84118
10.592,0.37175,0.35093,-0.074219,0.75391,0.85098
10.6,0.38662,0.34604,-0.054688,0.71484,0.79608
10.608,0.4052,0.34213,-0.064453,0.70508,0.8
10.616,0.42007,0.33822,-0.083984,0.71484,0.82549
10.624,0.43866,0.33431,-0.09375,0.73438,0.85098
10.632,0.45725,0.32942,-0.083984,0.70508,0.80588
10.64,0.47584,0.32551,-0.089844,0.71484,0.81569
10.648,0.49071,0.3216,-0.070312,0.73047,0.84118
10.656,0.50929,0.31769,-0.064453,0.73047,0.8451
10.664,0.52416,0.31378,-0.074219,0.7207,0.80588
10.672,0.53903,0.30987,-0.058594,0.72461,0.8
10.68,0.5539,0.30596,-0.083984,0.73047,0.83137
10.688,0.56877,0.30205,-0.070312,0.70508,0.79608
10.696,0.57993,0.29717,-0.064453,0.7207,0.8
10.704,0.5948,0.29423,-0.048828,0.70508,0.78627
10.712,0.60595,0.29326,-0.044922,0.72461,0.8
10.72,0.6171,0.29423,-0.039062,0.70898,0.78039
10.728,0.62825,0.3001,-0.025391,0.71484,0.77647
10.736,0.63941,0.31085,-0.039062,0.70898,0.7902
10.744,0.65056,0.32747,-0.039062,0.74023,0.81176
10.752,0.65799,0.35191,-0.019531,0.74414,0.77059
10.76,0.66543,0.38025,0.0097656,0.73047,0.7098
10.768,0.67286,0.41251,0.064453,0.74414,0.6549
10.776,0.6803,0.44575,0.041016,0.72461,0.69608
10.784,0.68773,0.47703,0.03125,0.70508,0.7451
10.792,0.69517,0.5044,0.044922,0.70508,0.76667
10.8,0.7026,0.52786,0.041016,0.66992,0.71569
10.808,0.71004,0.54448,0.0058594,0.6543,0.70588
10.816,0.71747,0.55718,-0.025391,0.68945,0.77059
10.824,0.72491,0.56891,-0.019531,0.70508,0.77647
10.832,0.73234,0.57771,-0.048828,0.65039,0.74118
10.84,0.73978,0.58553,-0.080078,0.66016,0.79608
10.848,0.74721,0.59433,-0.089844,0.67578,0.82157
10.856,0.75093,0.60313,-0.070312,0.70508,0.84118
10.864,0.75836,0.6129,-0.064453,0.66406,0.76667
10.872,0.76208,0.6217,-0.048828,0.6543,0.74118
10.88,0.7658,0.6305,-0.070312,0.66406,0.75098
10.888,0.76952,0.64027,-0.083984,0.84961,0.80588
10.896,0.77695,0.65005,0.15625,0.85547,0.61961
10.904,0.77695,0.65787,0.84375,0.18945,0.088235
10.912,0.78067,0.66373,1.3145,-0.49805,-0.31176
10.92,0.78067,0.66764,0.6543,-0.49805,0.26471
10.928,0.78439,0.67058,-0.089844,-0.070312,0.83529
10.936,0.78439,0.67351,-0.23438,0.33984,0.91569
10.944,0.78439,0.67351,-0.17383,0.60938,0.87059
10.952,0.78439,0.67155,-0.14844,0.71484,0.84118
10.96,0.7881,0.66667,-0.1543,0.75977,0.83137
10.968,0.7881,0.65787,-0.099609,0.75,0.76078
10.976,0.7881,0.64516,-0.125,0.76953,0.7902
10.984,0.79182,0.6305,-0.13867,0.75391,0.83137
10.992,0.79182,0.61388,-0.12891,0.79883,0.85686
11,0.79554,0.59726,-0.089844,0.7793,0.77059
11.008,0.79554,0.58358,-0.10938,0.73438,0.7451
11.016,0.79926,0.57283,-0.11523,0.7207,0.76078
11.024,0.79926,0.56305,-0.12891,0.74414,0.8
11.032,0.80297,0.55523,-0.09375,0.77539,0.81569
11.04,0.80669,0.54936,-0.080078,0.74023,0.73137
11.048,0.81041,0.54545,-0.089844,0.73047,0.72157
11.056,0.81413,0.54154,-0.09375,0.72461,0.73529
11.064,0.81784,0.53959,-0.083984,0.75,0.7451
11.072,0.82156,0.53666,-0.080078,0.76953,0.77059
11.08,0.82528,0.53275,-0.074219,0.74414,0.75098
11.088,0.829,0.52786,-0.044922,0.73047,0.68039
11.096,0.83271,0.52102,-0.064453,0.72461,0.7098
11.104,0.83643,0.51417,-0.058594,0.73047,0.71569
11.112,0.84015,0.50733,-0.064453,0.69922,0.67059
11.12,0.84758,0.49951,-0.054688,0.69531,0.67647
11.128,0.8513,0.49071,-0.039062,0.75,0.7
11.136,0.85874,0.48192,-0.0097656,0.73438,0.68039
11.144,0.86617,0.47312,0.025391,0.72461,0.62549
11.152,0.86989,0.46432,0.054688,0.68555,0.55098
11.16,0.87732,0.4565,0.054688,0.73438,0.5902
11.168,0.88476,0.44868,0.085938,0.74414,0.6
11.176,0.88848,0.44086,0.11523,0.76562,0.6098
11.184,0.89591,0.43304,0.125,0.70898,0.53922
11.192,0.89963,0.4262,0.125,0.67969,0.51569
11.2,0.90706,0.41935,0.070312,0.68945,0.57059
11.208,0.9145,0.41349,0.035156,0.7207,0.6549
11.216,0.91822,0.4086,0.0097656,0.72461,0.7
11.224,0.92565,0.40371,-0.013672,0.66992,0.62941
11.232,0.92937,0.39883,-0.054688,0.6543,0.6549
11.24,0.93309,0.39394,-0.039062,0.66992,0.65098
11.248,0.9368,0.38905,-0.048828,0.67969,0.71569
11.256,0.94052,0.38416,-0.070312,0.70508,0.75098
11.264,0.94424,0.38025,-0.080078,0.71484,0.76078
11.272,0.94796,0.37439,-0.064453,0.66016,0.68627
11.28,0.95167,0.3695,-0.083984,0.63477,0.66078
11.288,0.95539,0.36559,-0.083984,0.625,0.66471
11.296,0.95539,0.3607,-0.074219,0.67578,0.72157
11.304,0.95911,0.35777,-0.074219,0.67969,0.74118
11.312,0.95911,0.35484,-0.089844,0.65039,0.69608
11.32,0.95911,0.35093,-0.10352,0.6543,0.71569
11.328,0.95911,0.34604,-0.083984,0.66016,0.69608
11.336,0.95911,0.34115,-0.099609,0.65039,0.6902
11.344,0.95911,0.33627,-0.10352,0.67969,0.73137
11.352,0.95911,0.33138,-0.080078,0.6543,0.6902
11.36,0.95911,0.32747,-0.070312,0.71484,0.78039
11.368,0.95911,0.32454,-0.074219,0.67578,0.71569
11.376,0.95911,0.32063,-0.064453,0.60547,0.61569
11.384,0.95539,0.31769,-0.054688,0.65039,0.67059
11.392,0.95539,0.31672,-0.064453,0.67578,0.6902
11.4,0.95167,0.31965,-0.044922,0.66016,0.66078
11.408,0.95167,0.32551,-0.025391,0.64453,0.62941
11.416,0.94796,0.33431,-0.013672,0.69922,0.68627
11.424,0.94796,0.35093,-0.013672,0.73438,0.7
11.432,0.94424,0.37243,-0.0097656,0.6543,0.64118
11.44,0.94424,0.3998,0.03125,0.63477,0.60588
11.448,0.94052,0.43109,0.044922,0.64453,0.62549
11.456,0.9368,0.46334,0.03125,0.64453,0.67059
11.464,0.9368,0.49462,0.025391,0.66406,0.70588
11.472,0.93309,0.52199,-0.025391,0.625,0.69608
11.48,0.92937,0.54545,-0.058594,0.57422,0.67647
11.488,0.92565,0.56403,-0.074219,0.5957,0.7098
11.496,0.92565,0.57869,-0.080078,0.61523,0.72549
11.504,0.92193,0.58749,-0.070312,0.625,0.7451
11.512,0.92193,0.59433,-0.074219,0.59961,0.71569
11.52,0.92193,0.60215,-0.089844,0.60938,0.72157
11.528,0.92193,0.60997,-0.09375,0.625,0.71569
11.536,0.92193,0.61877,-0.074219,0.63477,0.7549
11.544,0.92193,0.62757,-0.099609,0.68945,0.7451
11.552,0.92565,0.63539,0.019531,0.76953,0.66078
11.56,0.92937,0.64516,0.49414,0.45508,0.32353
11.568,0.92937,0.65494,1.2852,-0.28516,-0.25686
11.576,0.9368,0.66471,1.3633,-0.49805,-0.32157
11.584,0.94424,0.67449,0.15625,-0.30469,0.65098
11.592,0.95167,0.68426,-0.21875,0.089844,0.86078
11.6,0.96283,0.6911,-0.25,0.43555,0.86667
11.608,0.97398,0.69599,-0.16992,0.625,0.82157
11.616,0.98885,0.69892,-0.12891,0.70898,0.80588
11.624,1.0037,0.6999,-0.11914,0.72461,0.77647
11.632,1.0223,0.69795,-0.14453,0.74414,0.8
11.64,1.0372,0.69306,-0.13477,0.75391,0.80588
11.648,1.0558,0.68328,-0.12891,0.72461,0.78627
11.656,1.0706,0.6696,-0.13477,0.73438,0.8
11.664,1.0892,0.65298,-0.12891,0.73047,0.76667
11.672,1.1078,0.63441,-0.10938,0.76562,0.7549
11.68,1.1264,0.61584,-0.125,0.75391,0.8
11.688,1.145,0.59824,-0.10938,0.74023,0.81176
11.696,1.1673,0.58456,-0.089844,0.72461,0.7549
11.704,1.1822,0.57283,-0.09375,0.76953,0.78039
11.712,1.2007,0.565,-0.099609,0.74414,0.7902
11.72,1.2156,0.55816,-0.10352,0.75,0.76078
11.728,1.2305,0.55327,-0.083984,0.73047,0.72549
11.736,1.2454,0.54741,-0.080078,0.74023,0.72549
11.744,1.2602,0.54252,-0.070312,0.73438,0.7549
11.752,1.2714,0.53666,-0.054688,0.7793,0.77059
11.76,1.2862,0.52981,-0.048828,0.75391,0.74118
11.768,1.2937,0.52102,-0.054688,0.75,0.73529
11.776,1.3048,0.51026,-0.019531,0.74023,0.70588
11.784,1.3123,0.49951,-0.039062,0.76953,0.72157
11.792,1.3197,0.48778,-0.013672,0.75977,0.7098
11.8,1.3234,0.47703,0.0097656,0.78516,0.72157
11.808,1.3271,0.46628,0.044922,0.79492,0.6902
11.816,1.3271,0.45748,0.064453,0.72461,0.60588
11.824,1.3309,0.44868,0.085938,0.74023,0.58431
11.832,1.3271,0.43988,0.099609,0.73438,0.6098
11.84,1.3271,0.43206,0.11523,0.76562,0.62941
11.848,1.3234,0.42522,0.16602,0.78906,0.59608
11.856,1.3197,0.41838,0.089844,0.75391,0.66471
11.864,1.316,0.41251,0.044922,0.69531,0.66078
11.872,1.3123,0.40762,0.03125,0.69922,0.68627
11.88,1.3048,0.40371,-0.0097656,0.74023,0.7451
11.888,1.3011,0.40078,-0.044922,0.74414,0.77059
11.896,1.29,0.39785,-0.054688,0.70898,0.7451
11.904,1.2825,0.39589,-0.029297,0.69922,0.7451
11.912,1.2677,0.39394,-0.039062,0.73047,0.76078
11.92,1.2565,0.39101,-0.058594,0.69922,0.76667
11.928,1.2454,0.38905,-0.070312,0.70508,0.77059
11.936,1.2305,0.38612,-0.064453,0.69922,0.7549
11.944,1.2156,0.38221,-0.058594,0.69922,0.76667
11.952,1.2007,0.3783,-0.064453,0.71484,0.78627
11.96,1.1859,0.37537,-0.064453,0.70898,0.79608
11.968,1.171,0.37243,-0.070312,0.66992,0.73137
11.976,1.1561,0.3695,-0.064453,0.68945,0.72549
11.984,1.1413,0.36559,-0.070312,0.71484,0.7902
11.992,1.1264,0.36266,-0.089844,0.73438,0.83137
12,1.1078,0.35875,-0.09375,0.70508,0.77059
12.008,1.0929,0.35582,-0.083984,0.69531,0.7451
12.016,1.0743,0.35386,-0.083984,0.68945,0.77059
12.024,1.0595,0.34995,-0.074219,0.72461,0.78039
12.032,1.0483,0.34409,-0.064453,0.74023,0.80588
12.04,1.0335,0.33822,-0.039062,0.72461,0.74118
12.048,1.0186,0.33431,-0.019531,0.74414,0.73529
12.056,1.0074,0.33138,-0.013672,0.74023,0.72549
12.064,0.99628,0.33333,-0.0097656,0.77539,0.76667
12.072,0.98513,0.34018,0.015625,0.76953,0.72549
12.08,0.97398,0.35386,0.054688,0.73438,0.68627
12.088,0.96654,0.37439,0.044922,0.67578,0.67059
12.096,0.95539,0.40078,0.060547,0.6543,0.65098
12.104,0.94424,0.42815,0.064453,0.68555,0.70588
12.112,0.9368,0.45455,0.015625,0.68945,0.73137
12.12,0.92937,0.48485,-0.029297,0.67969,0.75098
12.128,0.91822,0.51515,-0.048828,0.69922,0.79608
12.136,0.91078,0.5435,-0.044922,0.70508,0.78627
12.144,0.90335,0.56696,-0.064453,0.66016,0.75098
12.152,0.89591,0.58553,-0.089844,0.65039,0.81176
12.16,0.88848,0.59922,-0.083984,0.70898,0.8451
12.168,0.88104,0.61095,-0.083984,0.67969,0.79608
12.176,0.87732,0.61877,-0.064453,0.66406,0.7451
12.184,0.86989,0.62757,-0.089844,0.71484,0.74118
12.192,0.86245,0.63636,-0.09375,0.84961,0.77059
12.2,0.85502,0.64516,0.29492,0.65039,0.51569
12.208,0.84758,0.65396,1.1445,-0.074219,-0.12745
12.216,0.84015,0.6608,1.3848,-0.49805,-0.32157
12.224,0.83271,0.6696,0.40039,-0.4043,0.5098
12.232,0.82528,0.67937,-0.18359,0.054688,0.86667
12.24,0.81413,0.68915,-0.25391,0.42969,0.88627
12.248,0.80669,0.69795,-0.1543,0.70898,0.85686
12.256,0.79926,0.70674,-0.12891,0.79492,0.88039
12.264,0.79182,0.71261,-0.13477,0.80469,0.83137
12.272,0.78067,0.71652,-0.13477,0.79883,0.83137
12.28,0.77323,0.72141,-0.125,0.78906,0.8
12.288,0.7658,0.72336,-0.11523,0.79492,0.78627
12.296,0.75836,0.71945,-0.12891,0.77539,0.79608
12.304,0.75093,0.71065,-0.10938,0.79492,0.78039
12.312,0.74349,0.69892,-0.11523,0.82031,0.82157
12.32,0.73606,0.68133,-0.10352,0.82422,0.81569
12.328,0.72491,0.6608,-0.10938,0.81055,0.82157
12.336,0.71747,0.6393,-0.10352,0.78906,0.7902
12.344,0.70632,0.61779,-0.089844,0.77539,0.77059
12.352,0.69888,0.59726,-0.099609,0.80469,0.8
12.36,0.69145,0.58065,-0.089844,0.81055,0.7902
12.368,0.68401,0.56794,-0.074219,0.79883,0.77647
12.376,0.67658,0.55914,-0.070312,0.78906,0.78039
12.384,0.66914,0.5523,-0.054688,0.79492,0.76667
12.392,0.66171,0.54741,-0.064453,0.83398,0.81569
12.4,0.65428,0.5435,-0.070312,0.78516,0.74118
12.408,0.64684,0.53959,-0.044922,0.76953,0.70588
12.416,0.63941,0.53568,-0.025391,0.81055,0.7098
12.424,0.63197,0.53079,-0.0039062,0.82422,0.72549
12.432,0.62454,0.52297,-0.0097656,0.81055,0.71569
12.44,0.6171,0.51417,0.015625,0.83984,0.75098
12.448,0.60967,0.5044,0.035156,0.79883,0.68039
12.456,0.60595,0.49267,0.064453,0.82422,0.6902
12.464,0.59851,0.48094,0.080078,0.83008,0.7
12.472,0.59108,0.46823,0.10547,0.78516,0.62549
12.48,0.58736,0.45748,0.125,0.76953,0.6098
12.488,0.57993,0.44575,0.11523,0.78906,0.6451
12.496,0.57621,0.43597,0.089844,0.77539,0.66078
12.504,0.56877,0.42717,0.064453,0.7793,0.69608
12.512,0.56506,0.41935,0.050781,0.77539,0.72549
12.52,0.55762,0.40958,0.0097656,0.75391,0.7451
12.528,0.5539,0.40078,-0.013672,0.75,0.76667
12.536,0.54647,0.39296,-0.039062,0.72461,0.77059
12.544,0.54275,0.38514,-0.039062,0.71484,0.7451
12.552,0.53532,0.3783,-0.044922,0.74023,0.76667
12.56,0.5316,0.37146,-0.064453,0.75,0.80588
12.568,0.52416,0.36559,-0.074219,0.73047,0.82157
12.576,0.51673,0.35875,-0.064453,0.74023,0.79608
12.584,0.50929,0.35191,-0.064453,0.77539,0.8451
12.592,0.50186,0.34604,-0.070312,0.71484,0.78039
12.6,0.49071,0.34018,-0.058594,0.70508,0.76667
12.608,0.48327,0.33529,-0.064453,0.72461,0.7902
12.616,0.47584,0.3304,-0.074219,0.73047,0.79608
12.624,0.4684,0.32356,-0.083984,0.74414,0.81176
12.632,0.45725,0.31672,-0.080078,0.74023,0.81176
12.64,0.44981,0.3089,-0.064453,0.75,0.78627
12.648,0.44238,0.30108,-0.070312,0.75977,0.81569
12.656,0.43123,0.29326,-0.09375,0.76953,0.8451
12.664,0.42379,0.28543,-0.099609,0.75977,0.84118
12.672,0.41264,0.27859,-0.070312,0.77539,0.83137
12.68,0.4052,0.27273,-0.044922,0.78516,0.80588
12.688,0.39777,0.26784,-0.029297,0.76953,0.78039
12.696,0.38662,0.26686,0,0.79883,0.76078
12.704,0.37918,0.26979,0.03125,0.76953,0.7451
12.712,0.36803,0.27664,0.035156,0.75391,0.75098
12.72,0.36059,0.29032,0.054688,0.74414,0.7451
12.728,0.34944,0.31085,0.050781,0.7207,0.7451
12.736,0.34201,0.33627,0.044922,0.72461,0.7549
12.744,0.33086,0.36755,0,0.7207,0.78627
12.752,0.32342,0.40176,-0.025391,0.73047,0.81176
12.76,0.31599,0.435,-0.044922,0.72461,0.83529
12.768,0.30855,0.46725,-0.064453,0.70508,0.84118
12.776,0.30112,0.4956,-0.058594,0.70508,0.83529
12.784,0.29368,0.51906,-0.048828,0.70898,0.83137
12.792,0.28625,0.53763,-0.070312,0.69922,0.84118
12.8,0.27881,0.55132,-0.070312,0.69922,0.83529
12.808,0.27138,0.56109,-0.064453,0.69922,0.83137
12.816,0.26394,0.57087,-0.083984,0.7793,0.85686
12.824,0.25651,0.58065,-0.0097656,0.85547,0.7902
12.832,0.24907,0.59042,0.4043,0.58008,0.46471
12.84,0.24535,0.60117,1.1797,-0.17383,-0.15098
12.848,0.23792,0.61193,1.2637,-0.49805,-0.23137
12.856,0.23048,0.6217,0.16992,-0.26953,0.71569
12.864,0.22305,0.63148,-0.20898,0.18555,0.96667
12.872,0.21933,0.64223,-0.22852,0.5293,0.97647
12.88,0.2119,0.65298,-0.125,0.71484,0.88627
12.888,0.20446,0.66178,-0.10938,0.77539,0.88039
12.896,0.19703,0.67058,-0.11523,0.79883,0.87647
12.904,0.19331,0.67546,-0.10938,0.81055,0.88039
12.912,0.18587,0.6784,-0.10938,0.83398,0.88627
12.92,0.18216,0.68035,-0.10938,0.83984,0.8902
12.928,0.17472,0.6784,-0.10352,0.83398,0.88627
12.936,0.171,0.67351,-0.09375,0.83008,0.87647
12.944,0.16729,0.66471,-0.089844,0.82031,0.86667
12.952,0.16357,0.65005,-0.083984,0.82422,0.86667
12.96,0.15985,0.63245,-0.070312,0.83008,0.86078
12.968,0.15613,0.61193,-0.074219,0.83984,0.86667
12.976,0.15242,0.59042,-0.074219,0.84375,0.86667
12.984,0.1487,0.56891,-0.064453,0.83398,0.85686
12.992,0.14498,0.55034,-0.064453,0.83008,0.85098
13,0.14126,0.5347,-0.064453,0.83984,0.85686
13.008,0.13755,0.52395,-0.054688,0.83398,0.85686
13.016,0.13383,0.51613,-0.054688,0.84375,0.85098
13.024,0.13383,0.51026,-0.044922,0.84375,0.84118
13.032,0.13011,0.50635,-0.039062,0.85547,0.83529
13.04,0.13011,0.50342,-0.025391,0.84961,0.82549
13.048,0.12639,0.50147,-0.0039062,0.84375,0.80588
13.056,0.12639,0.49658,0.0097656,0.84961,0.8
13.064,0.12268,0.49169,0.0097656,0.84375,0.7902
13.072,0.12268,0.48485,0.035156,0.84961,0.77059
13.08,0.11896,0.47605,0.041016,0.85547,0.77059
13.088,0.11896,0.4653,0.070312,0.84375,0.75098
13.096,0.11524,0.45455,0.085938,0.84375,0.7451
13.104,0.11524,0.44575,0.099609,0.84375,0.73529
13.112,0.11152,0.43793,0.11133,0.83984,0.7451
13.12,0.10781,0.42815,0.10547,0.83398,0.75098
13.128,0.10781,0.41838,0.089844,0.82031,0.76667
13.136,0.10409,0.40762,0.054688,0.82031,0.79608
13.144,0.10037,0.39883,0.025391,0.82031,0.82157
13.152,0.096654,0.38905,0,0.81445,0.84118
13.16,0.092937,0.38025,-0.019531,0.81445,0.86667
13.168,0.092937,0.37146,-0.039062,0.81445,0.88039
13.176,0.085502,0.36266,-0.048828,0.81055,0.8902
13.184,0.081784,0.35484,-0.058594,0.81445,0.90196
13.192,0.074349,0.34604,-0.048828,0.79492,0.89608
13.2,0.070632,0.34018,-0.048828,0.79492,0.89608
13.208,0.063197,0.33529,-0.064453,0.78906,0.90196
13.216,0.052045,0.32845,-0.064453,0.78906,0.91176
13.224,0.04461,0.3216,-0.064453,0.79492,0.91569
13.232,0.033457,0.31378,-0.058594,0.80469,0.91176
13.24,0.022305,0.30596,-0.064453,0.79492,0.90196
13.248,0.011152,0.29912,-0.080078,0.79883,0.91176
13.256,0.0037175,0.29326,-0.074219,0.81055,0.90588
13.264,-0.0074349,0.28641,-0.070312,0.82031,0.91176
13.272,-0.018587,0.28055,-0.080078,0.81445,0.91176
13.28,-0.02974,0.27468,-0.080078,0.81445,0.91569
13.288,-0.040892,0.26979,-0.070312,0.81445,0.91176
13.296,-0.055762,0.26588,-0.064453,0.81055,0.91176
13.304,-0.066915,0.26393,-0.058594,0.82031,0.90196
13.312,-0.078067,0.261,-0.044922,0.82031,0.89608
13.32,-0.089219,0.25904,-0.035156,0.82422,0.87647
13.328,-0.10409,0.25806,-0.013672,0.83398,0.86078
13.336,-0.11524,0.26002,0.015625,0.84375,0.83529
13.344,-0.12639,0.26784,0.03125,0.82031,0.84118
13.352,-0.13755,0.28152,0.041016,0.79883,0.82549
13.36,-0.15242,0.30303,0.050781,0.76562,0.82157
13.368,-0.16357,0.3304,0.03125,0.76953,0.83529
13.376,-0.17472,0.36266,0.0097656,0.75977,0.85098
13.384,-0.18587,0.39687,-0.039062,0.76562,0.88627
13.392,-0.19703,0.43109,-0.054688,0.75391,0.8902
13.4,-0.20446,0.45943,-0.070312,0.75977,0.90588
13.408,-0.2119,0.48094,-0.070312,0.75391,0.91176
13.416,-0.22305,0.50244,-0.080078,0.75977,0.91176
13.424,-0.23048,0.52004,-0.080078,0.75391,0.91176
13.432,-0.23792,0.5347,-0.080078,0.75,0.91176
13.44,-0.24535,0.54545,-0.074219,0.75977,0.91176
13.448,-0.25279,0.55523,-0.080078,0.76562,0.91176
13.456,-0.26022,0.56403,-0.089844,0.87891,0.91569
13.464,-0.26766,0.57185,0.054688,0.91406,0.80588
13.472,-0.27509,0.57967,0.62891,0.41992,0.32941
13.48,-0.27881,0.58749,1.2051,-0.31445,-0.14706
13.488,-0.28625,0.59433,0.70898,-0.48828,0.33529
13.496,-0.29368,0.60313,-0.074219,-0.058594,0.96078
13.504,-0.30112,0.60899,-0.25977,0.34961,1.0608
13.512,-0.30855,0.61486,-0.18359,0.66016,0.99608
13.52,-0.3197,0.62072,-0.13867,0.79492,0.95686
13.528,-0.32714,0.62659,-0.13477,0.83398,0.95098
13.536,-0.33829,0.62952,-0.13477,0.84961,0.94118
13.544,-0.34572,0.6305,-0.11914,0.85938,0.93725
13.552,-0.35688,0.62854,-0.125,0.86523,0.93725
13.56,-0.36431,0.62268,-0.10938,0.86523,0.92549
13.568,-0.37175,0.6129,-0.10938,0.85938,0.92549
13.576,-0.3829,0.59824,-0.10938,0.86523,0.92157
13.584,-0.39033,0.58162,-0.10352,0.86523,0.91569
13.592,-0.39777,0.56207,-0.099609,0.85547,0.91176
13.6,-0.40892,0.54545,-0.083984,0.84961,0.90588
13.608,-0.41636,0.52981,-0.089844,0.85547,0.90588
13.616,-0.42379,0.51515,-0.083984,0.84961,0.90196
13.624,-0.43494,0.50244,-0.074219,0.84961,0.88627
13.632,-0.44238,0.49267,-0.074219,0.85938,0.88627
13.64,-0.44981,0.48583,-0.070312,0.84961,0.88039
13.648,-0.45353,0.48192,-0.058594,0.84961,0.88627
13.656,-0.46097,0.47801,-0.048828,0.85547,0.86667
13.664,-0.4684,0.47507,-0.058594,0.84961,0.87059
13.672,-0.47584,0.47116,-0.048828,0.84961,0.85686
13.68,-0.47955,0.46725,-0.039062,0.84375,0.8451
13.688,-0.48699,0.46139,-0.025391,0.84375,0.83529
13.696,-0.49442,0.45455,-0.0039062,0.84961,0.81569
13.704,-0.50186,0.44868,0.0097656,0.84375,0.8
13.712,-0.50558,0.44282,0.025391,0.84961,0.78627
13.72,-0.51301,0.435,0.035156,0.84375,0.77647
13.728,-0.51673,0.4262,0.054688,0.84375,0.76667
13.736,-0.52045,0.41642,0.070312,0.84375,0.7549
13.744,-0.52416,0.40665,0.080078,0.84375,0.7451
13.752,-0.52788,0.39687,0.080078,0.83984,0.7549
13.76,-0.53532,0.38612,0.085938,0.83398,0.76667
13.768,-0.53903,0.37634,0.050781,0.83008,0.79608
13.776,-0.54275,0.36657,0.025391,0.82422,0.81176
13.784,-0.54647,0.35777,0.0097656,0.82031,0.82157
13.792,-0.55019,0.34995,-0.019531,0.81055,0.85686
13.8,-0.5539,0.34409,-0.044922,0.79883,0.87647
13.808,-0.55762,0.3392,-0.058594,0.79883,0.88627
13.816,-0.56506,0.33431,-0.064453,0.79883,0.8902
13.824,-0.56877,0.32845,-0.054688,0.79492,0.88039
13.832,-0.57621,0.32258,-0.070312,0.79883,0.89608
13.84,-0.57993,0.31574,-0.083984,0.78516,0.91176
13.848,-0.58736,0.30987,-0.089844,0.78906,0.91176
13.856,-0.5948,0.30401,-0.080078,0.78516,0.90588
13.864,-0.60223,0.29814,-0.080078,0.78516,0.90588
13.872,-0.60967,0.29326,-0.074219,0.78906,0.90196
13.88,-0.6171,0.28739,-0.080078,0.78516,0.90196
13.888,-0.62082,0.28152,-0.070312,0.79492,0.90196
13.896,-0.62825,0.27566,-0.074219,0.79492,0.89608
13.904,-0.63569,0.27175,-0.064453,0.79883,0.8902
13.912,-0.64312,0.26784,-0.070312,0.79883,0.89608
13.92,-0.64684,0.26295,-0.054688,0.78516,0.88627
13.928,-0.65428,0.25806,-0.048828,0.78906,0.87647
13.936,-0.66171,0.2522,-0.054688,0.78516,0.88039
13.944,-0.66914,0.24731,-0.044922,0.7793,0.87059
13.952,-0.67658,0.24242,-0.039062,0.7793,0.86667
13.96,-0.6803,0.24047,-0.025391,0.7793,0.85098
13.968,-0.68401,0.24242,-0.035156,0.77539,0.86667
13.976,-0.69145,0.24927,-0.039062,0.77539,0.87059
13.984,-0.69517,0.26393,-0.025391,0.78516,0.86078
13.992,-0.7026,0.28641,-0.0097656,0.78906,0.84118
14,-0.71004,0.31183,0,0.78516,0.83137
14.008,-0.71747,0.3392,0.015625,0.79883,0.81569
14.016,-0.72119,0.37243,0.03125,0.79492,0.81176
14.024,-0.72862,0.40665,0.050781,0.76953,0.79608
14.032,-0.73234,0.43988,0.064453,0.74414,0.78039
14.04,-0.73978,0.46823,0.050781,0.73047,0.80588
14.048,-0.74349,0.49267,0.025391,0.73438,0.82157
14.056,-0.74721,0.51222,-0.0097656,0.73438,0.8451
14.064,-0.75465,0.52688,-0.029297,0.74023,0.85686
14.072,-0.75836,0.53763,-0.044922,0.73438,0.86667
14.08,-0.76208,0.54643,-0.058594,0.73047,0.88039
14.088,-0.7658,0.55425,-0.064453,0.73438,0.88627
14.096,-0.77323,0.56109,-0.064453,0.74023,0.88039
14.104,-0.77695,0.56794,-0.058594,0.73438,0.87059
14.112,-0.78067,0.5738,-0.074219,0.73438,0.88627
14.12,-0.78067,0.58065,-0.074219,0.73047,0.8902
14.128,-0.78439,0.58749,-0.083984,0.83398,0.8902
14.136,-0.7881,0.59531,0.041016,0.87891,0.78627
14.144,-0.79182,0.60215,0.55469,0.44922,0.34902
14.152,-0.79554,0.60997,1.1484,-0.26953,-0.16667
14.16,-0.79926,0.61584,0.75,-0.47461,0.2451
14.168,-0.80297,0.62072,-0.013672,-0.089844,0.91176
14.176,-0.80669,0.62268,-0.22852,0.30078,1.0275
14.184,-0.81041,0.62072,-0.18359,0.61523,0.98235
14.192,-0.81413,0.61388,-0.13477,0.76562,0.93137
14.2,-0.81784,0.60508,-0.11914,0.80469,0.92157
14.208,-0.81784,0.59335,-0.10938,0.82422,0.91176
14.216,-0.81784,0.57674,-0.11914,0.83008,0.91176
14.224,-0.81784,0.55816,-0.10938,0.83398,0.90588
14.232,-0.81784,0.53763,-0.10352,0.83008,0.89608
14.24,-0.81784,0.51808,-0.099609,0.83984,0.89608
14.248,-0.81784,0.50147,-0.10938,0.83398,0.90588
14.256,-0.81413,0.48778,-0.099609,0.83008,0.8902
14.264,-0.81413,0.47703,-0.089844,0.82031,0.88039
14.272,-0.81041,0.47019,-0.074219,0.82422,0.87059
14.28,-0.80669,0.4653,-0.070312,0.82422,0.86078
14.288,-0.80669,0.46041,-0.080078,0.82031,0.87059
14.296,-0.80297,0.45748,-0.080078,0.82031,0.87059
14.304,-0.79926,0.45455,-0.070312,0.82031,0.86667
14.312,-0.79554,0.45161,-0.074219,0.82422,0.86078
14.32,-0.79554,0.44868,-0.064453,0.82031,0.86667
14.328,-0.79182,0.44868,-0.058594,0.82031,0.84118
14.336,-0.7881,0.44966,-0.044922,0.82031,0.83137
14.344,-0.78439,0.44575,-0.035156,0.81445,0.82157
14.352,-0.78067,0.43891,-0.029297,0.82031,0.81176
14.36,-0.77695,0.43011,-0.013672,0.81445,0.8
14.368,-0.76952,0.41935,-0.013672,0.82031,0.78627
14.376,-0.7658,0.4086,0.0097656,0.81445,0.77059
14.384,-0.76208,0.39883,0.019531,0.82031,0.76078
14.392,-0.75836,0.38905,0.041016,0.82031,0.74118
14.4,-0.75465,0.38221,0.064453,0.82031,0.72157
14.408,-0.75093,0.37537,0.070312,0.82031,0.71569
14.416,-0.74721,0.36852,0.080078,0.81445,0.7098
14.424,-0.74349,0.36168,0.085938,0.81445,0.72157
14.432,-0.74349,0.35484,0.089844,0.79883,0.73137
14.44,-0.73978,0.348,0.054688,0.79883,0.76078
14.448,-0.73606,0.34213,0.03125,0.79883,0.78627
14.456,-0.73234,0.33627,0.015625,0.78516,0.79608
14.464,-0.72862,0.33138,-0.0097656,0.77539,0.82157
14.472,-0.72491,0.32649,-0.013672,0.77539,0.83529
14.48,-0.72119,0.3216,-0.039062,0.77539,0.84118
14.488,-0.72119,0.31672,-0.044922,0.77539,0.85686
14.496,-0.71747,0.31183,-0.064453,0.76953,0.86667
14.504,-0.71747,0.30792,-0.058594,0.76953,0.86078
14.512,-0.71375,0.30401,-0.064453,0.75391,0.86667
14.52,-0.71375,0.30108,-0.064453,0.76953,0.86667
14.528,-0.71004,0.29619,-0.070312,0.75977,0.87647
14.536,-0.71004,0.2913,-0.074219,0.75977,0.87059
14.544,-0.70632,0.28641,-0.080078,0.76562,0.87647
14.552,-0.70632,0.2825,-0.064453,0.77539,0.85686
14.56,-0.7026,0.27761,-0.064453,0.77539,0.86667
14.568,-0.7026,0.2737,-0.080078,0.76953,0.87647
14.576,-0.7026,0.26979,-0.074219,0.77539,0.88039
14.584,-0.7026,0.26686,-0.058594,0.77539,0.86078
14.592,-0.69888,0.26295,-0.054688,0.77539,0.86667
14.6,-0.69888,0.26002,-0.054688,0.76953,0.86667
14.608,-0.69888,0.25806,-0.048828,0.76953,0.85686
14.616,-0.69517,0.25513,-0.048828,0.76953,0.85686
14.624,-0.69517,0.2522,-0.039062,0.76953,0.8451
14.632,-0.69145,0.25024,-0.039062,0.75977,0.84118
14.64,-0.69145,0.25318,-0.035156,0.75391,0.84118
14.648,-0.68773,0.26197,-0.039062,0.75,0.8451
14.656,-0.68773,0.27761,-0.035156,0.75,0.84118
14.664,-0.68401,0.29912,-0.039062,0.75391,0.8451
14.672,-0.68401,0.32747,-0.039062,0.74414,0.84118
14.68,-0.6803,0.3607,-0.035156,0.75977,0.83529
14.688,-0.6803,0.39687,-0.013672,0.77539,0.81569
14.696,-0.67658,0.42717,0,0.77539,0.80588
14.704,-0.67286,0.45357,0.0097656,0.78516,0.7902
14.712,-0.66914,0.47801,0.025391,0.76953,0.7902
14.72,-0.66914,0.49951,0.044922,0.75,0.77647
14.728,-0.66543,0.51613,0.054688,0.73047,0.76667
14.736,-0.66171,0.52786,0.044922,0.72461,0.77647
14.744,-0.66171,0.53666,0.054688,0.72461,0.77647
14.752,-0.65799,0.5435,0.0058594,0.7207,0.81569
14.76,-0.65428,0.54936,-0.025391,0.72461,0.83529
14.768,-0.65428,0.55523,-0.039062,0.7207,0.84118
14.776,-0.65428,0.56109,-0.058594,0.7207,0.85686
14.784,-0.65056,0.56696,-0.058594,0.72461,0.85098
14.792,-0.65056,0.5738,-0.058594,0.7207,0.8451
14.8,-0.65056,0.57967,-0.064453,0.71484,0.85686
14.808,-0.65056,0.58553,-0.064453,0.7207,0.85098
14.816,-0.64684,0.58944,-0.064453,0.71484,0.85686
14.824,-0.64684,0.59433,-0.074219,0.74023,0.85098
14.832,-0.64684,0.59824,-0.083984,0.85938,0.86667
14.84,-0.64684,0.6002,0.16602,0.74414,0.66078
14.848,-0.64312,0.59922,0.80469,0.18945,0.11373
14.856,-0.64312,0.59531,1.1348,-0.46875,-0.18627
14.864,-0.64312,0.58847,0.46094,-0.49414,0.50588
14.872,-0.64312,0.57869,-0.13477,0.025391,0.96078
14.88,-0.63941,0.565,-0.22852,0.41992,1.002
14.888,-0.63941,0.54936,-0.14844,0.67969,0.93137
14.896,-0.63569,0.5347,-0.13477,0.76953,0.91569
14.904,-0.63569,0.52004,-0.13867,0.79883,0.90196
14.912,-0.63197,0.50538,-0.125,0.81055,0.8902
14.92,-0.62825,0.49071,-0.12891,0.82031,0.89608
14.928,-0.62825,0.47801,-0.125,0.82031,0.8902
14.936,-0.62454,0.46921,-0.11523,0.82422,0.88627
14.944,-0.62082,0.46334,-0.10938,0.82031,0.87647
14.952,-0.61338,0.45943,-0.11523,0.82031,0.88039
14.96,-0.60967,0.45748,-0.10938,0.81055,0.87647
14.968,-0.60595,0.4565,-0.09375,0.81445,0.86078
14.976,-0.59851,0.45455,-0.089844,0.81055,0.86667
14.984,-0.5948,0.45161,-0.099609,0.82031,0.86667
14.992,-0.58736,0.4477,-0.083984,0.79883,0.85098
15,-0.58364,0.44282,-0.083984,0.80469,0.8451
15.008,-0.57993,0.43695,-0.080078,0.81445,0.84118
15.016,-0.57249,0.43011,-0.064453,0.82031,0.83529
15.024,-0.56877,0.42131,-0.064453,0.80469,0.83529
15.032,-0.56506,0.41251,-0.070312,0.80469,0.83529
15.04,-0.55762,0.40469,-0.058594,0.80469,0.81569
15.048,-0.5539,0.39589,-0.044922,0.79883,0.80588
15.056,-0.54647,0.3871,-0.035156,0.80469,0.79608
15.064,-0.53903,0.3783,-0.025391,0.79883,0.78039
15.072,-0.53532,0.37048,-0.0097656,0.80469,0.76667
15.08,-0.5316,0.36266,0.0097656,0.79883,0.75098
15.088,-0.52416,0.35484,0.019531,0.80469,0.74118
15.096,-0.52045,0.34897,0.03125,0.79883,0.72549
15.104,-0.51673,0.34409,0.044922,0.79883,0.72157
15.112,-0.50929,0.33822,0.054688,0.80469,0.72157
15.12,-0.50558,0.33236,0.070312,0.80469,0.70588
15.128,-0.50186,0.32649,0.099609,0.81055,0.6902
15.136,-0.49814,0.3216,0.080078,0.79883,0.71569
15.144,-0.49814,0.31769,0.035156,0.78516,0.75098
15.152,-0.49442,0.31378,0.015625,0.77539,0.77647
15.16,-0.49071,0.30987,-0.013672,0.77539,0.80588
15.168,-0.49071,0.30694,-0.025391,0.77539,0.81569
15.176,-0.49071,0.30401,-0.039062,0.76953,0.82549
15.184,-0.48699,0.30108,-0.054688,0.76562,0.84118
15.192,-0.48699,0.29814,-0.064453,0.75977,0.85098
15.2,-0.48699,0.29521,-0.070312,0.76562,0.86078
15.208,-0.49071,0.29228,-0.074219,0.75391,0.85686
15.216,-0.49071,0.28837,-0.080078,0.75,0.85686
15.224,-0.49442,0.28446,-0.083984,0.75977,0.86667
15.232,-0.49442,0.28055,-0.089844,0.75391,0.87059
15.24,-0.49814,0.27664,-0.080078,0.75391,0.86667
15.248,-0.49814,0.27273,-0.074219,0.75391,0.85686
15.256,-0.50186,0.26882,-0.080078,0.76562,0.86078
15.264,-0.50186,0.26491,-0.083984,0.76562,0.86667
15.272,-0.50558,0.26002,-0.080078,0.76562,0.86667
15.28,-0.50929,0.25611,-0.064453,0.76953,0.8451
15.288,-0.50929,0.25122,-0.064453,0.76562,0.84118
15.296,-0.51301,0.24927,-0.058594,0.75977,0.8451
15.304,-0.51301,0.24633,-0.044922,0.75,0.85098
15.312,-0.51673,0.24438,-0.044922,0.75977,0.83137
15.32,-0.51673,0.24242,-0.058594,0.75,0.8451
15.328,-0.52045,0.24047,-0.054688,0.75,0.84118
15.336,-0.52045,0.24145,-0.039062,0.75,0.83137
15.344,-0.52045,0.24633,-0.044922,0.74414,0.83529
15.352,-0.52416,0.25806,-0.044922,0.75,0.83529
15.36,-0.52416,0.27664,-0.039062,0.74414,0.83137
15.368,-0.52416,0.30205,-0.048828,0.74023,0.83529
15.376,-0.52416,0.33236,-0.039062,0.74414,0.82157
15.384,-0.52416,0.36559,-0.035156,0.75977,0.81569
15.392,-0.52416,0.3998,-0.013672,0.76562,0.79608
15.4,-0.52416,0.42913,0,0.77539,0.78039
15.408,-0.52416,0.45357,0.019531,0.77539,0.77059
15.416,-0.52416,0.47605,0.03125,0.75,0.77059
15.424,-0.52416,0.4956,0.054688,0.72461,0.7451
15.432,-0.52416,0.51222,0.035156,0.71484,0.76078
15.44,-0.52416,0.52395,0.03125,0.70898,0.77647
15.448,-0.52416,0.53177,0.0058594,0.70898,0.8
15.456,-0.52416,0.53666,-0.0097656,0.70898,0.81176
15.464,-0.52788,0.54154,-0.044922,0.71484,0.83137
15.472,-0.52788,0.54545,-0.054688,0.70508,0.84118
15.48,-0.5316,0.54936,-0.064453,0.70508,0.8451
15.488,-0.5316,0.55327,-0.070312,0.70898,0.85098
15.496,-0.5316,0.55718,-0.064453,0.70898,0.84118
15.504,-0.53532,0.56109,-0.070312,0.71484,0.85098
15.512,-0.53532,0.56598,-0.064453,0.70898,0.84118
15.52,-0.53903,0.57087,-0.064453,0.70898,0.84118
15.528,-0.53903,0.57674,-0.080078,0.81445,0.8451
15.536,-0.54275,0.58162,0.054688,0.85938,0.7451
15.544,-0.54275,0.58651,0.51953,0.43945,0.33529
15.552,-0.54647,0.58749,1.1445,-0.31445,-0.21765
15.56,-0.54647,0.58553,0.76953,-0.49805,0.18824
15.568,-0.54647,0.57869,0.015625,-0.13477,0.85686
15.576,-0.54647,0.56891,-0.22852,0.2793,0.99608
15.584,-0.55019,0.55523,-0.16992,0.58984,0.93725
15.592,-0.55019,0.53959,-0.125,0.73438,0.8902
15.6,-0.55019,0.52493,-0.11523,0.78516,0.88039
15.608,-0.55019,0.51026,-0.10938,0.79883,0.87647
15.616,-0.55019,0.49658,-0.10938,0.81055,0.87059
15.624,-0.55019,0.48289,-0.10938,0.81445,0.87059
15.632,-0.55019,0.47214,-0.099609,0.81445,0.86667
15.64,-0.54647,0.46432,-0.09375,0.82031,0.86667
15.648,-0.54647,0.45943,-0.099609,0.82422,0.8451
15.656,-0.54647,0.45552,-0.083984,0.82031,0.84118
15.664,-0.54275,0.45357,-0.09375,0.81055,0.85098
15.672,-0.54275,0.45161,-0.089844,0.81055,0.8451
15.68,-0.53903,0.44868,-0.083984,0.80469,0.84118
15.688,-0.53532,0.44477,-0.080078,0.81055,0.83529
15.696,-0.5316,0.44086,-0.070312,0.79883,0.83137
15.704,-0.52788,0.43695,-0.064453,0.79883,0.82549
15.712,-0.52416,0.43109,-0.064453,0.79883,0.81569
15.72,-0.52045,0.42424,-0.054688,0.79883,0.80588
15.728,-0.51673,0.41838,-0.054688,0.80469,0.81176
15.736,-0.51301,0.41153,-0.039062,0.79883,0.79608
15.744,-0.50929,0.40371,-0.025391,0.80469,0.78627
15.752,-0.50558,0.39589,-0.029297,0.79883,0.78627
15.76,-0.50186,0.3871,-0.035156,0.79883,0.7902
15.768,-0.49814,0.37928,-0.025391,0.79492,0.77059
15.776,-0.49071,0.37146,-0.0097656,0.79883,0.7549
15.784,-0.48699,0.36461,0.0097656,0.79883,0.74118
15.792,-0.48327,0.35875,0.025391,0.79492,0.72549
15.8,-0.47955,0.35288,0.044922,0.79883,0.71569
15.808,-0.47584,0.34897,0.050781,0.79883,0.7098
15.816,-0.47584,0.34409,0.041016,0.80469,0.71569
15.824,-0.47212,0.3392,0.064453,0.79883,0.7098
15.832,-0.4684,0.33431,0.050781,0.79883,0.73137
15.84,-0.4684,0.32942,0.041016,0.79492,0.74118
15.848,-0.4684,0.32649,0.025391,0.7793,0.7549
15.856,-0.46468,0.32356,0.0058594,0.77539,0.77059
15.864,-0.46468,0.31965,-0.013672,0.76953,0.79608
15.872,-0.46468,0.31672,-0.025391,0.76562,0.80588
15.88,-0.46097,0.31476,-0.044922,0.76562,0.81569
15.888,-0.46097,0.31183,-0.048828,0.75977,0.82549
15.896,-0.46097,0.31085,-0.064453,0.75,0.83137
15.904,-0.46097,0.30987,-0.070312,0.74414,0.84118
15.912,-0.46097,0.30792,-0.080078,0.75,0.8451
15.92,-0.46097,0.30499,-0.080078,0.75,0.85098
15.928,-0.46097,0.30205,-0.083984,0.74414,0.85686
15.936,-0.46097,0.29717,-0.080078,0.75,0.8451
15.944,-0.46468,0.29228,-0.080078,0.75391,0.85098
15.952,-0.46468,0.28641,-0.074219,0.75977,0.8451
15.96,-0.46468,0.2825,-0.083984,0.75391,0.85686
15.968,-0.46468,0.27957,-0.080078,0.75,0.85098
15.976,-0.46468,0.27664,-0.074219,0.75977,0.85098
15.984,-0.46468,0.2737,-0.064453,0.75,0.83529
15.992,-0.46468,0.27077,-0.054688,0.75391,0.82549
16,-0.46468,0.26882,-0.058594,0.75,0.83137
16.008,-0.46468,0.26784,-0.054688,0.75,0.83137
16.016,-0.46468,0.26491,-0.048828,0.74023,0.82549
16.024,-0.46097,0.26197,-0.048828,0.73438,0.81569
16.032,-0.46097,0.26002,-0.048828,0.74023,0.82157
16.04,-0.46097,0.261,-0.039062,0.73047,0.81569
16.048,-0.45725,0.26686,-0.048828,0.73047,0.81569
16.056,-0.45725,0.27859,-0.044922,0.72461,0.81176
16.064,-0.45353,0.29619,-0.035156,0.73047,0.80588
16.072,-0.44981,0.31965,-0.025391,0.74023,0.79608
16.08,-0.4461,0.348,-0.013672,0.75,0.78627
16.088,-0.43866,0.37928,0.0058594,0.75977,0.77059
16.096,-0.43494,0.40762,0.0097656,0.76562,0.77059
16.104,-0.42751,0.43206,0.019531,0.74414,0.76667
16.112,-0.42007,0.45552,0.035156,0.7207,0.7451
16.12,-0.41636,0.47605,0.054688,0.70508,0.73529
16.128,-0.40892,0.49169,0.03125,0.69922,0.7549
16.136,-0.4052,0.50342,0.015625,0.70508,0.77647
16.144,-0.39777,0.51124,-0.013672,0.70898,0.79608
16.152,-0.39405,0.51613,-0.035156,0.69531,0.81569
16.16,-0.38662,0.51906,-0.044922,0.69531,0.81569
16.168,-0.37546,0.52199,-0.048828,0.68945,0.81569
16.176,-0.36803,0.52395,-0.070312,0.68555,0.83529
16.184,-0.36059,0.5259,-0.080078,0.68555,0.84118
16.192,-0.35316,0.52981,-0.070312,0.67969,0.83529
16.2,-0.34572,0.53275,-0.074219,0.68945,0.82549
16.208,-0.33829,0.53666,-0.058594,0.69531,0.82157
16.216,-0.33086,0.54154,-0.089844,0.74414,0.84118
16.224,-0.3197,0.54545,-0.099609,0.83398,0.7902
16.232,-0.31227,0.54839,0.34961,0.58984,0.48431
16.24,-0.30112,0.55132,1.1152,-0.058594,-0.10588
16.248,-0.28996,0.55132,1.2539,-0.48438,-0.22157
16.256,-0.28253,0.54936,0.21094,-0.21875,0.72157
16.264,-0.27138,0.54545,-0.20508,0.12109,0.96667
16.272,-0.26022,0.53763,-0.22852,0.48438,0.97059
16.28,-0.25279,0.52688,-0.13867,0.68555,0.88627
16.288,-0.24164,0.5132,-0.11523,0.75977,0.86078
16.296,-0.2342,0.49951,-0.10352,0.77539,0.85686
16.304,-0.22305,0.48583,-0.125,0.78906,0.86667
16.312,-0.2119,0.47116,-0.10352,0.79492,0.8451
16.32,-0.20074,0.45748,-0.125,0.78516,0.86667
16.328,-0.18959,0.44477,-0.11523,0.78906,0.85686
16.336,-0.17844,0.43597,-0.11523,0.78906,0.85686
16.344,-0.16729,0.43011,-0.10938,0.78906,0.8451
16.352,-0.15613,0.4262,-0.10938,0.78906,0.84118
16.36,-0.14498,0.42326,-0.099609,0.78516,0.84118
16.368,-0.13383,0.42131,-0.099609,0.7793,0.84118
16.376,-0.12268,0.43891,-0.09375,0.77539,0.83529
16.384,-0.11152,0.46628,-0.083984,0.77539,0.82549
16.392,-0.096654,0.47801,-0.064453,0.77539,0.81569
16.4,-0.085502,0.48289,-0.074219,0.77539,0.81176
16.408,-0.070632,0.48387,-0.064453,0.76953,0.80588
16.416,-0.055762,0.47996,-0.070312,0.77539,0.81176
16.424,-0.040892,0.47312,-0.054688,0.77539,0.79608
16.432,-0.02974,0.46334,-0.054688,0.77539,0.79608
16.44,-0.01487,0.45357,-0.039062,0.76953,0.78039
16.448,-0.0037175,0.44379,-0.013672,0.77539,0.76078
16.456,0.011152,0.43109,-0.0039062,0.77539,0.7451
16.464,0.022305,0.42033,0,0.77539,0.74118
16.472,0.033457,0.41447,0.0097656,0.77539,0.73529
16.48,0.048327,0.40762,0.025391,0.7793,0.71569
16.488,0.063197,0.40078,0.060547,0.78516,0.68627
16.496,0.074349,0.39589,0.064453,0.77539,0.68627
16.504,0.089219,0.39296,0.054688,0.77539,0.7
16.512,0.10037,0.38807,0.064453,0.77539,0.7
16.52,0.11152,0.38319,0.080078,0.78516,0.69608
16.528,0.12639,0.37928,0.064453,0.77539,0.7098
16.536,0.13755,0.37439,0.041016,0.76953,0.73529
16.544,0.1487,0.37048,0.0097656,0.76562,0.76667
16.552,0.15985,0.36559,-0.013672,0.75391,0.78627
16.56,0.17472,0.36168,-0.035156,0.76562,0.80588
16.568,0.18216,0.35679,-0.039062,0.75391,0.80588
16.576,0.19331,0.35288,-0.054688,0.75,0.81569
16.584,0.20446,0.34897,-0.070312,0.75,0.82157
16.592,0.21561,0.34506,-0.074219,0.74414,0.83137
16.6,0.22305,0.34311,-0.074219,0.74414,0.83137
16.608,0.23048,0.3392,-0.083984,0.75391,0.84118
16.616,0.2342,0.33529,-0.09375,0.75,0.8451
16.624,0.24164,0.3304,-0.089844,0.75,0.85098
16.632,0.24535,0.32649,-0.09375,0.75,0.8451
16.64,0.24907,0.32258,-0.089844,0.75,0.85098
16.648,0.25279,0.31965,-0.080078,0.74414,0.84118
16.656,0.25651,0.31672,-0.070312,0.74414,0.83137
16.664,0.26022,0.31281,-0.074219,0.73438,0.83137
16.672,0.26394,0.30987,-0.070312,0.73438,0.83137
16.68,0.26394,0.30596,-0.058594,0.74414,0.82157
16.688,0.26394,0.30108,-0.048828,0.73047,0.81176
16.696,0.26394,0.29717,-0.054688,0.72461,0.81176
16.704,0.26394,0.29521,-0.039062,0.72461,0.79608
16.712,0.26394,0.29032,-0.039062,0.7207,0.80588
16.72,0.26022,0.28641,-0.029297,0.7207,0.79608
16.728,0.25651,0.28543,-0.029297,0.72461,0.79608
16.736,0.25651,0.28837,-0.039062,0.72461,0.80588
16.744,0.24907,0.29814,-0.035156,0.73047,0.79608
16.752,0.24535,0.31672,-0.025391,0.73047,0.7902
16.76,0.24164,0.34506,-0.013672,0.74023,0.78627
16.768,0.2342,0.38123,-0.013672,0.75,0.77059
16.776,0.23048,0.42229,0.019531,0.76562,0.7451
16.784,0.22305,0.46628,0.03125,0.74414,0.76078
16.792,0.21561,0.50244,0.044922,0.71484,0.74118
16.8,0.2119,0.53372,0.054688,0.70508,0.73529
16.808,0.20446,0.56109,0.044922,0.69531,0.75098
16.816,0.19703,0.58358,0.03125,0.68555,0.76078
16.824,0.18959,0.6002,-0.0097656,0.69531,0.7902
16.832,0.18216,0.61095,-0.044922,0.69922,0.81569
16.84,0.17472,0.61779,-0.058594,0.68555,0.81569
16.848,0.16729,0.6217,-0.064453,0.69531,0.81569
16.856,0.15613,0.62463,-0.054688,0.68945,0.81176
16.864,0.1487,0.62757,-0.064453,0.69531,0.82157
16.872,0.13755,0.62952,-0.064453,0.69531,0.82549
16.88,0.13011,0.63245,-0.058594,0.69531,0.82157
16.888,0.11896,0.63636,-0.054688,0.70508,0.81569
16.896,0.10781,0.64027,-0.080078,0.81445,0.82549
16.904,0.10037,0.64516,0.044922,0.86523,0.73137
16.912,0.089219,0.65005,0.53906,0.43945,0.33922
16.92,0.078067,0.65591,1.2285,-0.30469,-0.21765
16.928,0.070632,0.6608,0.84961,-0.49805,0.1549
16.936,0.063197,0.66373,0.050781,-0.14844,0.8
16.944,0.055762,0.66373,-0.21484,0.25586,0.95098
16.952,0.048327,0.6608,-0.16406,0.57422,0.90588
16.96,0.040892,0.65396,-0.13477,0.7207,0.88039
16.968,0.033457,0.64223,-0.13477,0.76953,0.87647
16.976,0.026022,0.62659,-0.12891,0.78516,0.86667
16.984,0.018587,0.60802,-0.12891,0.79883,0.85686
16.992,0.01487,0.5914,-0.11523,0.80469,0.85098
17,0.0074349,0.57576,-0.10938,0.82031,0.84118
17.008,0.0037175,0.55914,-0.099609,0.80469,0.83529
17.016,0,0.54545,-0.10352,0.80469,0.83137
17.024,-0.0037175,0.53372,-0.089844,0.79883,0.83137
17.032,-0.0074349,0.52688,-0.099609,0.79883,0.84118
17.04,-0.011152,0.52395,-0.083984,0.79883,0.81569
17.048,-0.011152,0.52297,-0.083984,0.79883,0.81569
17.056,-0.011152,0.52395,-0.080078,0.79883,0.81569
17.064,-0.011152,0.52395,-0.074219,0.79883,0.81569
17.072,-0.011152,0.52395,-0.080078,0.79883,0.81176
17.08,-0.011152,0.52199,-0.064453,0.79883,0.81176
17.088,-0.0074349,0.51906,-0.070312,0.78906,0.80588
17.096,-0.0074349,0.51417,-0.064453,0.79492,0.79608
17.104,-0.0037175,0.50929,-0.048828,0.78906,0.78039
17.112,0,0.50244,-0.039062,0.79883,0.77059
17.12,0.0037175,0.49462,-0.019531,0.79492,0.7549
17.128,0.0074349,0.48583,-0.025391,0.79883,0.76078
17.136,0.011152,0.47703,-0.013672,0.81055,0.7549
17.144,0.018587,0.46823,0,0.79883,0.73529
17.152,0.022305,0.45943,0.015625,0.79883,0.71569
17.16,0.026022,0.45161,0.03125,0.79883,0.7
17.168,0.02974,0.44379,0.054688,0.80469,0.68627
17.176,0.037175,0.43793,0.070312,0.81055,0.68039
17.184,0.040892,0.43206,0.064453,0.79883,0.6902
17.192,0.04461,0.42717,0.060547,0.79883,0.7
17.2,0.048327,0.42424,0.070312,0.78906,0.70588
17.208,0.052045,0.41935,0.050781,0.78516,0.71569
17.216,0.055762,0.41447,0.041016,0.77539,0.73137
17.224,0.05948,0.4086,0.015625,0.76562,0.76078
17.232,0.05948,0.40469,-0.025391,0.75,0.7902
17.24,0.063197,0.3998,-0.039062,0.75,0.79608
17.248,0.063197,0.39492,-0.058594,0.74414,0.81569
17.256,0.063197,0.39003,-0.054688,0.75,0.80588
17.264,0.063197,0.38514,-0.070312,0.74023,0.81569
17.272,0.063197,0.38025,-0.080078,0.74023,0.83137
17.28,0.05948,0.37537,-0.080078,0.74414,0.83137
17.288,0.05948,0.37146,-0.070312,0.75,0.81569
17.296,0.055762,0.36755,-0.080078,0.74414,0.83137
17.304,0.052045,0.36559,-0.083984,0.74414,0.83529
17.312,0.052045,0.36266,-0.099609,0.74414,0.85098
17.32,0.048327,0.35973,-0.09375,0.74023,0.85686
17.328,0.04461,0.35582,-0.089844,0.75,0.8451
17.336,0.040892,0.35288,-0.080078,0.74023,0.82157
17.344,0.040892,0.34897,-0.070312,0.74414,0.82549
17.352,0.037175,0.34506,-0.054688,0.75,0.81176
17.36,0.033457,0.34018,-0.048828,0.74414,0.80588
17.368,0.02974,0.33431,-0.054688,0.73047,0.81569
17.376,0.02974,0.32845,-0.054688,0.73047,0.81176
17.384,0.026022,0.32356,-0.039062,0.73047,0.8
17.392,0.022305,0.32063,-0.039062,0.72461,0.79608
17.4,0.018587,0.32063,-0.039062,0.73047,0.80588
17.408,0.018587,0.3216,-0.035156,0.72461,0.79608
17.416,0.01487,0.32747,-0.013672,0.73438,0.78627
17.424,0.011152,0.34115,-0.013672,0.74414,0.78039
17.432,0.011152,0.36266,-0.0097656,0.75,0.77059
17.44,0.0074349,0.39296,0.0058594,0.75391,0.75098
17.448,0.0074349,0.43011,0.025391,0.75,0.7451
17.456,0.0037175,0.47116,0.044922,0.74023,0.74118
17.464,0.0037175,0.51222,0.054688,0.72461,0.72157
17.472,0,0.55034,0.060547,0.70508,0.73529
17.48,0,0.58651,0.041016,0.69531,0.7451
17.488,0,0.61388,0,0.69531,0.77647
17.496,0,0.62854,-0.029297,0.69922,0.79608
17.504,-0.0037175,0.63832,-0.039062,0.69531,0.8
17.512,-0.0037175,0.64516,-0.058594,0.69922,0.81176
17.52,-0.0037175,0.64907,-0.064453,0.69531,0.81569
17.528,-0.0037175,0.65298,-0.064453,0.69531,0.81569
17.536,-0.0074349,0.65494,-0.064453,0.69531,0.82549
17.544,-0.0074349,0.65689,-0.070312,0.69922,0.83137
17.552,-0.0074349,0.65982,-0.064453,0.69531,0.81569
17.56,-0.011152,0.66276,-0.080078,0.75,0.82549
17.568,-0.011152,0.66667,-0.099609,0.86523,0.83137
17.576,-0.01487,0.67253,0.29102,0.64453,0.52941
17.584,-0.01487,0.67937,1.0801,-0.044922,-0.082353
17.592,-0.018587,0.68328,1.2891,-0.49805,-0.26667
17.6,-0.018587,0.68719,0.31055,-0.34961,0.6
17.608,-0.022305,0.69013,-0.19922,0.070312,0.94706
17.616,-0.022305,0.69306,-0.25391,0.46484,0.96667
17.624,-0.026022,0.69501,-0.14453,0.69531,0.87059
17.632,-0.026022,0.69306,-0.13477,0.75977,0.86667
17.64,-0.02974,0.68622,-0.12891,0.78906,0.86078
17.648,-0.02974,0.67546,-0.09375,0.81055,0.82549
17.656,-0.033457,0.6608,-0.10938,0.81055,0.84118
17.664,-0.033457,0.64223,-0.125,0.81445,0.86078
17.672,-0.037175,0.6217,-0.11914,0.81055,0.85686
17.68,-0.037175,0.6002,-0.11523,0.81055,0.85098
17.688,-0.040892,0.58065,-0.10938,0.81445,0.84118
17.696,-0.040892,0.565,-0.10938,0.81445,0.84118
17.704,-0.04461,0.55425,-0.099609,0.81055,0.83137
17.712,-0.048327,0.54545,-0.09375,0.81055,0.83137
17.72,-0.048327,0.53959,-0.083984,0.81055,0.81569
17.728,-0.052045,0.53666,-0.080078,0.81055,0.81569
17.736,-0.052045,0.53568,-0.083984,0.80469,0.81569
17.744,-0.055762,0.53568,-0.083984,0.80469,0.81176
17.752,-0.055762,0.53568,-0.074219,0.79883,0.80588
17.76,-0.055762,0.5347,-0.074219,0.81055,0.8
17.768,-0.05948,0.53275,-0.058594,0.80469,0.79608
17.776,-0.05948,0.53079,-0.048828,0.81445,0.78627
17.784,-0.05948,0.5259,-0.054688,0.80469,0.7902
17.792,-0.05948,0.52199,-0.025391,0.81445,0.76078
17.8,-0.063197,0.51613,0,0.81055,0.73137
17.808,-0.063197,0.50929,-0.0039062,0.81055,0.73137
17.816,-0.063197,0.50049,-0.0039062,0.80469,0.74118
17.824,-0.063197,0.49071,0.015625,0.81445,0.72157
17.832,-0.066915,0.47996,0.041016,0.81445,0.7
17.84,-0.066915,0.47116,0.054688,0.81445,0.68627
17.848,-0.066915,0.46334,0.070312,0.81055,0.6902
17.856,-0.066915,0.45552,0.085938,0.81055,0.67647
17.864,-0.070632,0.4477,0.080078,0.79492,0.68627
17.872,-0.070632,0.44086,0.070312,0.7793,0.7
17.88,-0.074349,0.43597,0.044922,0.77539,0.71569
17.888,-0.074349,0.43206,0.015625,0.76562,0.7451
17.896,-0.078067,0.43011,-0.0097656,0.75977,0.77059
17.904,-0.081784,0.42815,-0.025391,0.75391,0.7902
17.912,-0.085502,0.4262,-0.048828,0.75,0.8
17.92,-0.089219,0.42326,-0.044922,0.75,0.80588
17.928,-0.096654,0.41935,-0.070312,0.75,0.81569
17.936,-0.10409,0.41544,-0.074219,0.75,0.82549
17.944,-0.11152,0.41153,-0.070312,0.75,0.82549
17.952,-0.11896,0.40665,-0.064453,0.74023,0.81569
17.96,-0.12639,0.40176,-0.083984,0.73047,0.83137
17.968,-0.13383,0.39687,-0.089844,0.73438,0.84118
17.976,-0.14126,0.39198,-0.083984,0.74023,0.8451
17.984,-0.1487,0.38807,-0.064453,0.75,0.81569
17.992,-0.15985,0.38416,-0.080078,0.75,0.82549
18,-0.171,0.38221,-0.089844,0.74414,0.8451
18.008,-0.18216,0.3783,-0.080078,0.74414,0.83137
18.016,-0.19331,0.37439,-0.074219,0.75,0.82157
18.024,-0.20446,0.37146,-0.074219,0.74414,0.82549
18.032,-0.2119,0.36755,-0.080078,0.74414,0.83529
18.04,-0.22305,0.36364,-0.070312,0.74414,0.82549
18.048,-0.23048,0.35973,-0.058594,0.75,0.81176
18.056,-0.24164,0.35679,-0.039062,0.74023,0.8
18.064,-0.24907,0.35386,-0.035156,0.75,0.79608
18.072,-0.25651,0.35484,-0.019531,0.75977,0.78627
18.08,-0.26394,0.3607,0.0097656,0.76953,0.76078
18.088,-0.27509,0.37341,0,0.77539,0.76078
18.096,-0.28253,0.39003,0.0097656,0.76562,0.75098
18.104,-0.28996,0.41153,0.025391,0.75391,0.7549
18.112,-0.2974,0.44184,0.03125,0.73438,0.7451
18.12,-0.30483,0.47703,0.041016,0.71484,0.73529
18.128,-0.31227,0.51515,0.044922,0.70508,0.7451
18.136,-0.31599,0.5523,0.015625,0.70508,0.76078
18.144,-0.32342,0.58651,-0.035156,0.70508,0.8
18.152,-0.33086,0.61388,-0.048828,0.70898,0.80588
18.16,-0.33829,0.63539,-0.070312,0.70508,0.82549
18.168,-0.34201,0.65005,-0.080078,0.70508,0.83529
18.176,-0.34944,0.65885,-0.083984,0.70898,0.84118
18.184,-0.35316,0.66471,-0.080078,0.70508,0.83137
18.192,-0.36059,0.66667,-0.083984,0.70508,0.82549
18.2,-0.36431,0.6696,-0.074219,0.69922,0.81569
18.208,-0.37175,0.67253,-0.064453,0.7207,0.81176
18.216,-0.37546,0.67546,-0.070312,0.83008,0.81569
18.224,-0.3829,0.6784,0.060547,0.85938,0.71569
18.232,-0.38662,0.68328,0.58984,0.38086,0.25882
18.24,-0.39405,0.68817,1.1484,-0.33984,-0.23725
18.248,-0.40149,0.69404,0.68945,-0.49805,0.23333
18.256,-0.4052,0.69795,-0.058594,-0.09375,0.87647
18.264,-0.41264,0.70283,-0.24414,0.30078,0.97059
18.272,-0.42007,0.70674,-0.16992,0.61523,0.91176
18.28,-0.42379,0.70968,-0.11914,0.74023,0.86667
18.288,-0.43123,0.71163,-0.12891,0.77539,0.87647
18.296,-0.43494,0.71065,-0.13477,0.79492,0.87059
18.304,-0.44238,0.70772,-0.12891,0.80469,0.86667
18.312,-0.44981,0.6999,-0.10938,0.81055,0.84118
18.32,-0.45725,0.68915,-0.10938,0.80469,0.84118
18.328,-0.46468,0.67449,-0.11914,0.81055,0.85686
18.336,-0.47212,0.65787,-0.10352,0.81445,0.83529
18.344,-0.47584,0.6393,-0.083984,0.81055,0.81569
18.352,-0.48327,0.62072,-0.074219,0.79492,0.81176
18.36,-0.49071,0.60411,-0.099609,0.79492,0.83529
18.368,-0.49442,0.58944,-0.09375,0.79492,0.83137
18.376,-0.49814,0.57869,-0.083984,0.79492,0.81569
18.384,-0.50558,0.57087,-0.070312,0.79883,0.8
18.392,-0.50929,0.56598,-0.054688,0.79883,0.79608
18.4,-0.51301,0.56403,-0.074219,0.78906,0.81176
18.408,-0.51673,0.56305,-0.070312,0.79492,0.81176
18.416,-0.52045,0.56207,-0.064453,0.79492,0.79608
18.424,-0.52045,0.56207,-0.048828,0.7793,0.78039
18.432,-0.52416,0.56109,-0.044922,0.78906,0.77059
18.44,-0.52788,0.55914,-0.035156,0.79883,0.76667
18.448,-0.5316,0.55425,-0.025391,0.78906,0.7549
18.456,-0.5316,0.54936,-0.0039062,0.78906,0.73137
18.464,-0.53532,0.54252,0.0097656,0.78906,0.71569
18.472,-0.53532,0.5347,0.025391,0.79492,0.7
18.48,-0.53532,0.52493,0.044922,0.78906,0.68039
18.488,-0.53903,0.51711,0.054688,0.78516,0.67647
18.496,-0.53903,0.50929,0.054688,0.78906,0.68627
18.504,-0.53903,0.49951,0.070312,0.7793,0.6902
18.512,-0.54275,0.48974,0.085938,0.7793,0.67059
18.52,-0.54275,0.48387,0.095703,0.78516,0.67647
18.528,-0.54275,0.47605,0.050781,0.77539,0.71569
18.536,-0.54647,0.46921,0.0097656,0.76953,0.7451
18.544,-0.54647,0.46139,-0.013672,0.75977,0.77647
18.552,-0.55019,0.45552,-0.039062,0.76953,0.7902
18.56,-0.55019,0.44966,-0.054688,0.75391,0.81176
18.568,-0.5539,0.44477,-0.064453,0.75,0.81569
18.576,-0.55762,0.44086,-0.074219,0.75,0.82157
18.584,-0.56134,0.43597,-0.070312,0.74414,0.82157
18.592,-0.56134,0.43206,-0.074219,0.74414,0.82549
18.6,-0.56506,0.42913,-0.080078,0.73047,0.83137
18.608,-0.56506,0.42424,-0.09375,0.73047,0.84118
18.616,-0.56877,0.41838,-0.099609,0.74023,0.8451
18.624,-0.57249,0.41349,-0.083984,0.74023,0.84118
18.632,-0.57621,0.40762,-0.080078,0.74414,0.82549
18.64,-0.57993,0.40078,-0.083984,0.74414,0.84118
18.648,-0.58364,0.39589,-0.089844,0.75,0.84118
18.656,-0.58736,0.39101,-0.083984,0.74414,0.83529
18.664,-0.59108,0.38807,-0.058594,0.75,0.81569
18.672,-0.5948,0.38612,-0.054688,0.75,0.81176
18.68,-0.59851,0.38319,-0.064453,0.74414,0.81569
18.688,-0.60223,0.38221,-0.054688,0.75,0.81569
18.696,-0.60223,0.38025,-0.064453,0.74414,0.82157
18.704,-0.60595,0.3783,-0.054688,0.74023,0.81569
18.712,-0.60595,0.37537,-0.039062,0.74023,0.80588
18.72,-0.60595,0.37341,-0.044922,0.74023,0.8
18.728,-0.60595,0.37537,-0.054688,0.73047,0.81176
18.736,-0.60595,0.38123,-0.048828,0.73438,0.80588
18.744,-0.60595,0.39492,-0.039062,0.73438,0.8
18.752,-0.60595,0.41642,-0.035156,0.73047,0.79608
18.76,-0.60595,0.44575,-0.039062,0.73047,0.8
18.768,-0.60595,0.48094,-0.0097656,0.74414,0.77647
18.776,-0.60595,0.52102,0.0058594,0.75977,0.77059
18.784,-0.60223,0.56207,0,0.76953,0.7549
18.792,-0.60223,0.59531,0.0097656,0.74414,0.75098
18.8,-0.60223,0.62366,0.03125,0.72461,0.7451
18.808,-0.59851,0.64907,0.044922,0.70508,0.72157
18.816,-0.59851,0.6696,0.035156,0.68945,0.74118
18.824,-0.5948,0.68231,0.03125,0.68555,0.75098
18.832,-0.5948,0.69013,0.0097656,0.68945,0.76667
18.84,-0.59108,0.69404,-0.013672,0.69922,0.7902
18.848,-0.59108,0.69599,-0.044922,0.69922,0.81176
18.856,-0.59108,0.69697,-0.070312,0.69922,0.82549
18.864,-0.59108,0.69892,-0.074219,0.69531,0.82549
18.872,-0.59108,0.70186,-0.074219,0.68945,0.83137
18.88,-0.58736,0.70577,-0.064453,0.69922,0.81569
18.888,-0.59108,0.71065,-0.064453,0.69531,0.81569
18.896,-0.59108,0.71554,-0.070312,0.69531,0.82157
18.904,-0.59108,0.72141,-0.064453,0.71484,0.81569
18.912,-0.59108,0.7263,-0.074219,0.83984,0.83137
18.92,-0.59108,0.73118,0.125,0.76562,0.66471
18.928,-0.59108,0.73607,0.74023,0.23438,0.11373
18.936,-0.59108,0.739,1.1543,-0.46484,-0.27255
18.944,-0.59108,0.739,0.56445,-0.49805,0.3549
18.952,-0.59108,0.73509,-0.11523,-0.039062,0.91176
18.96,-0.59108,0.72532,-0.24023,0.35547,0.97059
18.968,-0.59108,0.71163,-0.14844,0.63477,0.8902
18.976,-0.59108,0.69306,-0.13477,0.74023,0.87647
18.984,-0.59108,0.67253,-0.12891,0.7793,0.87059
18.992,-0.59108,0.65396,-0.125,0.79883,0.87647
19,-0.59108,0.63734,-0.10938,0.80469,0.84118
19.008,-0.59108,0.62072,-0.10352,0.80469,0.83529
19.016,-0.58736,0.60704,-0.099609,0.79883,0.83137
19.024,-0.58736,0.59726,-0.10938,0.79883,0.84118
19.032,-0.58736,0.5914,-0.10352,0.79883,0.83529
19.04,-0.58364,0.58847,-0.083984,0.79492,0.82549
19.048,-0.57993,0.58651,-0.09375,0.79883,0.83137
19.056,-0.57621,0.58651,-0.080078,0.80469,0.81176
19.064,-0.57249,0.58553,-0.074219,0.79492,0.81569
19.072,-0.56877,0.58456,-0.083984,0.78906,0.82157
19.08,-0.56506,0.5826,-0.070312,0.79492,0.81176
19.088,-0.56134,0.57967,-0.064453,0.78906,0.81176
19.096,-0.55762,0.57576,-0.064453,0.78516,0.8
19.104,-0.5539,0.56794,-0.039062,0.78516,0.77059
19.112,-0.55019,0.55914,-0.058594,0.78516,0.78627
19.12,-0.54647,0.54936,-0.048828,0.78516,0.77647
19.128,-0.54275,0.53959,-0.039062,0.78516,0.77059
19.136,-0.53532,0.52981,-0.029297,0.78516,0.76078
19.144,-0.5316,0.52004,-0.013672,0.7793,0.7451
19.152,-0.52788,0.51026,0.0097656,0.78516,0.72549
19.16,-0.52416,0.50049,0.0058594,0.78516,0.72157
19.168,-0.52045,0.49169,0.03125,0.78516,0.69608
19.176,-0.51673,0.48485,0.041016,0.78906,0.6902
19.184,-0.51301,0.47703,0.050781,0.7793,0.68039
19.192,-0.50929,0.47116,0.070312,0.78516,0.67647
19.2,-0.50929,0.46628,0.076172,0.78906,0.67647
19.208,-0.50558,0.46139,0.085938,0.78516,0.67647
19.216,-0.50186,0.45455,0.064453,0.77539,0.7
19.224,-0.49814,0.44868,0.050781,0.76562,0.71569
19.232,-0.49814,0.44379,0.03125,0.75391,0.73137
19.24,-0.49442,0.43891,0.015625,0.75391,0.75098
19.248,-0.49442,0.435,0,0.75977,0.77059
19.256,-0.49071,0.43206,-0.013672,0.75,0.78627
19.264,-0.49071,0.43011,-0.035156,0.75,0.79608
19.272,-0.49071,0.42815,-0.054688,0.73438,0.81569
19.28,-0.49071,0.42522,-0.070312,0.73047,0.82157
19.288,-0.49071,0.42229,-0.064453,0.72461,0.81176
19.296,-0.49071,0.42131,-0.058594,0.73047,0.82157
19.304,-0.49071,0.41838,-0.070312,0.73047,0.82549
19.312,-0.49071,0.41544,-0.074219,0.73047,0.83137
19.32,-0.49442,0.41251,-0.070312,0.73438,0.83137
19.328,-0.49442,0.40958,-0.070312,0.73438,0.83137
19.336,-0.49442,0.40567,-0.064453,0.73047,0.81569
19.344,-0.49442,0.40176,-0.064453,0.74414,0.81569
19.352,-0.49442,0.39785,-0.058594,0.75,0.81569
19.36,-0.49442,0.39394,-0.070312,0.74023,0.82549
19.368,-0.49442,0.38807,-0.058594,0.75,0.81569
19.376,-0.49442,0.38319,-0.044922,0.74414,0.80588
19.384,-0.49442,0.37732,-0.048828,0.75,0.81176
19.392,-0.49442,0.37243,-0.039062,0.73438,0.8
19.4,-0.49442,0.3695,-0.039062,0.73047,0.80588
19.408,-0.49442,0.36657,-0.044922,0.73438,0.81176
19.416,-0.49442,0.36461,-0.048828,0.72461,0.81569
19.424,-0.49442,0.36755,-0.044922,0.72461,0.81569
19.432,-0.49442,0.37732,-0.039062,0.7207,0.80588
19.44,-0.49071,0.39589,-0.054688,0.72461,0.81569
19.448,-0.49071,0.42326,-0.044922,0.71484,0.80588
19.456,-0.49071,0.46041,-0.035156,0.7207,0.79608
19.464,-0.49071,0.50244,-0.048828,0.70898,0.81176
19.472,-0.48699,0.54741,-0.044922,0.71484,0.81569
19.48,-0.48699,0.59042,-0.044922,0.72461,0.80588
19.488,-0.48699,0.62463,-0.019531,0.74414,0.78627
19.496,-0.48327,0.65103,-0.0097656,0.75,0.76667
19.504,-0.48327,0.67253,0.0097656,0.75,0.75098
19.512,-0.48327,0.69013,0.015625,0.74414,0.7451
19.52,-0.48327,0.70186,0.044922,0.72461,0.74118
19.528,-0.48327,0.70968,0.050781,0.69922,0.73137
19.536,-0.48327,0.71359,0.041016,0.67969,0.73529
19.544,-0.48327,0.7175,0.050781,0.68945,0.73137
19.552,-0.48327,0.72043,0.025391,0.69531,0.76078
19.56,-0.48327,0.72434,-0.013672,0.67969,0.7902
19.568,-0.48699,0.72923,-0.029297,0.69531,0.79608
19.576,-0.48699,0.73412,-0.058594,0.68555,0.81569
19.584,-0.49071,0.73998,-0.074219,0.67969,0.83137
19.592,-0.49071,0.74389,-0.070312,0.69531,0.82157
19.6,-0.49442,0.7478,-0.058594,0.70508,0.81176
19.608,-0.49814,0.75171,-0.064453,0.70508,0.81569
19.616,-0.50186,0.75562,-0.048828,0.70898,0.8
19.624,-0.50558,0.75855,-0.044922,0.70508,0.80588
19.632,-0.50929,0.75758,-0.064453,0.82031,0.82157
19.64,-0.51301,0.75367,0.085938,0.84961,0.6902
19.648,-0.51673,0.74585,0.64453,0.32422,0.20392
19.656,-0.52045,0.73314,1.1543,-0.38477,-0.25686
19.664,-0.52416,0.71554,0.66992,-0.49805,0.25882
19.672,-0.52788,0.69599,-0.044922,-0.083984,0.87059
19.68,-0.52788,0.67546,-0.21875,0.32422,0.95098
19.688,-0.5316,0.65689,-0.14453,0.61914,0.88039
19.696,-0.53532,0.64027,-0.125,0.73438,0.86667
19.704,-0.53532,0.62561,-0.12891,0.77539,0.87059
19.712,-0.53903,0.61388,-0.11914,0.79883,0.86078
19.72,-0.53903,0.60606,-0.099609,0.81055,0.83529
19.728,-0.53903,0.60215,-0.089844,0.80469,0.83137
19.736,-0.54275,0.60215,-0.099609,0.80469,0.84118
19.744,-0.54275,0.60313,-0.09375,0.81055,0.83137
19.752,-0.54275,0.60411,-0.083984,0.80469,0.82157
19.76,-0.54275,0.60508,-0.089844,0.79883,0.82549
19.768,-0.53903,0.60411,-0.083984,0.80469,0.82157
19.776,-0.53903,0.60215,-0.074219,0.80469,0.81569
19.784,-0.53903,0.59726,-0.064453,0.79883,0.79608
19.792,-0.53532,0.59238,-0.064453,0.80469,0.80588
19.8,-0.53532,0.58651,-0.074219,0.79883,0.81176
19.808,-0.5316,0.57869,-0.048828,0.81055,0.7902
19.816,-0.5316,0.56989,-0.054688,0.79883,0.79608
19.824,-0.52788,0.56109,-0.048828,0.79883,0.79608
19.832,-0.52416,0.5523,-0.054688,0.78516,0.79608
19.84,-0.52045,0.54448,-0.039062,0.78906,0.77647
19.848,-0.51673,0.53568,-0.039062,0.78516,0.77059
19.856,-0.51301,0.52688,-0.035156,0.78906,0.77059
19.864,-0.50929,0.51808,-0.019531,0.7793,0.75098
19.872,-0.50558,0.50929,0,0.78516,0.73529
19.88,-0.50186,0.50049,0.0097656,0.78516,0.72157
19.888,-0.50186,0.4956,0.019531,0.78906,0.7
19.896,-0.49814,0.49267,0.03125,0.7793,0.69608
19.904,-0.49442,0.48876,0.041016,0.78516,0.68627
19.912,-0.49071,0.48485,0.054688,0.78516,0.68039
19.92,-0.49071,0.48094,0.064453,0.78906,0.67647
19.928,-0.48699,0.47703,0.060547,0.79492,0.68627
19.936,-0.48699,0.47312,0.064453,0.78516,0.69608
19.944,-0.48327,0.46823,0.050781,0.7793,0.70588
19.952,-0.48327,0.46432,0.035156,0.76953,0.72549
19.96,-0.48327,0.46041,0.019531,0.77539,0.7451
19.968,-0.48327,0.4565,0,0.75977,0.77059
19.976,-0.48327,0.45259,-0.019531,0.75,0.78627
19.984,-0.48327,0.4477,-0.039062,0.75,0.8
19.992,-0.48327,0.44282,-0.058594,0.74414,0.81569
20,-0.48327,0.43891,-0.064453,0.75,0.81569
20.008,-0.48327,0.43402,-0.054688,0.74023,0.81176
20.016,-0.48699,0.43109,-0.070312,0.73438,0.82157
20.024,-0.48699,0.42815,-0.080078,0.74414,0.84118
20.032,-0.48699,0.42424,-0.083984,0.73438,0.83529
20.04,-0.48699,0.42131,-0.080078,0.73438,0.83137
20.048,-0.49071,0.41838,-0.089844,0.74414,0.84118
20.056,-0.49071,0.41544,-0.080078,0.73438,0.83137
20.064,-0.49071,0.41153,-0.070312,0.75,0.83137
20.072,-0.49071,0.4086,-0.064453,0.74414,0.82549
20.08,-0.49442,0.40469,-0.074219,0.75,0.83137
20.088,-0.49442,0.40176,-0.058594,0.75391,0.81176
20.096,-0.49442,0.3998,-0.048828,0.74414,0.81176
