Time [s], RESP, PLETH, II, MCL, AVR
0,0.66178,0.30401,0.39412,0.80469,0.58984
0.008,0.66276,0.29912,0.3902,0.80469,0.59961
0.016,0.66471,0.29619,0.39412,0.81055,0.5957
0.024,0.66471,0.29326,0.40392,0.79883,0.58398
0.032,0.66569,0.2913,0.41569,0.80469,0.57422
0.04,0.66667,0.29032,0.4098,0.79492,0.58008
0.048,0.66667,0.29032,0.43529,0.80469,0.56055
0.056,0.66764,0.2913,0.44902,0.81055,0.55078
0.064,0.66862,0.29228,0.48039,0.81445,0.5293
0.072,0.66862,0.29326,0.49412,0.82031,0.51562
0.08,0.6696,0.29619,0.52941,0.82422,0.48438
0.088,0.67058,0.29814,0.56471,0.83008,0.46094
0.096,0.67058,0.30108,0.59608,0.83398,0.43555
0.104,0.67058,0.30303,0.62549,0.83398,0.41602
0.112,0.67058,0.30499,0.65098,0.83008,0.39453
0.12,0.67058,0.30694,0.6549,0.82031,0.39062
0.128,0.67058,0.30792,0.62941,0.79883,0.4043
0.136,0.67058,0.3089,0.60588,0.7793,0.41992
0.144,0.67058,0.3089,0.56471,0.76562,0.46094
0.152,0.6696,0.30987,0.51961,0.75391,0.49023
0.16,0.66862,0.30987,0.46471,0.74023,0.5293
0.168,0.66667,0.30987,0.41569,0.71484,0.56055
0.176,0.66471,0.30987,0.39412,0.70898,0.58398
0.184,0.66276,0.30987,0.37059,0.69922,0.5957
0.192,0.65982,0.30987,0.34902,0.69922,0.61523
0.2,0.65689,0.30987,0.35882,0.70508,0.60938
0.208,0.65396,0.30987,0.33922,0.70508,0.625
0.216,0.65005,0.31085,0.33529,0.69922,0.62891
0.224,0.64614,0.30987,0.3549,0.67969,0.60547
0.232,0.64223,0.3089,0.35882,0.67578,0.60547
0.24,0.63734,0.30694,0.34902,0.66406,0.61914
0.248,0.63343,0.30499,0.3549,0.66406,0.60547
0.256,0.62952,0.30401,0.34902,0.6543,0.60938
0.264,0.62561,0.30205,0.34902,0.6543,0.60547
0.272,0.6217,0.3001,0.35882,0.64062,0.60547
0.28,0.61779,0.29814,0.36471,0.64062,0.59961
0.288,0.6129,0.29521,0.37059,0.65039,0.59961
0.296,0.60899,0.29228,0.36471,0.64062,0.60547
0.304,0.60411,0.28935,0.35882,0.64453,0.60547
0.312,0.60117,0.28739,0.36471,0.64062,0.59961
0.32,0.59726,0.28446,0.37059,0.6543,0.59961
0.328,0.59433,0.28152,0.38039,0.64453,0.58984
0.336,0.5914,0.27761,0.37059,0.65039,0.59961
0.344,0.58847,0.27273,0.37059,0.65039,0.59961
0.352,0.58651,0.26979,0.37451,0.66992,0.5957
0.36,0.58456,0.26882,0.4,0.68945,0.58398
0.368,0.5826,0.27077,0.39412,0.70508,0.58398
0.376,0.58065,0.27761,0.41961,0.71484,0.56055
0.384,0.57771,0.29032,0.42549,0.7207,0.56055
0.392,0.57576,0.30987,0.43922,0.70508,0.55078
0.4,0.57283,0.33236,0.43922,0.67578,0.54492
0.408,0.57087,0.35875,0.41961,0.63477,0.56055
0.416,0.56794,0.39296,0.41569,0.61523,0.56055
0.424,0.565,0.43109,0.4098,0.59961,0.55469
0.432,0.56305,0.47312,0.4,0.61914,0.57031
0.44,0.56012,0.51417,0.39412,0.64062,0.58008
0.448,0.55718,0.55523,0.38431,0.66016,0.5957
0.456,0.55425,0.59238,0.36471,0.65039,0.60547
0.464,0.55132,0.62561,0.35882,0.65039,0.60547
0.472,0.54741,0.65494,0.37059,0.64062,0.59961
0.48,0.54448,0.6784,0.36471,0.64453,0.60547
0.488,0.54057,0.69697,0.35882,0.65039,0.60938
0.496,0.53666,0.71065,0.37059,0.6543,0.59961
0.504,0.53275,0.71848,0.36471,0.64453,0.60547
0.512,0.52884,0.72141,0.38039,0.67578,0.59961
0.52,0.52493,0.72141,0.41569,0.67969,0.58008
0.528,0.52199,0.71848,0.50588,0.62891,0.50586
0.536,0.51808,0.71261,0.67647,0.5957,0.34961
0.544,0.51515,0.70283,0.74118,0.61523,0.26562
0.552,0.51124,0.69795,0.5,0.48047,0.36523
0.56,0.50831,0.69306,0.21961,0.30078,0.55469
0.568,0.50538,0.68133,0.0039216,0.29492,0.76562
0.576,0.50342,0.66667,-0.011765,0.37109,0.83008
0.584,0.50147,0.64809,0.098039,0.40039,0.79883
0.592,0.49951,0.62854,0.2451,0.52539,0.70508
0.6,0.49756,0.60997,0.32353,0.61914,0.63477
0.608,0.4956,0.5914,0.35882,0.66016,0.61523
0.616,0.49365,0.56989,0.37451,0.68555,0.60938
0.624,0.49267,0.54839,0.38039,0.67969,0.60547
0.632,0.49169,0.5259,0.37059,0.68945,0.61523
0.64,0.48974,0.5044,0.38431,0.69531,0.59961
0.648,0.48876,0.48289,0.3902,0.69531,0.5957
0.656,0.48778,0.46237,0.39412,0.69922,0.5957
0.664,0.4868,0.44282,0.4098,0.70508,0.58984
0.672,0.48583,0.42522,0.40392,0.69531,0.58984
0.68,0.48583,0.40958,0.4,0.69922,0.58984
0.688,0.48485,0.39589,0.39412,0.71484,0.59961
0.696,0.48387,0.38319,0.40392,0.72461,0.58398
0.704,0.48289,0.37439,0.4098,0.7207,0.58398
0.712,0.48289,0.36755,0.41569,0.72461,0.58398
0.72,0.48192,0.36168,0.41961,0.7207,0.57422
0.728,0.48094,0.35679,0.42941,0.71484,0.56445
0.736,0.47996,0.35288,0.43529,0.7207,0.56445
0.744,0.47996,0.34995,0.4549,0.73047,0.55078
0.752,0.47996,0.348,0.46471,0.73047,0.53906
0.76,0.47996,0.348,0.5,0.75,0.51953
0.768,0.48094,0.34702,0.52549,0.75391,0.50977
0.776,0.48192,0.34702,0.53922,0.75977,0.49023
0.784,0.48289,0.348,0.58039,0.77539,0.46484
0.792,0.48387,0.34897,0.6098,0.77539,0.43945
0.8,0.48583,0.34995,0.64118,0.7793,0.41602
0.808,0.48583,0.35093,0.6549,0.77539,0.40039
0.816,0.4868,0.35093,0.6549,0.76953,0.40039
0.824,0.48778,0.35191,0.6451,0.75,0.41016
0.832,0.48876,0.35191,0.62549,0.73047,0.41992
0.84,0.48974,0.35191,0.5902,0.70508,0.43945
0.848,0.49071,0.35093,0.53922,0.68555,0.47461
0.856,0.49071,0.34995,0.4902,0.66016,0.51562
0.864,0.49169,0.34897,0.4451,0.66016,0.55078
0.872,0.49071,0.34604,0.41961,0.64453,0.57031
0.88,0.49071,0.34409,0.40392,0.62891,0.58008
0.888,0.48876,0.34213,0.37451,0.62891,0.59961
0.896,0.48778,0.3392,0.37059,0.62891,0.60547
0.904,0.4868,0.33822,0.36471,0.63477,0.60938
0.912,0.48485,0.33822,0.37059,0.61914,0.61523
0.92,0.48289,0.33822,0.37451,0.61523,0.60547
0.928,0.47996,0.33724,0.35882,0.625,0.60938
0.936,0.47703,0.33724,0.37059,0.63477,0.60547
0.944,0.4741,0.33724,0.38431,0.625,0.5957
0.952,0.47019,0.33724,0.3902,0.62891,0.5957
0.96,0.46725,0.33627,0.38039,0.62891,0.59961
0.968,0.46334,0.33431,0.37059,0.63477,0.5957
0.976,0.45943,0.33236,0.37059,0.62891,0.60547
0.984,0.45552,0.32942,0.38431,0.63477,0.58984
0.992,0.45161,0.32649,0.38431,0.625,0.58984
1,0.4477,0.32454,0.37059,0.625,0.5957
1.008,0.44477,0.32258,0.36471,0.61523,0.59961
1.016,0.44086,0.31965,0.38039,0.625,0.5957
1.024,0.43793,0.31672,0.38431,0.61914,0.5957
1.032,0.43402,0.31281,0.37451,0.61914,0.59961
1.04,0.43109,0.30792,0.38039,0.625,0.5957
1.048,0.42815,0.30499,0.39412,0.64453,0.58398
1.056,0.4262,0.30303,0.40392,0.66016,0.58398
1.064,0.42424,0.30596,0.41569,0.67969,0.58008
1.072,0.42131,0.31476,0.42549,0.68555,0.57031
1.08,0.41935,0.3304,0.4451,0.67969,0.54492
1.088,0.41838,0.35288,0.44902,0.68555,0.53906
1.096,0.41642,0.3783,0.4451,0.6543,0.54492
1.104,0.41447,0.40567,0.43529,0.61523,0.55078
1.112,0.41251,0.44184,0.42549,0.5957,0.56055
1.12,0.41056,0.48289,0.41961,0.56445,0.55469
1.128,0.4086,0.5259,0.4098,0.57031,0.57031
1.136,0.40665,0.56891,0.4,0.59961,0.58008
1.144,0.40371,0.60997,0.39412,0.60938,0.58398
1.152,0.40176,0.64712,0.38039,0.60938,0.58984
1.16,0.39883,0.68035,0.37059,0.60547,0.59961
1.168,0.39687,0.70772,0.37451,0.60547,0.59961
1.176,0.39394,0.73118,0.37059,0.60547,0.59961
1.184,0.39003,0.74878,0.37059,0.59961,0.59961
1.192,0.3871,0.76246,0.37059,0.5957,0.60547
1.2,0.38319,0.77028,0.37059,0.58984,0.59961
1.208,0.38025,0.77419,0.35882,0.61914,0.60938
1.216,0.37732,0.77517,0.4,0.6543,0.5957
1.224,0.37439,0.77419,0.46471,0.61914,0.54492
1.232,0.37243,0.77028,0.6,0.57031,0.41992
1.24,0.36852,0.76442,0.73529,0.58398,0.29102
1.248,0.36559,0.75562,0.5902,0.51953,0.2793
1.256,0.36266,0.74585,0.32941,0.31445,0.46484
1.264,0.35875,0.73412,0.052941,0.25,0.69922
1.272,0.35582,0.72043,-0.027451,0.32031,0.83008
1.28,0.35191,0.70479,0.052941,0.34961,0.83984
1.288,0.34897,0.68719,0.20392,0.43945,0.74023
1.296,0.34604,0.6696,0.32941,0.56055,0.64453
1.304,0.34213,0.65103,0.36471,0.60547,0.61523
1.312,0.3392,0.63148,0.37451,0.64062,0.60938
1.32,0.33627,0.61095,0.38431,0.66016,0.60547
1.328,0.33333,0.58944,0.38431,0.67578,0.59961
1.336,0.3304,0.56891,0.3902,0.67969,0.60547
1.344,0.32845,0.54839,0.4,0.67578,0.5957
1.352,0.32649,0.52884,0.3902,0.68945,0.60547
1.36,0.32454,0.51026,0.4,0.69922,0.5957
1.368,0.32258,0.49462,0.4098,0.69531,0.58398
1.376,0.32063,0.47996,0.4,0.70508,0.5957
1.384,0.31867,0.46725,0.4098,0.70508,0.58984
1.392,0.31574,0.4565,0.4,0.70898,0.58984
1.4,0.31378,0.44868,0.40392,0.72461,0.58398
1.408,0.31281,0.44184,0.41961,0.72461,0.57422
1.416,0.31085,0.43597,0.41961,0.73047,0.58008
1.424,0.30987,0.43109,0.41961,0.7207,0.58008
1.432,0.3089,0.4262,0.42941,0.72461,0.57031
1.44,0.30792,0.42229,0.4549,0.7207,0.55469
1.448,0.30694,0.41838,0.46078,0.72461,0.54492
1.456,0.30596,0.41642,0.46471,0.73047,0.53906
1.464,0.30499,0.41447,0.5,0.74023,0.51562
1.472,0.30401,0.41447,0.52941,0.75391,0.49414
1.48,0.30303,0.41349,0.58039,0.75977,0.46484
1.488,0.30303,0.41349,0.59608,0.76562,0.44922
1.496,0.30303,0.41349,0.62549,0.77539,0.41992
1.504,0.30303,0.41349,0.65098,0.76953,0.41016
1.512,0.30303,0.41349,0.66078,0.76562,0.40039
1.52,0.30401,0.41349,0.6549,0.75,0.39453
1.528,0.30401,0.41349,0.6451,0.74023,0.39453
1.536,0.30499,0.41349,0.60588,0.71484,0.42578
1.544,0.30499,0.41251,0.5549,0.69922,0.46484
1.552,0.30499,0.41153,0.5098,0.67969,0.49414
1.56,0.30401,0.40958,0.4549,0.66992,0.53516
1.568,0.30401,0.4086,0.41961,0.66016,0.56055
1.576,0.30303,0.40665,0.4,0.65039,0.58008
1.584,0.30205,0.40371,0.37059,0.64062,0.59961
1.592,0.3001,0.3998,0.35882,0.63477,0.60938
1.6,0.29814,0.39687,0.36471,0.65039,0.60547
1.608,0.29521,0.39492,0.37059,0.65039,0.60938
1.616,0.29228,0.39101,0.37059,0.64453,0.60547
1.624,0.29032,0.38807,0.36471,0.63477,0.60938
1.632,0.28739,0.38514,0.37059,0.64062,0.60547
1.64,0.28446,0.38123,0.37451,0.64453,0.60547
1.648,0.28152,0.3783,0.3902,0.64453,0.5957
1.656,0.27859,0.37439,0.38039,0.6543,0.59961
1.664,0.27566,0.37146,0.3902,0.66406,0.59961
1.672,0.27273,0.36657,0.39412,0.65039,0.5957
1.68,0.26882,0.36168,0.39412,0.6543,0.58984
1.688,0.26588,0.35777,0.38431,0.64062,0.5957
1.696,0.26197,0.35386,0.4,0.64453,0.58398
1.704,0.25904,0.34995,0.39412,0.65039,0.58984
1.712,0.25611,0.34506,0.3902,0.64453,0.5957
1.72,0.25415,0.34018,0.38431,0.64453,0.60547
1.728,0.2522,0.33529,0.38431,0.64062,0.59961
1.736,0.25024,0.3304,0.38431,0.64453,0.5957
1.744,0.24829,0.32551,0.3902,0.64062,0.58984
1.752,0.24633,0.32258,0.39412,0.6543,0.5957
1.76,0.24536,0.3216,0.39412,0.67969,0.58398
1.768,0.2434,0.32649,0.41569,0.69531,0.57422
1.776,0.24145,0.33822,0.43529,0.70898,0.56055
1.784,0.24047,0.35679,0.4549,0.70508,0.54492
1.792,0.23851,0.38221,0.46078,0.69531,0.53906
1.8,0.23754,0.40958,0.46471,0.67969,0.5293
1.808,0.23656,0.43891,0.46078,0.64453,0.53516
1.816,0.23558,0.4741,0.43529,0.60547,0.54492
1.824,0.2346,0.51222,0.43529,0.58008,0.55078
1.832,0.23363,0.55132,0.43529,0.57422,0.55078
1.84,0.23167,0.58944,0.42941,0.58984,0.56055
1.848,0.23069,0.62366,0.41569,0.60938,0.57031
1.856,0.22972,0.65494,0.39412,0.60547,0.58398
1.864,0.22874,0.68133,0.37059,0.60938,0.59961
1.872,0.22874,0.70381,0.37059,0.58984,0.5957
1.88,0.22678,0.72141,0.38039,0.58984,0.5957
1.888,0.22581,0.73509,0.38431,0.5957,0.59961
1.896,0.22385,0.74291,0.3902,0.58398,0.5957
1.904,0.2219,0.74682,0.3902,0.58984,0.5957
1.912,0.21994,0.74878,0.38431,0.58398,0.5957
1.92,0.21799,0.74878,0.4098,0.61914,0.59961
1.928,0.21603,0.74585,0.4549,0.60547,0.56445
1.936,0.21408,0.74096,0.55098,0.53516,0.4707
1.944,0.21212,0.73314,0.7098,0.48047,0.31445
1.952,0.21017,0.72336,0.72549,0.49023,0.27539
1.96,0.20821,0.71163,0.40392,0.3457,0.41016
1.968,0.20626,0.69795,0.13333,0.23438,0.625
1.976,0.20528,0.68328,-0.011765,0.32422,0.82031
1.984,0.20332,0.66569,0.039216,0.375,0.85547
1.992,0.20137,0.64712,0.14902,0.38477,0.78906
2,0.20039,0.62854,0.30392,0.46484,0.66406
2.008,0.19844,0.61095,0.38431,0.51953,0.60547
2.016,0.19746,0.59042,0.4098,0.55469,0.5957
2.024,0.19746,0.56989,0.41961,0.57031,0.58008
2.032,0.19648,0.54936,0.42549,0.58984,0.58008
2.04,0.1955,0.52884,0.42941,0.60938,0.57422
2.048,0.1955,0.51026,0.43922,0.61523,0.57031
2.056,0.19453,0.49267,0.43529,0.60938,0.57422
2.064,0.19355,0.47703,0.4451,0.61523,0.56445
2.072,0.19159,0.46237,0.43922,0.61523,0.56445
2.08,0.18964,0.45064,0.4451,0.62891,0.56055
2.088,0.18768,0.43988,0.43922,0.63477,0.57031
2.096,0.18573,0.43206,0.44902,0.64453,0.56055
2.104,0.18475,0.42522,0.46078,0.6543,0.56055
2.112,0.1828,0.41838,0.46471,0.66406,0.55078
2.12,0.18084,0.41349,0.46471,0.67969,0.54492
2.128,0.17889,0.4086,0.47451,0.69531,0.53906
2.136,0.17693,0.40469,0.46471,0.69531,0.55078
2.144,0.17498,0.40078,0.48039,0.70508,0.53516
2.152,0.17302,0.39883,0.5098,0.70898,0.51562
2.16,0.17107,0.39687,0.52549,0.71484,0.5
2.168,0.16813,0.39492,0.5451,0.72461,0.48438
2.176,0.16618,0.39296,0.57059,0.7207,0.46484
2.184,0.1652,0.39198,0.6,0.74023,0.43945
2.192,0.16325,0.39101,0.63529,0.74414,0.41016
2.2,0.16129,0.39003,0.65098,0.75391,0.40039
2.208,0.15934,0.38905,0.67647,0.75391,0.375
2.216,0.1564,0.38807,0.7,0.75391,0.35938
2.224,0.15445,0.38612,0.7,0.74414,0.35938
2.232,0.15347,0.38319,0.7,0.75391,0.35547
2.24,0.15152,0.38025,0.66471,0.73438,0.38086
2.248,0.15152,0.37732,0.61961,0.73047,0.41602
2.256,0.15054,0.37439,0.56471,0.70898,0.45508
2.264,0.14956,0.37146,0.5098,0.70508,0.49414
2.272,0.14956,0.36755,0.46078,0.68945,0.5293
2.28,0.14858,0.36364,0.42941,0.68555,0.55469
2.288,0.14761,0.35875,0.40392,0.69531,0.57422
2.296,0.14663,0.35386,0.39412,0.70508,0.58398
2.304,0.14565,0.34897,0.39412,0.69531,0.58398
2.312,0.1437,0.34409,0.39412,0.70508,0.58984
2.32,0.14272,0.3392,0.40392,0.69922,0.58398
2.328,0.14174,0.33529,0.38039,0.70508,0.59961
2.336,0.14076,0.33138,0.37451,0.68945,0.60547
2.344,0.14076,0.32649,0.39412,0.69531,0.58398
2.352,0.14076,0.3216,0.3902,0.70508,0.58984
2.36,0.13978,0.31672,0.41961,0.70898,0.57422
2.368,0.13978,0.31085,0.4098,0.71484,0.58008
2.376,0.13978,0.30499,0.39412,0.70508,0.58398
2.384,0.13978,0.3001,0.4098,0.69922,0.58008
2.392,0.13978,0.29423,0.41569,0.68555,0.57422
2.4,0.14076,0.29032,0.43529,0.70508,0.56055
2.408,0.14174,0.28739,0.39412,0.70508,0.58398
2.416,0.1437,0.2825,0.3902,0.69922,0.58398
2.424,0.14467,0.27664,0.38431,0.69531,0.58984
2.432,0.14663,0.27077,0.4098,0.69922,0.57422
2.44,0.14761,0.26491,0.41569,0.68555,0.57422
2.448,0.14956,0.25904,0.40392,0.69531,0.57031
2.456,0.15152,0.25415,0.4,0.69531,0.57422
2.464,0.15347,0.25122,0.40392,0.68945,0.57031
2.472,0.1564,0.2522,0.42941,0.71484,0.56445
2.48,0.15836,0.25709,0.43922,0.74023,0.55469
2.488,0.16129,0.26784,0.4549,0.75,0.54492
2.496,0.16422,0.2825,0.46471,0.76953,0.53516
2.504,0.16716,0.30108,0.48039,0.75391,0.51953
2.512,0.17009,0.32845,0.4902,0.75391,0.51562
2.52,0.17302,0.36266,0.5,0.74023,0.50977
2.528,0.17693,0.40078,0.4902,0.7207,0.50977
2.536,0.18084,0.44184,0.46471,0.67969,0.53516
2.544,0.18475,0.48289,0.4549,0.6543,0.53516
2.552,0.18866,0.52297,0.46078,0.65039,0.5293
2.56,0.19257,0.55914,0.43529,0.68945,0.55469
2.568,0.1955,0.59238,0.41569,0.69922,0.57422
2.576,0.19941,0.62072,0.39412,0.67578,0.58984
2.584,0.20235,0.64418,0.38431,0.66406,0.5957
2.592,0.20626,0.66178,0.37451,0.67969,0.60547
2.6,0.20919,0.66667,0.3902,0.67969,0.58984
2.608,0.21212,0.66276,0.40392,0.67969,0.58008
2.616,0.21505,0.66178,0.39412,0.68555,0.58398
2.624,0.21896,0.6608,0.39412,0.68945,0.58398
2.632,0.2219,0.65689,0.39412,0.70898,0.58008
2.64,0.22483,0.652,0.43922,0.72461,0.56445
2.648,0.22678,0.64516,0.48431,0.66992,0.51953
2.656,0.22972,0.63539,0.61961,0.53516,0.38477
2.664,0.23265,0.62561,0.73137,0.49414,0.25586
2.672,0.23558,0.6129,0.57059,0.50977,0.31445
2.68,0.23851,0.59922,0.3098,0.48438,0.49023
2.688,0.24242,0.58456,0.078431,0.53906,0.72461
2.696,0.24536,0.56989,0.033333,0.67578,0.84961
2.704,0.24927,0.55523,0.068627,0.70508,0.86523
2.712,0.25318,0.53763,0.14902,0.58984,0.79492
2.72,0.25709,0.52004,0.28431,0.63477,0.67969
2.728,0.261,0.50049,0.37451,0.69531,0.61523
2.736,0.26491,0.48094,0.40392,0.70508,0.5957
2.744,0.26882,0.46237,0.4098,0.71484,0.5957
2.752,0.27175,0.44379,0.40392,0.7207,0.58398
2.76,0.27566,0.42717,0.41961,0.74023,0.58398
2.768,0.27859,0.41251,0.40392,0.73438,0.58398
2.776,0.2825,0.39785,0.41961,0.72461,0.57422
2.784,0.28641,0.38514,0.41961,0.72461,0.58008
2.792,0.29032,0.37439,0.41961,0.73047,0.57422
2.8,0.29423,0.36559,0.40392,0.73438,0.58984
2.808,0.29717,0.35777,0.4098,0.73047,0.58984
2.816,0.30108,0.35093,0.40392,0.74023,0.58398
2.824,0.30499,0.34409,0.41569,0.74023,0.58398
2.832,0.30792,0.33822,0.42941,0.75391,0.57422
2.84,0.31183,0.33431,0.43922,0.75391,0.56445
2.848,0.31476,0.3304,0.4549,0.75977,0.56055
2.856,0.31867,0.32942,0.46471,0.75391,0.55469
2.864,0.32258,0.32845,0.47059,0.75391,0.53906
2.872,0.32649,0.32845,0.49412,0.75391,0.5293
2.88,0.33138,0.32942,0.51569,0.75391,0.50977
2.888,0.33529,0.3304,0.53529,0.75391,0.49023
2.896,0.3392,0.33138,0.56078,0.75391,0.4707
2.904,0.34311,0.33236,0.58039,0.75,0.44922
2.912,0.34702,0.33333,0.6098,0.74414,0.41992
2.92,0.34995,0.33333,0.63529,0.73438,0.40039
2.928,0.35386,0.33431,0.6549,0.74414,0.39062
2.936,0.35679,0.33431,0.67647,0.73047,0.37109
2.944,0.35973,0.33529,0.68627,0.73047,0.35938
2.952,0.36266,0.33529,0.66078,0.73047,0.38477
2.96,0.36559,0.33529,0.61961,0.72461,0.41602
2.968,0.36755,0.33529,0.57451,0.72461,0.44531
2.976,0.37048,0.33529,0.52549,0.72461,0.48438
2.984,0.37341,0.33529,0.47451,0.72461,0.52539
2.992,0.37537,0.33529,0.42941,0.72461,0.55469
3,0.37634,0.33529,0.40392,0.7207,0.58008
3.008,0.3783,0.33529,0.38039,0.71484,0.5957
3.016,0.3783,0.33529,0.37059,0.7207,0.60547
3.024,0.37928,0.33529,0.36471,0.70508,0.60938
3.032,0.3783,0.33529,0.35882,0.70508,0.60938
3.04,0.3783,0.33529,0.34902,0.70508,0.61914
3.048,0.37732,0.33529,0.3549,0.70508,0.625
3.056,0.37634,0.33529,0.35882,0.68945,0.60547
3.064,0.37537,0.33529,0.36471,0.68555,0.60547
3.072,0.37537,0.33529,0.3549,0.67969,0.61523
3.08,0.37439,0.33529,0.35882,0.67969,0.61523
3.088,0.37341,0.33431,0.3549,0.67578,0.60547
3.096,0.37341,0.33431,0.37059,0.67578,0.60547
3.104,0.37243,0.33431,0.36471,0.66992,0.59961
3.112,0.37243,0.33431,0.37451,0.67969,0.5957
3.12,0.37243,0.33431,0.35882,0.66992,0.60938
3.128,0.37243,0.33333,0.3549,0.67578,0.60938
3.136,0.37243,0.33236,0.35882,0.67578,0.60547
3.144,0.37341,0.3304,0.36471,0.67969,0.60547
3.152,0.37341,0.32845,0.3549,0.67578,0.60547
3.16,0.37537,0.32551,0.35882,0.68555,0.60938
3.168,0.3783,0.32063,0.34902,0.69531,0.61523
3.176,0.38123,0.31672,0.35882,0.69922,0.60547
3.184,0.38416,0.31281,0.37451,0.72461,0.5957
3.192,0.38905,0.31085,0.3902,0.75,0.58984
3.2,0.39394,0.31183,0.40392,0.76953,0.58008
3.208,0.3998,0.31769,0.42549,0.76953,0.56445
3.216,0.40567,0.32845,0.4451,0.76953,0.55469
3.224,0.41056,0.34409,0.4451,0.75977,0.55469
3.232,0.41642,0.36657,0.42941,0.73438,0.55469
3.24,0.42229,0.39394,0.41961,0.69531,0.56055
3.248,0.42717,0.4262,0.4,0.66992,0.56445
3.256,0.43304,0.46237,0.40392,0.6543,0.56445
3.264,0.43891,0.49853,0.4098,0.66992,0.57031
3.272,0.44477,0.5347,0.4,0.69922,0.58008
3.28,0.45064,0.56891,0.38431,0.69531,0.58984
3.288,0.45552,0.6002,0.34902,0.68945,0.61914
3.296,0.46041,0.62463,0.34902,0.68945,0.61523
3.304,0.46432,0.64321,0.33922,0.68555,0.61914
3.312,0.46921,0.65982,0.3549,0.69922,0.60938
3.32,0.47214,0.67351,0.35882,0.68945,0.60938
3.328,0.47605,0.68231,0.3549,0.70508,0.60547
3.336,0.47996,0.68622,0.35882,0.69922,0.60938
3.344,0.48289,0.68719,0.3549,0.74023,0.61914
3.352,0.4868,0.68328,0.41961,0.75,0.58398
3.36,0.49071,0.67644,0.47451,0.68945,0.53906
3.368,0.49365,0.66569,0.61569,0.60938,0.40039
3.376,0.49756,0.652,0.68039,0.625,0.30078
3.384,0.50049,0.63636,0.47451,0.55078,0.38086
3.392,0.5044,0.6217,0.2451,0.43555,0.53516
3.4,0.50733,0.60508,-0.0019608,0.41992,0.76953
3.408,0.51026,0.58651,-0.037255,0.53516,0.86523
3.416,0.5132,0.56696,0.043137,0.51562,0.86914
3.424,0.51613,0.54643,0.18431,0.57422,0.75
3.432,0.51808,0.5259,0.3,0.66406,0.66016
3.44,0.52102,0.50538,0.3451,0.70508,0.62891
3.448,0.52297,0.48583,0.37059,0.74023,0.60938
3.456,0.52493,0.46725,0.37059,0.75,0.61523
3.464,0.52786,0.44966,0.38039,0.75977,0.60547
3.472,0.52981,0.43304,0.37059,0.75391,0.60938
3.48,0.53275,0.4174,0.37059,0.76953,0.60547
3.488,0.53568,0.40274,0.37059,0.77539,0.60547
3.496,0.53861,0.39101,0.36471,0.77539,0.60938
3.504,0.54154,0.38123,0.37451,0.77539,0.60547
3.512,0.5435,0.37146,0.38039,0.7793,0.60547
3.52,0.54643,0.36168,0.38039,0.78516,0.60547
3.528,0.54936,0.35288,0.3902,0.78906,0.58984
3.536,0.5523,0.34506,0.39412,0.79492,0.5957
3.544,0.55425,0.3392,0.39412,0.78906,0.58984
3.552,0.55718,0.33431,0.40392,0.78906,0.58398
3.56,0.55914,0.33138,0.41569,0.79492,0.57422
3.568,0.56109,0.3304,0.42549,0.79883,0.57031
3.576,0.56403,0.3304,0.4451,0.79492,0.55469
3.584,0.56696,0.3304,0.4549,0.79883,0.53906
3.592,0.56989,0.33138,0.47059,0.80469,0.5293
3.6,0.57283,0.33333,0.4902,0.81445,0.50977
3.608,0.57478,0.33333,0.52941,0.82031,0.48438
3.616,0.57771,0.33333,0.5549,0.82422,0.46484
3.624,0.58065,0.33431,0.58039,0.83008,0.44531
3.632,0.5826,0.33431,0.6098,0.83984,0.41992
3.64,0.58553,0.33431,0.62941,0.83398,0.4043
3.648,0.58749,0.33431,0.6451,0.83984,0.39453
3.656,0.58944,0.33431,0.63529,0.82422,0.4043
3.664,0.5914,0.33431,0.61961,0.82031,0.40039
3.672,0.59335,0.33333,0.58039,0.78516,0.43555
3.68,0.59531,0.33333,0.51569,0.7793,0.49023
3.688,0.59531,0.33138,0.47451,0.75977,0.51562
3.696,0.59629,0.33138,0.44902,0.75391,0.53906
3.704,0.59629,0.3304,0.40392,0.75391,0.57422
3.712,0.59629,0.32747,0.37059,0.75,0.5957
3.72,0.59629,0.32551,0.34902,0.73438,0.61523
3.728,0.59531,0.32356,0.3549,0.7207,0.60938
3.736,0.59335,0.32063,0.34902,0.71484,0.60938
3.744,0.59238,0.31965,0.35882,0.7207,0.61523
3.752,0.59042,0.31769,0.34902,0.70898,0.61914
3.76,0.58944,0.31476,0.3902,0.71484,0.5957
3.768,0.58749,0.31281,0.39412,0.7207,0.59961
3.776,0.58651,0.30987,0.37059,0.70898,0.60547
3.784,0.58456,0.30694,0.37059,0.70898,0.59961
3.792,0.58358,0.30499,0.36471,0.70898,0.60938
3.8,0.58162,0.30303,0.37059,0.70508,0.60547
3.808,0.58065,0.3001,0.37059,0.69531,0.60547
3.816,0.57869,0.29814,0.37059,0.68555,0.60547
3.824,0.57674,0.29521,0.37451,0.67969,0.59961
3.832,0.57478,0.29326,0.38431,0.68945,0.5957
3.84,0.57283,0.29032,0.37451,0.67969,0.59961
3.848,0.57185,0.28837,0.38039,0.68945,0.58984
3.856,0.56989,0.28641,0.37059,0.68555,0.59961
3.864,0.56891,0.28348,0.38039,0.67969,0.58984
3.872,0.56794,0.28055,0.38431,0.67969,0.58984
3.88,0.56598,0.27859,0.37451,0.68945,0.5957
3.888,0.565,0.27859,0.40392,0.70508,0.58398
3.896,0.565,0.28055,0.41961,0.72461,0.57422
3.904,0.56403,0.28543,0.41961,0.74023,0.57031
3.912,0.56403,0.29423,0.47059,0.75,0.53906
3.92,0.56403,0.30987,0.5,0.74414,0.52539
3.928,0.56403,0.33138,0.4902,0.73438,0.53516
3.936,0.56403,0.35875,0.48431,0.69922,0.5293
3.944,0.56403,0.39101,0.46471,0.66016,0.53906
3.952,0.56403,0.42717,0.44902,0.62891,0.55078
3.96,0.56403,0.46628,0.46471,0.61914,0.53906
3.968,0.56403,0.5044,0.4451,0.625,0.56055
3.976,0.565,0.54057,0.44902,0.65039,0.56055
3.984,0.565,0.57478,0.41961,0.6543,0.58008
3.992,0.56696,0.6002,0.4,0.65039,0.59961
4,0.56794,0.62072,0.39412,0.65039,0.59961
4.008,0.56989,0.64027,0.4,0.64453,0.60547
4.016,0.57283,0.65689,0.4098,0.64062,0.58984
4.024,0.57478,0.67058,0.4,0.64062,0.59961
4.032,0.57674,0.67937,0.39412,0.63477,0.59961
4.04,0.57869,0.68524,0.4098,0.63477,0.5957
4.048,0.58065,0.68622,0.40392,0.66406,0.5957
4.056,0.5826,0.68524,0.46471,0.67578,0.56055
4.064,0.58553,0.68133,0.52549,0.63477,0.51562
4.072,0.58847,0.67351,0.67647,0.58398,0.37109
4.08,0.5914,0.66471,0.75098,0.60547,0.26953
4.088,0.59433,0.65298,0.52549,0.48047,0.35547
4.096,0.59726,0.64125,0.26471,0.29492,0.5293
4.104,0.60117,0.62854,0.033333,0.2793,0.75977
4.112,0.60411,0.61486,0.013725,0.38086,0.83008
4.12,0.60802,0.59824,0.13922,0.41602,0.78906
4.128,0.61193,0.58065,0.29412,0.53906,0.68555
4.136,0.61584,0.56207,0.37059,0.625,0.625
4.144,0.61877,0.54252,0.41961,0.66992,0.59961
4.152,0.62268,0.52102,0.42941,0.68555,0.58984
4.16,0.62659,0.50049,0.41961,0.70508,0.60547
4.168,0.6305,0.47898,0.41961,0.7207,0.59961
4.176,0.63441,0.45748,0.42549,0.72461,0.5957
4.184,0.63734,0.43695,0.41569,0.73047,0.59961
4.192,0.64125,0.42033,0.41961,0.73047,0.59961
4.2,0.64418,0.40665,0.41569,0.73438,0.5957
4.208,0.64712,0.39198,0.42549,0.74414,0.58398
4.216,0.65103,0.37732,0.42941,0.75,0.58984
4.224,0.65494,0.36559,0.42549,0.75391,0.58398
4.232,0.65885,0.35386,0.41961,0.75977,0.58398
4.24,0.66373,0.34506,0.41569,0.76953,0.58984
4.248,0.66667,0.33822,0.43529,0.7793,0.58398
4.256,0.67058,0.33333,0.44902,0.78516,0.57031
4.264,0.67449,0.3304,0.4549,0.78516,0.56445
4.272,0.67742,0.32845,0.43922,0.7793,0.58008
4.28,0.68133,0.32747,0.46471,0.78516,0.56055
4.288,0.68426,0.32747,0.46078,0.7793,0.54492
4.296,0.68817,0.32747,0.50588,0.79492,0.51953
4.304,0.6911,0.32845,0.53922,0.79883,0.49414
4.312,0.69404,0.32942,0.56471,0.82031,0.48047
4.32,0.69697,0.32942,0.60588,0.82422,0.44922
4.328,0.6999,0.3304,0.64118,0.83984,0.42578
4.336,0.70283,0.3304,0.65098,0.84375,0.41602
4.344,0.70381,0.33138,0.6451,0.84375,0.41992
4.352,0.70577,0.33236,0.67059,0.83984,0.40039
4.36,0.70674,0.33333,0.69608,0.83008,0.38477
4.368,0.70772,0.33333,0.6549,0.81055,0.41016
4.376,0.70772,0.33431,0.6,0.78906,0.44531
4.384,0.70772,0.33431,0.53922,0.76953,0.49023
4.392,0.70577,0.33431,0.5098,0.75391,0.50977
4.4,0.70381,0.33431,0.4549,0.73438,0.54492
4.408,0.70088,0.33431,0.41569,0.72461,0.58008
4.416,0.69892,0.33431,0.39412,0.7207,0.58984
4.424,0.69501,0.33431,0.38039,0.71484,0.60547
4.432,0.69208,0.33431,0.37059,0.72461,0.60938
4.44,0.68719,0.33431,0.38039,0.71484,0.60547
4.448,0.68231,0.33431,0.35882,0.71484,0.61523
4.456,0.67742,0.33431,0.37059,0.70898,0.60938
4.464,0.67155,0.33431,0.37059,0.70898,0.61523
4.472,0.66569,0.33431,0.3549,0.71484,0.61914
4.48,0.65982,0.33627,0.37059,0.73047,0.60938
4.488,0.65298,0.33822,0.37451,0.72461,0.60547
4.496,0.64712,0.34018,0.38431,0.73047,0.60547
4.504,0.64125,0.34213,0.37059,0.73047,0.60938
4.512,0.63539,0.34409,0.37451,0.73047,0.60547
4.52,0.62952,0.34702,0.37451,0.72461,0.60547
4.528,0.62463,0.34897,0.38431,0.73047,0.60547
4.536,0.61975,0.35093,0.3902,0.7207,0.5957
4.544,0.61388,0.35191,0.37059,0.72461,0.60938
4.552,0.60899,0.35288,0.37451,0.73047,0.60547
4.56,0.60313,0.35288,0.38039,0.73047,0.59961
4.568,0.59824,0.35191,0.36471,0.72461,0.60938
4.576,0.59433,0.35191,0.37059,0.7207,0.60547
4.584,0.58944,0.35191,0.38039,0.73047,0.59961
4.592,0.58553,0.35288,0.37059,0.75391,0.60547
4.6,0.58065,0.35679,0.4098,0.77539,0.58008
4.608,0.57576,0.36364,0.40392,0.79492,0.58008
4.616,0.57087,0.37537,0.43529,0.80469,0.55469
4.624,0.56598,0.39296,0.44902,0.79492,0.53906
4.632,0.56109,0.41642,0.4549,0.78516,0.53906
4.64,0.55718,0.44575,0.44902,0.75,0.53906
4.648,0.55327,0.48583,0.42941,0.71484,0.56055
4.656,0.54936,0.5347,0.41569,0.68945,0.57422
4.664,0.54545,0.5826,0.4,0.67969,0.58008
4.672,0.54154,0.62854,0.4,0.68945,0.58398
4.68,0.53763,0.67058,0.4098,0.71484,0.58008
4.688,0.53372,0.70381,0.3902,0.70898,0.58984
4.696,0.52884,0.73118,0.38431,0.71484,0.59961
4.704,0.52395,0.7566,0.37059,0.7207,0.60547
4.712,0.51906,0.77908,0.35882,0.73047,0.61914
4.72,0.51417,0.79765,0.36471,0.73047,0.60938
4.728,0.50929,0.81134,0.35882,0.73047,0.60547
4.736,0.50538,0.82014,0.36471,0.73047,0.61523
4.744,0.50147,0.82502,0.34902,0.73047,0.61914
4.752,0.49853,0.826,0.37451,0.75,0.60938
4.76,0.49462,0.82307,0.41569,0.75391,0.58984
4.768,0.49071,0.8172,0.48039,0.71484,0.5293
4.776,0.48583,0.80841,0.6451,0.66992,0.38086
4.784,0.48192,0.79765,0.7098,0.66406,0.2793
4.792,0.47703,0.78592,0.49412,0.54492,0.36523
4.8,0.47312,0.77224,0.21961,0.37109,0.55078
4.808,0.46921,0.7566,-0.0058823,0.35547,0.77539
4.816,0.4653,0.73803,-0.027451,0.4707,0.84961
4.824,0.46237,0.7175,0.10392,0.49023,0.81055
4.832,0.45846,0.69501,0.23922,0.5957,0.70898
4.84,0.45455,0.67155,0.33922,0.68945,0.63477
4.848,0.45161,0.64712,0.36471,0.73047,0.61523
4.856,0.44868,0.62268,0.35882,0.75,0.625
4.864,0.44575,0.59726,0.38431,0.75977,0.60547
4.872,0.44282,0.5738,0.38039,0.75977,0.60547
4.88,0.44086,0.55034,0.38431,0.76562,0.60547
4.888,0.43793,0.53079,0.38431,0.76562,0.59961
4.896,0.435,0.51417,0.39412,0.77539,0.59961
4.904,0.43304,0.49756,0.39412,0.76953,0.59961
4.912,0.43011,0.48192,0.4,0.77539,0.5957
4.92,0.42815,0.46725,0.39412,0.75977,0.59961
4.928,0.42522,0.45455,0.4098,0.75977,0.58398
4.936,0.42326,0.44282,0.41961,0.75391,0.57422
4.944,0.42229,0.43304,0.4,0.76953,0.58984
4.952,0.42033,0.42424,0.41961,0.77539,0.58398
4.96,0.41838,0.41642,0.42941,0.77539,0.57031
4.968,0.4174,0.41056,0.4451,0.76953,0.56445
4.976,0.41642,0.40665,0.46471,0.77539,0.54492
4.984,0.41544,0.40371,0.46471,0.7793,0.55469
4.992,0.41447,0.40274,0.47451,0.77539,0.53516
5,0.41447,0.40078,0.49412,0.78516,0.51953
5.008,0.41447,0.40078,0.52941,0.7793,0.49414
5.016,0.41447,0.40078,0.5549,0.79883,0.47461
5.024,0.41544,0.3998,0.5902,0.80469,0.44531
5.032,0.41544,0.39883,0.61569,0.81445,0.42578
5.04,0.41642,0.39785,0.65098,0.82422,0.40039
5.048,0.41642,0.39687,0.66471,0.82422,0.38477
5.056,0.4174,0.39492,0.68627,0.82031,0.37109
5.064,0.4174,0.39296,0.67647,0.82031,0.37109
5.072,0.4174,0.38905,0.66078,0.79883,0.38477
5.08,0.4174,0.38514,0.6098,0.79492,0.41992
5.088,0.4174,0.38221,0.5549,0.78516,0.46094
5.096,0.41642,0.3783,0.51569,0.78906,0.49023
5.104,0.41642,0.37341,0.48039,0.77539,0.51562
5.112,0.41544,0.36852,0.4451,0.7793,0.55469
5.12,0.41349,0.36461,0.41569,0.78906,0.57422
5.128,0.41153,0.36168,0.4,0.78906,0.58398
5.136,0.4086,0.35875,0.39412,0.77539,0.58984
5.144,0.40665,0.35777,0.39412,0.78516,0.5957
5.152,0.40371,0.35582,0.39412,0.78906,0.5957
5.16,0.40078,0.35386,0.39412,0.78906,0.58984
5.168,0.39785,0.35093,0.4,0.78906,0.58398
5.176,0.39394,0.348,0.39412,0.81055,0.58984
5.184,0.38905,0.34506,0.39412,0.82031,0.58984
5.192,0.38319,0.34115,0.4098,0.82031,0.58008
5.2,0.37732,0.33822,0.41569,0.82422,0.58398
5.208,0.37243,0.33333,0.4,0.83398,0.58398
5.216,0.36657,0.32845,0.4098,0.83984,0.58008
5.224,0.3607,0.32356,0.41961,0.84961,0.57422
5.232,0.35484,0.31965,0.4,0.85547,0.58398
5.24,0.348,0.31476,0.39412,0.84961,0.58008
5.248,0.34213,0.31085,0.40392,0.875,0.58008
5.256,0.33431,0.30694,0.41569,0.87891,0.57031
5.264,0.32747,0.30205,0.4098,0.88477,0.57422
5.272,0.31965,0.29619,0.4,0.87891,0.58008
5.28,0.31183,0.29032,0.4098,0.88477,0.56445
5.288,0.30499,0.28543,0.41569,0.87891,0.57031
5.296,0.29717,0.2825,0.4098,0.90039,0.56445
5.304,0.2913,0.28152,0.41961,0.91406,0.56055
5.312,0.28543,0.28446,0.43529,0.94922,0.55078
5.32,0.27957,0.29326,0.4451,0.98047,0.54492
5.328,0.27468,0.30987,0.46078,1,0.53516
5.336,0.26882,0.33529,0.47451,0.98438,0.52539
5.344,0.26393,0.36755,0.47059,1.0039,0.5293
5.352,0.25904,0.40567,0.47451,0.98047,0.51953
5.36,0.25415,0.44868,0.48039,0.96484,0.52539
5.368,0.25024,0.49267,0.46078,0.92969,0.53516
5.376,0.24731,0.53666,0.4549,0.91406,0.53516
5.384,0.24438,0.57771,0.4451,0.91992,0.53516
5.392,0.24145,0.60997,0.42941,0.95898,0.56055
5.4,0.23949,0.63636,0.4098,0.96875,0.57422
5.408,0.23754,0.66178,0.3902,0.96875,0.58984
5.416,0.23558,0.68426,0.37451,0.97461,0.5957
5.424,0.2346,0.70283,0.38039,0.96484,0.5957
5.432,0.2346,0.71652,0.38039,0.98438,0.59961
5.44,0.23363,0.72532,0.37451,0.98438,0.5957
5.448,0.23363,0.72923,0.38431,0.98438,0.5957
5.456,0.2346,0.73021,0.39412,0.98047,0.58398
5.464,0.2346,0.72825,0.39412,0.99023,0.58984
5.472,0.23558,0.72141,0.4098,1.0137,0.58398
5.48,0.23754,0.71261,0.4549,0.97461,0.53906
5.488,0.23851,0.70283,0.59608,0.86523,0.41016
5.496,0.24047,0.6911,0.72549,0.79883,0.25977
5.504,0.24242,0.67644,0.57059,0.81445,0.31445
5.512,0.24536,0.65885,0.3098,0.75,0.48047
5.52,0.24731,0.64027,0.062745,0.73047,0.71484
5.528,0.25024,0.61975,-0.0019608,0.91016,0.85547
5.536,0.2522,0.59824,0.052941,0.93945,0.875
5.544,0.25513,0.57478,0.13333,0.85938,0.79883
5.552,0.25806,0.55034,0.26863,0.91406,0.68555
5.56,0.26197,0.5259,0.3451,0.96875,0.62891
5.568,0.26491,0.50049,0.37451,0.98047,0.60547
5.576,0.26979,0.47605,0.39412,1,0.59961
5.584,0.2737,0.45259,0.39412,1.0098,0.59961
5.592,0.27859,0.43304,0.40392,1.0098,0.58398
5.6,0.28348,0.41642,0.40392,1.0137,0.58398
5.608,0.28739,0.3998,0.40392,1.0195,0.58984
5.616,0.29228,0.38416,0.4098,1.0098,0.58398
5.624,0.29619,0.37048,0.40392,1.0098,0.58984
5.632,0.3001,0.35875,0.4,1.0039,0.58984
5.64,0.30401,0.34897,0.41961,1,0.58398
5.648,0.30792,0.34018,0.41961,1.0098,0.58398
5.656,0.31281,0.33333,0.43529,1.0039,0.57031
5.664,0.31672,0.32747,0.43922,1,0.56445
5.672,0.3216,0.32356,0.4451,0.99414,0.56055
5.68,0.32649,0.32063,0.4451,1.0039,0.56055
5.688,0.33138,0.31867,0.4451,1,0.55469
5.696,0.33529,0.31867,0.46471,0.99414,0.53906
5.704,0.34018,0.31769,0.48431,0.99023,0.5293
5.712,0.34409,0.31867,0.4902,0.99414,0.51953
5.72,0.34897,0.31965,0.5,1,0.50977
5.728,0.35288,0.31965,0.52941,1.0039,0.48438
5.736,0.35875,0.31965,0.56471,0.98438,0.46094
5.744,0.36364,0.31965,0.5902,0.99023,0.43555
5.752,0.36852,0.31965,0.63529,0.99023,0.41016
5.76,0.37341,0.31965,0.6549,0.99414,0.39062
5.768,0.3783,0.31965,0.66078,0.99023,0.38477
5.776,0.38416,0.31867,0.66471,0.99414,0.38086
5.784,0.38905,0.31769,0.6549,0.97461,0.38477
5.792,0.39394,0.31672,0.62941,0.98047,0.4043
5.8,0.39785,0.31672,0.58431,0.96484,0.43945
5.808,0.40274,0.31574,0.53922,0.96484,0.48047
5.816,0.40665,0.31378,0.47451,0.95898,0.52539
5.824,0.41056,0.31281,0.43529,0.94922,0.56055
5.832,0.41251,0.30987,0.41961,0.92969,0.56445
5.84,0.41544,0.30792,0.4,0.93945,0.58398
5.848,0.4174,0.30596,0.38039,0.93945,0.59961
5.856,0.41935,0.30303,0.36471,0.93555,0.61914
5.864,0.42033,0.29912,0.37059,0.93945,0.61523
5.872,0.42229,0.29521,0.36471,0.91406,0.60938
5.88,0.42229,0.2913,0.35882,0.91016,0.60938
5.888,0.42326,0.28739,0.37451,0.90039,0.60547
5.896,0.42229,0.28446,0.38431,0.91016,0.59961
5.904,0.42229,0.28055,0.37059,0.89453,0.60938
5.912,0.42131,0.27761,0.3902,0.90039,0.59961
5.92,0.42033,0.27468,0.38431,0.88477,0.59961
5.928,0.41935,0.27175,0.38039,0.89453,0.59961
5.936,0.41838,0.26882,0.38431,0.87891,0.5957
5.944,0.4174,0.26588,0.3902,0.88477,0.5957
5.952,0.41544,0.26295,0.39412,0.87891,0.5957
5.96,0.41447,0.25904,0.39412,0.875,0.5957
5.968,0.41447,0.25513,0.39412,0.86523,0.58984
5.976,0.41349,0.25024,0.39412,0.86914,0.58398
5.984,0.41349,0.24536,0.40392,0.86914,0.58398
5.992,0.41349,0.24145,0.39412,0.875,0.5957
6,0.41447,0.23851,0.39412,0.875,0.58984
6.008,0.41447,0.23558,0.4,0.88867,0.5957
6.016,0.41447,0.23265,0.39412,0.89453,0.58398
6.024,0.41447,0.23265,0.41569,0.91406,0.58008
6.032,0.41447,0.23656,0.43922,0.92969,0.56445
6.04,0.41447,0.24438,0.44902,0.93945,0.55469
6.048,0.41544,0.26002,0.46078,0.92383,0.54492
6.056,0.41642,0.28152,0.4549,0.91406,0.55078
6.064,0.4174,0.31085,0.46471,0.9043,0.53516
6.072,0.41935,0.34604,0.44902,0.86914,0.53906
6.08,0.42033,0.38514,0.43529,0.83398,0.55078
6.088,0.42326,0.42131,0.43529,0.82031,0.55469
6.096,0.42522,0.4565,0.43922,0.82031,0.55078
6.104,0.42717,0.4956,0.41961,0.84375,0.57031
6.112,0.42913,0.5347,0.4098,0.85938,0.58008
6.12,0.43011,0.57283,0.38431,0.84375,0.5957
6.128,0.43109,0.60606,0.37059,0.85547,0.60547
6.136,0.43304,0.63539,0.37059,0.84375,0.60547
6.144,0.43402,0.65787,0.35882,0.84375,0.60547
6.152,0.43597,0.67449,0.34902,0.83398,0.60938
6.16,0.43695,0.68426,0.3549,0.83984,0.60938
6.168,0.43793,0.68915,0.3549,0.83398,0.60938
6.176,0.43891,0.68719,0.36471,0.84375,0.60547
6.184,0.43988,0.68133,0.4098,0.85938,0.58398
6.192,0.44086,0.67253,0.46078,0.83398,0.53906
6.2,0.44184,0.6608,0.5902,0.71484,0.41992
6.208,0.44282,0.64516,0.71569,0.67578,0.28516
6.216,0.44379,0.62757,0.56471,0.69922,0.33594
6.224,0.44477,0.60704,0.32353,0.66016,0.48438
6.232,0.44673,0.58456,0.078431,0.65039,0.73047
6.24,0.4477,0.56109,-0.0019608,0.76562,0.85938
6.248,0.44966,0.53666,0.052941,0.79492,0.86914
6.256,0.45161,0.51124,0.13333,0.68945,0.78906
6.264,0.45259,0.48583,0.27451,0.74023,0.68555
6.272,0.45455,0.46041,0.34902,0.78906,0.61914
6.28,0.4565,0.43793,0.37059,0.81055,0.60547
6.288,0.45846,0.41838,0.38039,0.82031,0.59961
6.296,0.46139,0.40176,0.3902,0.83008,0.5957
6.304,0.46432,0.38319,0.38431,0.82422,0.5957
6.312,0.46823,0.36559,0.39412,0.81445,0.58984
6.32,0.47116,0.348,0.3902,0.81445,0.58984
6.328,0.47507,0.33236,0.39412,0.82031,0.58398
6.336,0.47801,0.31867,0.39412,0.80469,0.58398
6.344,0.48192,0.30596,0.39412,0.81055,0.58398
6.352,0.48485,0.29619,0.4,0.80469,0.58398
6.36,0.48778,0.28837,0.3902,0.80469,0.58398
6.368,0.49169,0.2825,0.3902,0.79883,0.58984
6.376,0.49462,0.27761,0.4,0.80469,0.58398
6.384,0.49853,0.27566,0.4,0.79883,0.58398
6.392,0.50147,0.27468,0.41961,0.80469,0.57031
6.4,0.50538,0.27566,0.41961,0.79883,0.56445
6.408,0.50733,0.27664,0.43922,0.79883,0.56055
6.416,0.51026,0.27761,0.4451,0.79492,0.54492
6.424,0.5132,0.27957,0.47059,0.79883,0.5293
6.432,0.51613,0.28055,0.48431,0.78906,0.51562
6.44,0.51808,0.2825,0.5098,0.78516,0.49414
6.448,0.52102,0.28348,0.53529,0.7793,0.47461
6.456,0.52199,0.28446,0.57059,0.78516,0.44531
6.464,0.52395,0.28641,0.60588,0.79883,0.41992
6.472,0.52493,0.28837,0.61961,0.79883,0.4043
6.48,0.52688,0.29032,0.63529,0.79883,0.39453
6.488,0.52688,0.29228,0.64118,0.79492,0.39062
6.496,0.52688,0.29423,0.62941,0.78516,0.39453
6.504,0.52688,0.29521,0.60588,0.77539,0.41602
6.512,0.5259,0.29717,0.56078,0.76953,0.44922
6.52,0.5259,0.29814,0.5098,0.75977,0.49023
6.528,0.52493,0.3001,0.46471,0.75391,0.5293
6.536,0.52395,0.30108,0.42549,0.74414,0.55469
6.544,0.52395,0.30303,0.39412,0.74414,0.58008
6.552,0.52199,0.30401,0.37059,0.73438,0.59961
6.56,0.52004,0.30401,0.37451,0.74023,0.5957
6.568,0.51808,0.30401,0.35882,0.73047,0.60547
6.576,0.51515,0.30303,0.3549,0.73438,0.60547
6.584,0.5132,0.30303,0.3451,0.73047,0.61523
6.592,0.51124,0.30303,0.34902,0.73047,0.625
6.6,0.50929,0.30205,0.35882,0.72461,0.60547
6.608,0.50733,0.30108,0.34902,0.7207,0.60547
6.616,0.50635,0.29912,0.35882,0.71484,0.60938
6.624,0.5044,0.29619,0.37059,0.71484,0.60547
6.632,0.50342,0.29228,0.36471,0.70508,0.60547
6.64,0.50244,0.28837,0.37059,0.70508,0.59961
6.648,0.50147,0.28446,0.37451,0.69922,0.60547
6.656,0.50049,0.28055,0.37059,0.69531,0.60547
6.664,0.49951,0.27761,0.37451,0.69531,0.59961
6.672,0.49853,0.27468,0.37059,0.68555,0.60547
6.68,0.49853,0.27175,0.38039,0.68555,0.5957
6.688,0.49756,0.26979,0.38039,0.67969,0.58984
6.696,0.49853,0.27175,0.38039,0.68945,0.5957
6.704,0.49853,0.27566,0.37451,0.68945,0.59961
6.712,0.49853,0.27566,0.38039,0.69531,0.59961
6.72,0.49951,0.27468,0.38431,0.70508,0.5957
6.728,0.50049,0.27468,0.4,0.73047,0.58398
6.736,0.50147,0.27566,0.40392,0.74023,0.58008
6.744,0.50244,0.28055,0.41961,0.75391,0.56445
6.752,0.50342,0.28837,0.4451,0.75391,0.55078
6.76,0.50538,0.30205,0.43922,0.75391,0.55469
6.768,0.50635,0.3216,0.44902,0.72461,0.54492
6.776,0.50733,0.34702,0.43529,0.68945,0.54492
6.784,0.50831,0.37341,0.42549,0.6543,0.55469
6.792,0.50831,0.40078,0.41569,0.64453,0.56055
6.8,0.50929,0.43304,0.41569,0.64062,0.56055
6.808,0.50929,0.46921,0.4,0.67578,0.57422
6.816,0.51026,0.50538,0.3902,0.67969,0.58398
6.824,0.51026,0.53959,0.38039,0.67969,0.58984
6.832,0.51026,0.57185,0.38039,0.67969,0.59961
6.84,0.51026,0.60117,0.37451,0.67969,0.60547
6.848,0.51026,0.62561,0.37451,0.67969,0.59961
6.856,0.51026,0.64418,0.37059,0.67969,0.59961
6.864,0.50929,0.65787,0.37059,0.68555,0.60547
6.872,0.50831,0.66764,0.37451,0.67969,0.59961
6.88,0.50831,0.67155,0.38039,0.68945,0.59961
6.888,0.50635,0.67155,0.41569,0.7207,0.58984
6.896,0.50538,0.66667,0.44902,0.69922,0.56445
6.904,0.5044,0.65982,0.56471,0.64062,0.46094
6.912,0.50342,0.64907,0.72157,0.61914,0.31055
6.92,0.50244,0.63636,0.6098,0.64453,0.29102
6.928,0.50147,0.62268,0.3549,0.47461,0.46094
6.936,0.50049,0.60606,0.10392,0.375,0.66406
6.944,0.49951,0.58944,-0.0058823,0.43945,0.82422
6.952,0.49853,0.57087,0.04902,0.46484,0.83984
6.96,0.49853,0.5523,0.13922,0.46094,0.7793
6.968,0.49756,0.53275,0.28431,0.58398,0.66992
6.976,0.49658,0.5132,0.36471,0.66016,0.61523
6.984,0.4956,0.49658,0.37451,0.67969,0.60547
6.992,0.4956,0.48094,0.38431,0.70508,0.59961
7,0.4956,0.46432,0.39412,0.70898,0.59961
7.008,0.4956,0.4477,0.3902,0.7207,0.59961
7.016,0.4956,0.43206,0.39412,0.71484,0.5957
7.024,0.4956,0.4174,0.39412,0.7207,0.58984
7.032,0.4956,0.40469,0.4,0.7207,0.58984
7.04,0.49658,0.39296,0.4098,0.72461,0.58398
7.048,0.49658,0.38221,0.4,0.70508,0.58984
7.056,0.49658,0.37243,0.4098,0.71484,0.58398
7.064,0.49658,0.36461,0.40392,0.7207,0.58398
7.072,0.49658,0.35777,0.40392,0.71484,0.58398
7.08,0.4956,0.35288,0.41569,0.72461,0.58008
7.088,0.4956,0.34897,0.42549,0.72461,0.57031
7.096,0.49658,0.34604,0.43529,0.73047,0.56445
7.104,0.49756,0.34409,0.44902,0.73047,0.55469
7.112,0.49951,0.34311,0.4549,0.73438,0.55078
7.12,0.50049,0.34311,0.46078,0.74023,0.54492
7.128,0.50147,0.34311,0.4902,0.74414,0.5293
7.136,0.50342,0.34311,0.5098,0.75,0.50977
7.144,0.50342,0.34311,0.53529,0.75391,0.49023
7.152,0.5044,0.34311,0.57059,0.75391,0.46094
7.16,0.50538,0.34311,0.6,0.76953,0.43555
7.168,0.50733,0.34311,0.62941,0.77539,0.41992
7.176,0.50831,0.34311,0.66078,0.76953,0.39453
7.184,0.50929,0.34311,0.68039,0.76562,0.375
7.192,0.51026,0.34311,0.67059,0.75977,0.38477
7.2,0.51124,0.34409,0.66078,0.75,0.39453
7.208,0.51124,0.34311,0.63529,0.74023,0.41602
7.216,0.51222,0.34213,0.5902,0.70898,0.44531
7.224,0.51124,0.34018,0.52941,0.68945,0.48047
7.232,0.51124,0.33724,0.47059,0.67578,0.52539
7.24,0.51026,0.33529,0.43529,0.66406,0.55078
7.248,0.50929,0.33333,0.40392,0.6543,0.57422
7.256,0.50635,0.33138,0.3902,0.6543,0.58984
7.264,0.5044,0.32845,0.37451,0.66016,0.59961
7.272,0.50049,0.32747,0.35882,0.65039,0.60938
7.28,0.49658,0.32551,0.36471,0.6543,0.61523
7.288,0.49267,0.32551,0.3549,0.64453,0.60547
7.296,0.48974,0.32454,0.3549,0.64062,0.61523
7.304,0.48583,0.32356,0.37059,0.64062,0.60547
7.312,0.48192,0.32258,0.38039,0.64062,0.60547
7.32,0.47801,0.32063,0.38039,0.64062,0.59961
7.328,0.47312,0.31867,0.37059,0.64062,0.60547
7.336,0.46823,0.31672,0.38039,0.63477,0.59961
7.344,0.46334,0.31476,0.3902,0.64453,0.5957
7.352,0.45748,0.31281,0.38431,0.63477,0.5957
7.36,0.45259,0.31085,0.3902,0.64453,0.58984
7.368,0.4477,0.3089,0.38039,0.62891,0.58984
7.376,0.44184,0.30596,0.3902,0.62891,0.58398
7.384,0.43793,0.30401,0.38431,0.625,0.58398
7.392,0.43402,0.30108,0.39412,0.62891,0.58398
7.4,0.43011,0.29717,0.38431,0.61914,0.58398
7.408,0.42717,0.29326,0.38039,0.62891,0.58984
7.416,0.42424,0.28837,0.3902,0.63477,0.58398
7.424,0.42229,0.28446,0.40392,0.66016,0.57422
7.432,0.42033,0.2825,0.4098,0.67578,0.57031
7.44,0.41838,0.2825,0.42941,0.69531,0.56055
7.448,0.4174,0.28739,0.43922,0.69922,0.54492
7.456,0.41642,0.29912,0.46078,0.67969,0.5293
7.464,0.41544,0.31672,0.46471,0.66406,0.53516
7.472,0.41544,0.34115,0.44902,0.62891,0.53516
7.48,0.41447,0.37146,0.4451,0.5957,0.54492
7.488,0.41447,0.40078,0.43529,0.58008,0.55078
7.496,0.41447,0.43011,0.42941,0.58398,0.55469
7.504,0.41349,0.46432,0.41961,0.57422,0.55078
7.512,0.41251,0.50049,0.4098,0.60938,0.57031
7.52,0.41153,0.53568,0.39412,0.59961,0.58398
7.528,0.41056,0.56696,0.37451,0.60938,0.58984
7.536,0.40958,0.59531,0.37451,0.60547,0.58984
7.544,0.4086,0.61779,0.37059,0.60938,0.5957
7.552,0.40762,0.63636,0.37059,0.60547,0.59961
7.56,0.40567,0.65005,0.37059,0.60938,0.59961
7.568,0.40469,0.65885,0.37059,0.60938,0.60547
7.576,0.40274,0.66471,0.37451,0.61914,0.59961
7.584,0.40078,0.66569,0.39412,0.6543,0.5957
7.592,0.39883,0.66373,0.43529,0.66992,0.57031
7.6,0.39589,0.65982,0.52549,0.61523,0.49414
7.608,0.39394,0.65396,0.69608,0.58984,0.33984
7.616,0.39198,0.64614,0.74118,0.61523,0.2793
7.624,0.39003,0.63636,0.48039,0.43945,0.38086
7.632,0.38807,0.62463,0.19412,0.26562,0.57031
7.64,0.38612,0.61095,-0.0019608,0.31055,0.7793
7.648,0.38514,0.59726,-0.0058823,0.3457,0.83398
7.656,0.38319,0.58065,0.12353,0.39062,0.78516
7.664,0.38221,0.56305,0.27843,0.51953,0.66992
7.672,0.38123,0.54545,0.35882,0.5957,0.61523
7.68,0.38025,0.52688,0.38431,0.63477,0.60547
7.688,0.37928,0.50929,0.38039,0.66016,0.60547
7.696,0.3783,0.49267,0.3902,0.67578,0.60547
7.704,0.37732,0.4741,0.38039,0.67969,0.60547
7.712,0.37634,0.45552,0.3902,0.68945,0.59961
7.72,0.37537,0.43695,0.39412,0.68555,0.60547
7.728,0.37439,0.41838,0.40392,0.69531,0.58984
7.736,0.37341,0.40176,0.4,0.69531,0.5957
7.744,0.37243,0.38612,0.41961,0.70508,0.58398
7.752,0.37048,0.37243,0.3902,0.69531,0.59961
7.76,0.3695,0.36168,0.39412,0.69531,0.58984
7.768,0.36755,0.35191,0.4098,0.68945,0.58398
7.776,0.36657,0.34409,0.41961,0.70508,0.58398
7.784,0.36559,0.3392,0.42549,0.70508,0.57422
7.792,0.36364,0.33529,0.43529,0.71484,0.57031
7.8,0.36266,0.33138,0.4451,0.70898,0.56055
7.808,0.36168,0.32845,0.4451,0.72461,0.56055
7.816,0.3607,0.32551,0.46078,0.73047,0.54492
7.824,0.3607,0.32454,0.48039,0.73438,0.53516
7.832,0.35973,0.32454,0.4902,0.74414,0.52539
7.84,0.35973,0.32454,0.52941,0.75391,0.5
7.848,0.3607,0.32454,0.55098,0.76953,0.48438
7.856,0.3607,0.32454,0.5902,0.77539,0.45508
7.864,0.3607,0.32454,0.61569,0.78516,0.43555
7.872,0.3607,0.32551,0.64118,0.78516,0.41602
7.88,0.3607,0.32649,0.6549,0.77539,0.40039
7.888,0.3607,0.32845,0.66078,0.77539,0.39453
7.896,0.3607,0.32942,0.67059,0.76562,0.39453
7.904,0.3607,0.32942,0.63529,0.75391,0.41016
7.912,0.3607,0.32942,0.58431,0.73047,0.44531
7.92,0.35973,0.32942,0.53529,0.70508,0.48438
7.928,0.35973,0.32747,0.4902,0.67969,0.51562
7.936,0.35973,0.32551,0.43922,0.67578,0.55469
7.944,0.35875,0.32356,0.4098,0.66406,0.57422
7.952,0.35875,0.31965,0.3902,0.6543,0.58984
7.96,0.35679,0.31672,0.37059,0.66016,0.60547
7.968,0.35582,0.31183,0.37451,0.65039,0.60547
7.976,0.35288,0.30596,0.36471,0.65039,0.60938
7.984,0.35093,0.30108,0.35882,0.64062,0.61914
7.992,0.348,0.29619,0.36471,0.65039,0.60938
8,0.34506,0.29032,0.37059,0.63477,0.60547
8.008,0.34115,0.28446,0.37451,0.64453,0.60547
8.016,0.33822,0.27859,0.38039,0.63477,0.59961
8.024,0.33431,0.2737,0.37451,0.64453,0.60547
8.032,0.33138,0.26979,0.3902,0.64062,0.5957
8.04,0.32747,0.26491,0.39412,0.64453,0.58984
8.048,0.32454,0.26197,0.38431,0.64062,0.5957
8.056,0.3216,0.25904,0.38431,0.64453,0.58984
8.064,0.31867,0.25709,0.3902,0.62891,0.58984
8.072,0.31574,0.25513,0.38431,0.61914,0.5957
8.08,0.31281,0.25318,0.3902,0.62891,0.58984
8.088,0.31085,0.2522,0.38039,0.61523,0.59961
8.096,0.30792,0.2522,0.38039,0.625,0.59961
8.104,0.30596,0.2522,0.37451,0.62891,0.59961
8.112,0.30499,0.25024,0.3902,0.61914,0.58984
8.12,0.30303,0.24927,0.39412,0.61523,0.5957
8.128,0.30205,0.25024,0.39412,0.66016,0.58984
8.136,0.3001,0.25415,0.40392,0.67969,0.58398
8.144,0.29912,0.261,0.41961,0.69922,0.57422
8.152,0.29814,0.2737,0.43529,0.69531,0.55469
8.16,0.29619,0.29326,0.44902,0.69922,0.55469
8.168,0.29423,0.31965,0.4549,0.66992,0.53906
8.176,0.29326,0.35191,0.46078,0.63477,0.53516
8.184,0.2913,0.38319,0.42549,0.5957,0.55469
8.192,0.29032,0.41544,0.41961,0.58984,0.56055
8.2,0.28935,0.45259,0.4098,0.58398,0.56445
8.208,0.28739,0.49169,0.4098,0.60547,0.57422
8.216,0.28641,0.52884,0.4,0.61523,0.58398
8.224,0.28446,0.56403,0.38039,0.61914,0.59961
8.232,0.28348,0.59629,0.36471,0.60938,0.60938
8.24,0.28152,0.62366,0.3549,0.61523,0.61523
8.248,0.27957,0.64712,0.35882,0.61523,0.60938
8.256,0.27761,0.66471,0.35882,0.61523,0.60938
8.264,0.27566,0.6784,0.37059,0.61914,0.60547
8.272,0.2737,0.68817,0.36471,0.61523,0.60547
8.28,0.27077,0.69404,0.37059,0.62891,0.60547
8.288,0.26784,0.69599,0.4,0.67578,0.59961
8.296,0.26491,0.69501,0.43529,0.67969,0.58008
8.304,0.26197,0.69306,0.53529,0.61523,0.49023
8.312,0.25806,0.68817,0.7,0.58984,0.33594
8.32,0.25415,0.68133,0.72157,0.59961,0.29102
8.328,0.25122,0.67155,0.40392,0.42578,0.42578
8.336,0.24731,0.6608,0.12353,0.25977,0.63477
8.344,0.24438,0.64907,-0.05098,0.33594,0.82422
8.352,0.24145,0.63441,-0.0019608,0.375,0.85938
8.36,0.23949,0.61877,0.1098,0.42578,0.80469
8.368,0.23754,0.60117,0.26471,0.53906,0.68945
8.376,0.23656,0.5826,0.33529,0.60547,0.63477
8.384,0.2346,0.565,0.37059,0.64062,0.61523
8.392,0.23363,0.54839,0.38431,0.66406,0.60547
8.4,0.23265,0.52981,0.39412,0.67969,0.60547
8.408,0.23167,0.51026,0.39412,0.68555,0.59961
8.416,0.23167,0.49169,0.39412,0.68945,0.60547
8.424,0.23069,0.47312,0.39412,0.69531,0.5957
8.432,0.23069,0.4565,0.4,0.69531,0.5957
8.44,0.22972,0.44184,0.41961,0.69922,0.58984
8.448,0.22972,0.42913,0.4098,0.69531,0.5957
8.456,0.22972,0.41838,0.41961,0.69531,0.58398
8.464,0.22972,0.40958,0.42549,0.68555,0.58398
8.472,0.22972,0.40274,0.42549,0.68555,0.58008
8.48,0.22972,0.39785,0.42549,0.68945,0.58008
8.488,0.22972,0.39492,0.43922,0.67969,0.56445
8.496,0.22972,0.39198,0.44902,0.68945,0.56055
8.504,0.22972,0.39003,0.46078,0.68555,0.55469
8.512,0.22972,0.38905,0.46471,0.68945,0.55078
8.52,0.23069,0.39003,0.4902,0.67578,0.5293
8.528,0.23069,0.39101,0.50588,0.67969,0.51562
8.536,0.23069,0.39198,0.52941,0.68555,0.50586
8.544,0.23069,0.39394,0.55098,0.68945,0.49023
8.552,0.23167,0.39492,0.58431,0.69531,0.46094
8.56,0.23167,0.39687,0.62549,0.69922,0.42969
8.568,0.23167,0.39785,0.6549,0.68945,0.41016
8.576,0.23167,0.3998,0.67647,0.69922,0.39453
8.584,0.23167,0.3998,0.68627,0.67969,0.38086
8.592,0.23265,0.40078,0.7,0.66406,0.37109
8.6,0.23167,0.40078,0.70588,0.65039,0.36523
8.608,0.23167,0.40078,0.66471,0.64062,0.39062
8.616,0.23069,0.3998,0.61961,0.60938,0.41992
8.624,0.22972,0.39785,0.57059,0.59961,0.45508
8.632,0.22678,0.39589,0.51569,0.58398,0.5
8.64,0.22483,0.39296,0.47451,0.57422,0.5293
8.648,0.22092,0.39003,0.44902,0.56445,0.55078
8.656,0.21701,0.3871,0.42941,0.56445,0.56445
8.664,0.2131,0.38514,0.41569,0.56055,0.58398
8.672,0.20919,0.38319,0.41961,0.56445,0.58398
8.68,0.2043,0.38221,0.41569,0.56445,0.58398
8.688,0.20039,0.38025,0.4098,0.57031,0.58398
8.696,0.19453,0.3783,0.4098,0.57422,0.58398
8.704,0.18866,0.37634,0.41961,0.57031,0.58008
8.712,0.18084,0.37341,0.42941,0.58008,0.57422
8.72,0.174,0.37048,0.42549,0.58008,0.58008
8.728,0.16716,0.36559,0.41961,0.58398,0.58398
8.736,0.16031,0.36168,0.42941,0.58008,0.57422
8.744,0.15347,0.35973,0.42549,0.58984,0.57031
8.752,0.14663,0.3607,0.43922,0.58008,0.56055
8.76,0.13881,0.35875,0.41961,0.58984,0.57031
8.768,0.13196,0.35582,0.41569,0.58398,0.58008
8.776,0.12414,0.35093,0.41569,0.59961,0.58008
8.784,0.1173,0.348,0.41569,0.58984,0.58398
8.792,0.11046,0.34409,0.41961,0.60938,0.57422
8.8,0.10362,0.3392,0.42549,0.60938,0.57031
8.808,0.096774,0.33333,0.41961,0.61523,0.57031
8.816,0.090909,0.32649,0.41961,0.625,0.57031
8.824,0.086022,0.32063,0.42941,0.63477,0.57031
8.832,0.082111,0.31476,0.43529,0.66016,0.56445
8.84,0.078201,0.31183,0.44902,0.68945,0.56055
8.848,0.075269,0.31476,0.46471,0.70508,0.54492
8.856,0.072336,0.32356,0.46471,0.7207,0.53516
8.864,0.070381,0.3392,0.4902,0.73438,0.51953
8.872,0.068426,0.36266,0.4902,0.75,0.52539
8.88,0.067449,0.38807,0.4902,0.73438,0.51953
8.888,0.066471,0.41544,0.4902,0.7207,0.51562
8.896,0.066471,0.44966,0.47059,0.68555,0.5293
8.904,0.066471,0.48778,0.46471,0.66992,0.53516
8.912,0.067449,0.52688,0.46078,0.66406,0.53906
8.92,0.067449,0.56403,0.4451,0.70898,0.56055
8.928,0.068426,0.59824,0.42549,0.73047,0.57031
8.936,0.070381,0.62854,0.41569,0.73047,0.58398
8.944,0.071359,0.65494,0.3902,0.73047,0.5957
8.952,0.073314,0.67546,0.38431,0.72461,0.59961
8.96,0.076246,0.69013,0.3902,0.74414,0.59961
8.968,0.078201,0.70088,0.3902,0.74414,0.5957
8.976,0.081134,0.70772,0.38431,0.75391,0.5957
8.984,0.085044,0.71065,0.3902,0.75977,0.60547
8.992,0.087977,0.70968,0.38431,0.77539,0.5957
9,0.091887,0.70577,0.4098,0.79883,0.60547
9.008,0.094819,0.69892,0.47059,0.78516,0.55078
9.016,0.098729,0.68915,0.57451,0.69531,0.44922
9.024,0.10264,0.67742,0.71569,0.60938,0.30078
9.032,0.10655,0.66471,0.62941,0.61914,0.26953
9.04,0.11046,0.64907,0.37451,0.58398,0.43945
9.048,0.11437,0.63245,0.14314,0.57031,0.65039
9.056,0.11828,0.6129,0.029412,0.68945,0.82422
9.064,0.12219,0.59238,0.058824,0.75977,0.85938
9.072,0.1261,0.56891,0.12941,0.68555,0.80469
9.08,0.13196,0.54741,0.27843,0.7207,0.68555
9.088,0.13685,0.52688,0.37451,0.79492,0.61523
9.096,0.14272,0.50342,0.40392,0.83008,0.58984
9.104,0.14858,0.47801,0.41961,0.84961,0.58398
9.112,0.15445,0.45357,0.43529,0.86523,0.58008
9.12,0.16031,0.43011,0.42549,0.88477,0.58398
9.128,0.1652,0.40762,0.41569,0.86914,0.58398
9.136,0.17107,0.38807,0.41961,0.875,0.58398
9.144,0.17693,0.37048,0.42549,0.88867,0.58398
9.152,0.1828,0.35484,0.42941,0.88477,0.58008
9.16,0.18866,0.34115,0.43922,0.88867,0.57031
9.168,0.19355,0.3304,0.4451,0.87891,0.56055
9.176,0.19941,0.32063,0.44902,0.89453,0.56055
9.184,0.20626,0.31378,0.4451,0.9043,0.56445
9.192,0.21212,0.3089,0.42549,0.91406,0.57031
9.2,0.21799,0.30303,0.43922,0.91016,0.56055
9.208,0.22385,0.29814,0.46471,0.91406,0.54492
9.216,0.22874,0.29423,0.47059,0.91406,0.53906
9.224,0.23363,0.29228,0.46471,0.91406,0.54492
9.232,0.23851,0.2913,0.48431,0.91406,0.5293
9.24,0.2434,0.28935,0.51569,0.93555,0.50977
9.248,0.24927,0.28837,0.51569,0.92969,0.5
9.256,0.25513,0.28837,0.56078,0.92383,0.47461
9.264,0.261,0.28837,0.6,0.93555,0.44922
9.272,0.26686,0.28739,0.61569,0.93945,0.42578
9.28,0.27273,0.28739,0.62941,0.93555,0.41016
9.288,0.27859,0.28739,0.65098,0.93945,0.39453
9.296,0.28543,0.28739,0.66471,0.94531,0.38086
9.304,0.29032,0.28739,0.6902,0.93555,0.35938
9.312,0.29619,0.28739,0.68039,0.93945,0.37109
9.32,0.30108,0.28543,0.6549,0.91992,0.39062
9.328,0.30499,0.28446,0.6098,0.92969,0.42578
9.336,0.3089,0.2825,0.56471,0.91406,0.46094
9.344,0.31281,0.27957,0.51569,0.91406,0.49414
9.352,0.31574,0.27566,0.44902,0.9043,0.54492
9.36,0.31769,0.27175,0.41569,0.92969,0.57422
9.368,0.31965,0.26686,0.3902,0.91992,0.58398
9.376,0.32258,0.26197,0.38039,0.92383,0.59961
9.384,0.32356,0.25806,0.37451,0.91016,0.60547
9.392,0.32454,0.25611,0.38431,0.9043,0.60547
9.4,0.32551,0.2522,0.37451,0.91406,0.60547
9.408,0.32551,0.24927,0.37059,0.90039,0.60938
9.416,0.32551,0.24438,0.38431,0.89453,0.5957
9.424,0.32551,0.24047,0.4,0.88867,0.58398
9.432,0.32551,0.23558,0.41569,0.875,0.58984
9.44,0.32551,0.23069,0.39412,0.86914,0.58398
9.448,0.32454,0.22678,0.40392,0.85547,0.5957
9.456,0.32454,0.22287,0.42941,0.85938,0.57422
9.464,0.32454,0.21896,0.41569,0.86523,0.58398
9.472,0.32454,0.21603,0.40392,0.84375,0.58008
9.48,0.32454,0.21408,0.42549,0.84375,0.57031
9.488,0.32454,0.21408,0.42941,0.85547,0.57422
9.496,0.32551,0.21212,0.43529,0.84375,0.57422
9.504,0.32649,0.21114,0.41569,0.84375,0.58398
9.512,0.32747,0.20821,0.39412,0.84375,0.58984
9.52,0.32942,0.20626,0.38039,0.84375,0.5957
9.528,0.33138,0.20332,0.38431,0.83984,0.5957
9.536,0.33333,0.20039,0.37451,0.84375,0.5957
9.544,0.33529,0.19844,0.39412,0.85938,0.58398
9.552,0.33822,0.19648,0.4,0.88477,0.58984
9.56,0.34115,0.19844,0.39412,0.91016,0.58398
9.568,0.34409,0.20528,0.41569,0.9043,0.57031
9.576,0.348,0.21799,0.43922,0.91016,0.55469
9.584,0.35288,0.2346,0.42941,0.9043,0.56055
9.592,0.35679,0.25611,0.41961,0.875,0.56055
9.6,0.36168,0.28446,0.4098,0.83984,0.56445
9.608,0.36755,0.31965,0.41569,0.81055,0.56445
9.616,0.37243,0.35973,0.39412,0.78516,0.58008
9.624,0.37732,0.40176,0.3902,0.79492,0.58398
9.632,0.38123,0.44477,0.38431,0.82422,0.58984
9.64,0.38514,0.48485,0.36471,0.82422,0.60547
9.648,0.39003,0.52199,0.33529,0.81445,0.625
9.656,0.39296,0.55523,0.33529,0.80469,0.625
9.664,0.39687,0.5826,0.32941,0.79883,0.61914
9.672,0.3998,0.60411,0.3451,0.80469,0.61914
9.68,0.40371,0.61877,0.34902,0.79883,0.625
9.688,0.40665,0.62854,0.32353,0.80469,0.62891
9.696,0.40958,0.63441,0.32353,0.79883,0.62891
9.704,0.41153,0.63539,0.3549,0.81445,0.60938
9.712,0.41447,0.63245,0.3902,0.82422,0.58984
9.72,0.4174,0.62463,0.47451,0.75391,0.51953
9.728,0.41935,0.6129,0.62549,0.66406,0.38477
9.736,0.42229,0.59824,0.67059,0.64453,0.30469
9.744,0.42424,0.58162,0.41569,0.66992,0.42578
9.752,0.42717,0.56207,0.15882,0.63477,0.625
9.76,0.42913,0.54154,-0.037255,0.68945,0.82031
9.768,0.43109,0.51906,-0.05098,0.75977,0.88867
9.776,0.43402,0.4956,0.017647,0.68945,0.86914
9.784,0.43597,0.47507,0.13333,0.6543,0.77539
9.792,0.43793,0.45455,0.25882,0.73438,0.67969
9.8,0.43988,0.43206,0.3,0.76953,0.64453
9.808,0.44282,0.40958,0.30392,0.79492,0.64453
9.816,0.44477,0.3871,0.3098,0.79883,0.64062
9.824,0.44673,0.36559,0.31961,0.80469,0.62891
9.832,0.44868,0.34604,0.32353,0.79492,0.62891
9.84,0.45161,0.32747,0.31961,0.78906,0.64062
9.848,0.45357,0.31085,0.32353,0.7793,0.62891
9.856,0.45552,0.29717,0.31961,0.79492,0.63477
9.864,0.45748,0.28543,0.33922,0.78516,0.625
9.872,0.45943,0.27566,0.34902,0.7793,0.60938
9.88,0.46041,0.26784,0.3549,0.77539,0.60547
9.888,0.46237,0.26295,0.36471,0.77539,0.60547
9.896,0.46334,0.25806,0.37059,0.7793,0.60547
9.904,0.46432,0.25513,0.38039,0.77539,0.5957
9.912,0.4653,0.25318,0.38431,0.76562,0.5957
9.92,0.46628,0.2522,0.38431,0.75977,0.58398
9.928,0.46823,0.2522,0.39412,0.76562,0.58008
9.936,0.46921,0.25318,0.41569,0.75977,0.57031
9.944,0.47116,0.25513,0.43529,0.77539,0.55469
9.952,0.47214,0.25806,0.43922,0.75977,0.54492
9.96,0.4741,0.26002,0.4549,0.76562,0.53516
9.968,0.47605,0.26295,0.49412,0.75977,0.50586
9.976,0.47801,0.26491,0.52549,0.76562,0.48047
9.984,0.48094,0.26784,0.56078,0.75977,0.45508
9.992,0.48289,0.27077,0.5902,0.77539,0.43555
10,0.48583,0.27468,0.6098,0.76953,0.41602
10.008,0.48876,0.27761,0.62549,0.77539,0.4043
10.016,0.49071,0.28055,0.62549,0.75391,0.40039
10.024,0.49365,0.28348,0.6098,0.75391,0.41602
10.032,0.4956,0.28641,0.58039,0.75,0.43945
10.04,0.49756,0.28837,0.53529,0.74023,0.47461
10.048,0.50049,0.29032,0.48431,0.7207,0.51562
10.056,0.50244,0.29032,0.44902,0.72461,0.53906
10.064,0.5044,0.2913,0.4098,0.71484,0.57031
10.072,0.50635,0.2913,0.37451,0.7207,0.59961
10.08,0.50929,0.29228,0.3451,0.7207,0.61914
10.088,0.51124,0.29326,0.3451,0.72461,0.61914
10.096,0.5132,0.29326,0.32353,0.73047,0.62891
10.104,0.51417,0.29423,0.32941,0.72461,0.62891
10.112,0.51613,0.29326,0.32941,0.70898,0.62891
10.12,0.51711,0.29228,0.32941,0.70508,0.62891
10.128,0.51808,0.29032,0.32353,0.70508,0.63477
10.136,0.51808,0.28837,0.32941,0.69531,0.62891
10.144,0.51906,0.28543,0.33922,0.68945,0.625
10.152,0.51906,0.2825,0.32941,0.68945,0.625
10.16,0.52004,0.27957,0.35882,0.68555,0.60547
10.168,0.52004,0.27664,0.36471,0.67969,0.60938
10.176,0.52004,0.27468,0.3549,0.68555,0.61523
10.184,0.52004,0.2737,0.3549,0.68555,0.60938
10.192,0.52004,0.27175,0.35882,0.68945,0.60938
10.2,0.52004,0.27077,0.36471,0.68555,0.60547
10.208,0.52102,0.26882,0.37059,0.68945,0.60547
10.216,0.52199,0.26686,0.37059,0.68555,0.59961
10.224,0.52297,0.26491,0.36471,0.69922,0.60547
10.232,0.52395,0.26197,0.36471,0.70508,0.60547
10.24,0.5259,0.25806,0.38039,0.71484,0.59961
10.248,0.52786,0.25513,0.38431,0.74023,0.60547
10.256,0.52981,0.25318,0.38039,0.76562,0.59961
10.264,0.53177,0.25415,0.39412,0.7793,0.58984
10.272,0.53372,0.25904,0.4098,0.7793,0.57031
10.28,0.5347,0.26784,0.41961,0.77539,0.56445
10.288,0.53568,0.28055,0.41961,0.75977,0.56445
10.296,0.53666,0.3001,0.4098,0.73047,0.56445
10.304,0.53763,0.32649,0.4,0.69922,0.57422
10.312,0.53959,0.35875,0.3902,0.67578,0.58008
10.32,0.54057,0.39589,0.38431,0.66406,0.58008
10.328,0.54154,0.435,0.38039,0.68945,0.58398
10.336,0.54252,0.47507,0.37451,0.71484,0.5957
10.344,0.54252,0.51417,0.34902,0.70508,0.60938
10.352,0.5435,0.5523,0.34902,0.70508,0.61914
10.36,0.5435,0.58651,0.3451,0.70508,0.60938
10.368,0.54252,0.61681,0.34902,0.70508,0.61914
10.376,0.54154,0.64027,0.33529,0.70898,0.625
10.384,0.54154,0.65689,0.33922,0.70508,0.625
10.392,0.53959,0.67155,0.33922,0.70898,0.625
10.4,0.53861,0.68133,0.33922,0.70508,0.625
10.408,0.53666,0.68622,0.38039,0.75,0.60938
10.416,0.5347,0.68719,0.42549,0.72461,0.58008
10.424,0.53275,0.68426,0.53529,0.67578,0.48047
10.432,0.53079,0.67644,0.7,0.6543,0.33008
10.44,0.52884,0.66569,0.7098,0.67969,0.30078
10.448,0.5259,0.652,0.37059,0.5,0.46094
10.456,0.52395,0.63539,0.12353,0.38477,0.6543
10.464,0.52297,0.61681,-0.027451,0.43555,0.83008
10.472,0.52102,0.59531,0.017647,0.46484,0.85938
10.48,0.51906,0.57576,0.10392,0.45508,0.81055
10.488,0.51808,0.55718,0.26471,0.60547,0.68945
10.496,0.51711,0.5347,0.32353,0.66992,0.64453
10.504,0.51515,0.51124,0.34902,0.70898,0.62891
10.512,0.51417,0.48778,0.35882,0.72461,0.625
10.52,0.51417,0.46432,0.38039,0.73047,0.60938
10.528,0.5132,0.44282,0.37451,0.73047,0.61523
10.536,0.5132,0.42229,0.37059,0.74023,0.61523
10.544,0.51417,0.40274,0.37451,0.74414,0.60938
10.552,0.51417,0.38416,0.37059,0.73438,0.61914
10.56,0.51515,0.36755,0.35882,0.74023,0.62891
10.568,0.51515,0.35288,0.37451,0.75,0.60938
10.576,0.51613,0.34213,0.38431,0.75,0.60547
10.584,0.51711,0.33529,0.38039,0.75391,0.60938
10.592,0.51906,0.32845,0.4098,0.75391,0.58984
10.6,0.52004,0.32258,0.40392,0.75977,0.5957
10.608,0.52102,0.31867,0.41961,0.77539,0.58398
10.616,0.52199,0.31476,0.42549,0.76562,0.57422
10.624,0.52395,0.31183,0.43529,0.76562,0.57031
10.632,0.52493,0.31085,0.42941,0.77539,0.57422
10.64,0.52688,0.3089,0.4549,0.79492,0.55469
10.648,0.52786,0.30792,0.46471,0.79492,0.54492
10.656,0.52981,0.30694,0.48431,0.80469,0.53516
10.664,0.53177,0.30596,0.5098,0.81445,0.51562
10.672,0.53275,0.30499,0.5549,0.82422,0.48438
10.68,0.53372,0.30401,0.59608,0.83398,0.45508
10.688,0.53568,0.30401,0.62549,0.84375,0.42969
10.696,0.53568,0.30303,0.65098,0.84375,0.41016
10.704,0.53666,0.30205,0.66471,0.83984,0.40039
10.712,0.53666,0.3001,0.66471,0.82031,0.40039
10.72,0.53666,0.29912,0.67647,0.81055,0.39062
10.728,0.53568,0.29717,0.62941,0.78906,0.41992
10.736,0.5347,0.29619,0.58039,0.75391,0.44922
10.744,0.53372,0.29521,0.51961,0.74023,0.49414
10.752,0.53372,0.29423,0.47451,0.73047,0.52539
10.76,0.53275,0.29423,0.42941,0.70898,0.55469
10.768,0.53177,0.29423,0.4,0.70508,0.58008
10.776,0.52884,0.29423,0.36471,0.69922,0.60547
10.784,0.52688,0.29423,0.35882,0.68945,0.61523
10.792,0.52297,0.30596,0.36471,0.70508,0.60938
10.8,0.52004,0.32356,0.35882,0.69531,0.61523
10.808,0.51613,0.33236,0.36471,0.70508,0.61523
10.816,0.51222,0.33627,0.34902,0.69922,0.625
10.824,0.50929,0.33822,0.36471,0.70508,0.60547
10.832,0.50538,0.33822,0.37059,0.69922,0.60938
10.84,0.50147,0.33822,0.37059,0.69531,0.60547
10.848,0.49658,0.33724,0.37059,0.68945,0.60547
10.856,0.49169,0.33627,0.38039,0.69531,0.59961
10.864,0.48583,0.33431,0.38039,0.67969,0.5957
10.872,0.48094,0.33236,0.38431,0.68945,0.5957
10.88,0.47605,0.33138,0.37059,0.67969,0.59961
10.888,0.47019,0.3304,0.38039,0.69531,0.60547
10.896,0.4653,0.32942,0.38039,0.68555,0.58984
10.904,0.46139,0.32747,0.39412,0.67969,0.58398
10.912,0.45748,0.32454,0.3902,0.69531,0.5957
10.92,0.45357,0.32063,0.38431,0.67969,0.59961
10.928,0.45064,0.31672,0.39412,0.66992,0.58984
10.936,0.44673,0.31183,0.38431,0.67969,0.59961
10.944,0.44282,0.30792,0.4,0.70898,0.58398
10.952,0.43891,0.30596,0.4098,0.73047,0.58008
10.96,0.435,0.30694,0.41961,0.74414,0.57031
10.968,0.43109,0.31281,0.43922,0.73438,0.55469
10.976,0.42717,0.32258,0.46471,0.74023,0.53516
10.984,0.42326,0.33724,0.44902,0.70898,0.54492
10.992,0.42033,0.35973,0.46471,0.67578,0.5293
11,0.41642,0.39003,0.41961,0.64453,0.56445
11.008,0.41349,0.42717,0.43529,0.62891,0.55469
11.016,0.40958,0.46823,0.42941,0.61523,0.56055
11.024,0.40665,0.51222,0.43922,0.65039,0.56055
11.032,0.40274,0.55523,0.40392,0.66406,0.58398
11.04,0.3998,0.59726,0.38431,0.66406,0.58008
11.048,0.39589,0.63539,0.37059,0.65039,0.60938
11.056,0.39198,0.6696,0.38431,0.65039,0.5957
11.064,0.38807,0.6999,0.37451,0.64062,0.60547
11.072,0.38416,0.72434,0.38431,0.64062,0.5957
11.08,0.38025,0.74096,0.37059,0.62891,0.60547
11.088,0.37732,0.75269,0.38039,0.63477,0.5957
11.096,0.37243,0.76149,0.38039,0.64453,0.59961
11.104,0.36852,0.76735,0.42549,0.67969,0.58008
11.112,0.36266,0.76931,0.47059,0.66406,0.55469
11.12,0.35777,0.76833,0.6,0.61523,0.43945
11.128,0.35288,0.7654,0.7549,0.60938,0.29102
11.136,0.348,0.75953,0.67059,0.62891,0.26953
11.144,0.34213,0.75073,0.41569,0.375,0.41602
11.152,0.33724,0.73998,0.12353,0.25586,0.63477
11.16,0.33138,0.72727,-0.0058823,0.32422,0.80469
11.168,0.32551,0.71163,0.052941,0.34961,0.83008
11.176,0.31965,0.69697,0.17843,0.43555,0.75391
11.184,0.31378,0.68133,0.3098,0.56445,0.66016
11.192,0.30792,0.66276,0.38039,0.62891,0.60938
11.2,0.30205,0.64223,0.39412,0.66016,0.5957
11.208,0.29619,0.62072,0.39412,0.66992,0.59961
11.216,0.29032,0.59726,0.4,0.67969,0.5957
11.224,0.28543,0.5738,0.3902,0.68555,0.60938
11.232,0.28055,0.55034,0.40392,0.68945,0.60547
11.24,0.27664,0.52688,0.41569,0.69531,0.58398
11.248,0.27175,0.50538,0.4098,0.69922,0.58984
11.256,0.26784,0.48485,0.41961,0.70508,0.58984
11.264,0.26295,0.46628,0.41961,0.69531,0.58398
11.272,0.25904,0.44966,0.42549,0.69531,0.58008
11.28,0.25513,0.43695,0.41961,0.69531,0.58008
11.288,0.25122,0.4262,0.42941,0.70508,0.58398
11.296,0.24731,0.4174,0.43922,0.69922,0.56055
11.304,0.2434,0.40958,0.41961,0.70898,0.58398
11.312,0.24047,0.40274,0.43922,0.70508,0.57031
11.32,0.23851,0.39687,0.4549,0.70508,0.56055
11.328,0.23558,0.39198,0.4549,0.70508,0.56055
11.336,0.23363,0.38905,0.48039,0.70898,0.53906
11.344,0.23167,0.38612,0.4902,0.71484,0.53516
11.352,0.23069,0.38416,0.51961,0.72461,0.51562
11.36,0.22972,0.38319,0.56471,0.73047,0.4707
11.368,0.22874,0.38319,0.57451,0.74023,0.4707
11.376,0.22776,0.38319,0.60588,0.75,0.44531
11.384,0.22678,0.38319,0.64118,0.75391,0.41992
11.392,0.22678,0.38319,0.6549,0.75391,0.41016
11.4,0.22581,0.38221,0.67647,0.74414,0.39062
11.408,0.22581,0.38123,0.6902,0.75,0.38086
11.416,0.22483,0.37928,0.66078,0.70508,0.39453
11.424,0.22483,0.37634,0.65098,0.68945,0.40039
11.432,0.22385,0.37146,0.5902,0.66406,0.43945
11.44,0.22287,0.36657,0.53922,0.6543,0.48047
11.448,0.22092,0.3607,0.48431,0.63477,0.51562
11.456,0.21994,0.35484,0.4451,0.63477,0.54492
11.464,0.21896,0.34897,0.41961,0.60938,0.56055
11.472,0.21799,0.34409,0.3902,0.60938,0.58398
11.48,0.21603,0.3392,0.3902,0.60938,0.58398
11.488,0.21408,0.33627,0.38431,0.60547,0.58984
11.496,0.21114,0.33138,0.38431,0.61523,0.60547
11.504,0.20919,0.32747,0.38039,0.61523,0.60547
11.512,0.20528,0.32258,0.37451,0.61523,0.60547
11.52,0.20235,0.31769,0.39412,0.61914,0.58398
11.528,0.19844,0.31378,0.39412,0.63477,0.58398
11.536,0.19453,0.30987,0.4,0.63477,0.58398
11.544,0.19159,0.30792,0.41569,0.62891,0.57031
11.552,0.18866,0.30596,0.39412,0.62891,0.58984
11.56,0.18573,0.30401,0.4,0.62891,0.58398
11.568,0.1828,0.30205,0.39412,0.61914,0.59961
11.576,0.17986,0.3001,0.39412,0.61523,0.5957
11.584,0.17693,0.29912,0.39412,0.60938,0.58984
11.592,0.174,0.29717,0.3902,0.62891,0.58984
11.6,0.17107,0.29326,0.38431,0.625,0.5957
11.608,0.16911,0.28935,0.4,0.63477,0.58398
11.616,0.16716,0.28348,0.39412,0.62891,0.58984
11.624,0.16618,0.27566,0.40392,0.63477,0.58008
11.632,0.1652,0.26784,0.41569,0.64453,0.57422
11.64,0.16422,0.26002,0.39412,0.66406,0.5957
11.648,0.16325,0.25415,0.4,0.67969,0.58398
11.656,0.16227,0.2522,0.4098,0.69922,0.58008
11.664,0.16129,0.25611,0.4451,0.70508,0.55469
11.672,0.16031,0.26686,0.46471,0.70508,0.53906
11.68,0.15934,0.2825,0.46078,0.69922,0.55078
11.688,0.15836,0.30401,0.46078,0.66992,0.54492
11.696,0.15738,0.33431,0.4451,0.62891,0.53906
11.704,0.1564,0.37341,0.42941,0.59961,0.56055
11.712,0.15543,0.4174,0.42549,0.58008,0.55469
11.72,0.15445,0.46334,0.43922,0.5957,0.55078
11.728,0.15347,0.51026,0.41961,0.61914,0.57031
11.736,0.15347,0.55523,0.4098,0.62891,0.58008
11.744,0.15249,0.59629,0.3902,0.61914,0.5957
11.752,0.15152,0.63245,0.38431,0.625,0.60547
11.76,0.15054,0.66471,0.38431,0.62891,0.60547
11.768,0.14956,0.6911,0.38431,0.63477,0.59961
11.776,0.14761,0.70968,0.38431,0.63477,0.58984
11.784,0.14663,0.72336,0.38039,0.64062,0.59961
11.792,0.14467,0.73509,0.39412,0.6543,0.59961
11.8,0.14272,0.74487,0.3902,0.68555,0.60547
11.808,0.14076,0.75171,0.42941,0.70508,0.58984
11.816,0.13881,0.75562,0.5,0.66406,0.5293
11.824,0.13587,0.75562,0.64118,0.625,0.40039
11.832,0.13392,0.75269,0.73529,0.62891,0.29102
11.84,0.13196,0.74682,0.56078,0.52539,0.33984
11.848,0.12903,0.739,0.29412,0.32031,0.5
11.856,0.12708,0.72727,0.017647,0.28516,0.75
11.864,0.12512,0.71261,-0.027451,0.38477,0.85547
11.872,0.12317,0.69599,0.078431,0.41016,0.82031
11.88,0.12219,0.6784,0.2451,0.53516,0.70898
11.888,0.12121,0.66178,0.34902,0.63477,0.63477
11.896,0.12023,0.64125,0.3902,0.67578,0.60547
11.904,0.11926,0.61975,0.4098,0.70508,0.5957
11.912,0.11926,0.59824,0.4098,0.71484,0.5957
11.92,0.11926,0.57576,0.41961,0.73047,0.58398
11.928,0.11926,0.55425,0.42549,0.74023,0.58398
11.936,0.11926,0.53275,0.41961,0.75391,0.58008
11.944,0.11926,0.5132,0.4098,0.76562,0.59961
11.952,0.11926,0.49462,0.41569,0.76562,0.58984
11.96,0.12023,0.47801,0.42549,0.76953,0.58398
11.968,0.12023,0.46334,0.42549,0.76953,0.58398
11.976,0.12121,0.45259,0.41961,0.77539,0.58398
11.984,0.12219,0.44477,0.41961,0.76562,0.58398
11.992,0.12317,0.43695,0.42549,0.78516,0.58398
12,0.12414,0.43109,0.41961,0.78906,0.58398
12.008,0.12512,0.4262,0.42549,0.79492,0.58398
12.016,0.12708,0.42326,0.4451,0.79492,0.56055
12.024,0.12903,0.42131,0.44902,0.79883,0.56055
12.032,0.13099,0.42131,0.46078,0.79883,0.55469
12.04,0.13294,0.42229,0.47059,0.80469,0.53906
12.048,0.13587,0.42424,0.50588,0.81055,0.51953
12.056,0.13783,0.42815,0.53529,0.82031,0.49414
12.064,0.14076,0.43206,0.56471,0.82422,0.4707
12.072,0.1437,0.435,0.59608,0.83008,0.44922
12.08,0.14663,0.43891,0.62549,0.83398,0.43555
12.088,0.14956,0.44282,0.6451,0.83008,0.41016
12.096,0.15249,0.44673,0.6549,0.82031,0.39453
12.104,0.15445,0.44966,0.67059,0.81055,0.38477
12.112,0.1564,0.45357,0.68627,0.78906,0.36523
12.12,0.15836,0.45552,0.6451,0.76562,0.40039
12.128,0.16129,0.4565,0.60588,0.74023,0.41992
12.136,0.16227,0.45748,0.56471,0.70898,0.45508
12.144,0.16422,0.45748,0.5098,0.68945,0.5
12.152,0.1652,0.4565,0.47451,0.67969,0.52539
12.16,0.1652,0.45552,0.43922,0.66016,0.54492
12.168,0.1652,0.45357,0.4098,0.65039,0.57422
12.176,0.1652,0.45161,0.39412,0.63477,0.58398
12.184,0.1652,0.44868,0.4,0.61914,0.58398
12.192,0.1652,0.44575,0.39412,0.61914,0.58398
12.2,0.1652,0.44282,0.4098,0.61523,0.58398
12.208,0.16618,0.43891,0.4098,0.61914,0.58398
12.216,0.1652,0.435,0.40392,0.60938,0.58398
12.224,0.1652,0.43109,0.41569,0.60938,0.58008
12.232,0.16325,0.42717,0.41961,0.60547,0.58008
12.24,0.16227,0.42229,0.41569,0.60938,0.57422
12.248,0.16129,0.4174,0.41961,0.60547,0.57031
12.256,0.16031,0.41251,0.42549,0.61914,0.56445
12.264,0.15934,0.4086,0.43922,0.61523,0.56055
12.272,0.15836,0.40469,0.4451,0.62891,0.55078
12.28,0.15738,0.40176,0.41961,0.625,0.57031
12.288,0.1564,0.3998,0.42941,0.63477,0.56445
12.296,0.15543,0.39687,0.42549,0.64453,0.57031
12.304,0.15445,0.39296,0.43922,0.6543,0.56055
12.312,0.15347,0.38807,0.4451,0.66406,0.55469
12.32,0.15347,0.38416,0.43529,0.66016,0.56055
12.328,0.15249,0.38025,0.42941,0.66992,0.56055
12.336,0.15152,0.37537,0.42941,0.68945,0.56055
12.344,0.15152,0.37146,0.43529,0.70508,0.56055
12.352,0.15054,0.37048,0.48431,0.73047,0.51953
12.36,0.15054,0.37341,0.46471,0.75391,0.54492
12.368,0.15152,0.38319,0.48431,0.79492,0.53516
12.376,0.15054,0.39589,0.50588,0.79883,0.50977
12.384,0.15054,0.41349,0.5098,0.80469,0.50977
12.392,0.14858,0.43891,0.51569,0.81445,0.50977
12.4,0.14761,0.47312,0.50588,0.77539,0.50977
12.408,0.14663,0.5132,0.49412,0.75,0.51562
12.416,0.14467,0.55621,0.4902,0.73047,0.51953
12.424,0.14272,0.6002,0.47059,0.73047,0.52539
12.432,0.14076,0.64418,0.46471,0.73438,0.5293
12.44,0.13881,0.68622,0.46471,0.76953,0.54492
12.448,0.13685,0.72434,0.4451,0.75977,0.56055
12.456,0.13392,0.7566,0.42549,0.77539,0.57031
12.464,0.13196,0.78397,0.41961,0.76953,0.58008
12.472,0.12903,0.80254,0.41569,0.77539,0.57031
12.48,0.1261,0.81623,0.41961,0.77539,0.57422
12.488,0.12317,0.82698,0.42549,0.78516,0.57031
12.496,0.12023,0.8348,0.41961,0.78906,0.57422
12.504,0.11632,0.83773,0.42549,0.79883,0.58008
12.512,0.11339,0.83675,0.44902,0.82422,0.56055
12.52,0.11046,0.83382,0.48431,0.83398,0.53906
12.528,0.1085,0.82796,0.55098,0.75977,0.46484
12.536,0.10557,0.81916,0.69608,0.6543,0.31055
12.544,0.10362,0.80841,0.73137,0.66016,0.25586
12.552,0.10166,0.7957,0.44902,0.625,0.38086
12.56,0.10068,0.78201,0.20392,0.58398,0.58008
12.568,0.099707,0.7654,0.033333,0.68945,0.78906
12.576,0.097752,0.7478,0.023529,0.79883,0.84961
12.584,0.097752,0.73021,0.12353,0.75,0.81055
12.592,0.096774,0.7087,0.26863,0.76953,0.69922
12.6,0.096774,0.68719,0.37451,0.83398,0.60938
12.608,0.097752,0.66373,0.40392,0.88477,0.58398
12.616,0.098729,0.64027,0.41961,0.91016,0.58398
12.624,0.10068,0.61681,0.41961,0.92383,0.58984
12.632,0.10264,0.59433,0.43529,0.93945,0.57422
12.64,0.10459,0.57185,0.43529,0.94531,0.57031
12.648,0.10753,0.55034,0.43922,0.93945,0.57031
12.656,0.11046,0.53079,0.42941,0.94922,0.57031
12.664,0.11339,0.51222,0.41961,0.93945,0.57422
12.672,0.11632,0.49658,0.42549,0.94531,0.56445
12.68,0.11926,0.48289,0.44902,0.93945,0.55469
12.688,0.12317,0.47019,0.46471,0.96484,0.54492
12.696,0.12708,0.45846,0.46078,0.96484,0.55078
12.704,0.13099,0.44868,0.46471,0.96484,0.53906
12.712,0.1349,0.43988,0.4549,0.96484,0.53516
12.72,0.13978,0.43206,0.44902,0.95898,0.55469
12.728,0.14467,0.42717,0.46078,0.97461,0.54492
12.736,0.14858,0.42326,0.4902,0.96484,0.5293
12.744,0.15249,0.42033,0.5,0.98047,0.52539
12.752,0.15738,0.41935,0.50588,0.97461,0.50977
12.76,0.16227,0.41838,0.51961,0.96484,0.49414
12.768,0.16716,0.41838,0.53529,0.95898,0.48438
12.776,0.17302,0.41838,0.5549,0.98047,0.46484
12.784,0.17889,0.41838,0.58431,0.98047,0.43945
12.792,0.18377,0.41935,0.62549,0.98047,0.41016
12.8,0.18964,0.41935,0.66471,0.98438,0.375
12.808,0.1955,0.41838,0.6902,0.98047,0.35547
12.816,0.20039,0.4174,0.6902,0.96875,0.35547
12.824,0.20528,0.41642,0.6902,0.96484,0.34961
12.832,0.21017,0.41447,0.67059,0.95508,0.36523
12.84,0.21408,0.40665,0.61961,0.95898,0.41602
12.848,0.21896,0.39492,0.57059,0.94531,0.44531
12.856,0.22287,0.38612,0.51569,0.93945,0.49023
12.864,0.22678,0.38025,0.48431,0.91406,0.51562
12.872,0.22972,0.37439,0.4451,0.91406,0.54492
12.88,0.23363,0.37048,0.40392,0.91992,0.58008
12.888,0.23558,0.36559,0.3902,0.91406,0.58984
12.896,0.23851,0.3607,0.37059,0.91992,0.60547
12.904,0.24047,0.35582,0.3902,0.91406,0.60938
12.912,0.24242,0.34995,0.39412,0.91406,0.59961
12.92,0.24438,0.34506,0.38039,0.91406,0.58984
12.928,0.24633,0.34018,0.37059,0.91406,0.60547
12.936,0.24731,0.33529,0.37451,0.91016,0.5957
12.944,0.24829,0.3304,0.38431,0.91406,0.5957
12.952,0.24927,0.32551,0.39412,0.88867,0.58984
12.96,0.25024,0.31965,0.39412,0.89453,0.58398
12.968,0.25024,0.31476,0.39412,0.875,0.58008
12.976,0.25122,0.30987,0.4,0.89453,0.58398
12.984,0.2522,0.30596,0.39412,0.88477,0.58398
12.992,0.25318,0.30205,0.41569,0.86914,0.57422
13,0.25513,0.29717,0.40392,0.875,0.57422
13.008,0.25611,0.29228,0.38431,0.86914,0.58398
13.016,0.25806,0.28641,0.40392,0.85938,0.58398
13.024,0.261,0.28152,0.41569,0.88477,0.58008
13.032,0.26295,0.27468,0.39412,0.86914,0.58398
13.04,0.26588,0.26882,0.39412,0.86914,0.58398
13.048,0.26979,0.26393,0.41569,0.85938,0.57031
13.056,0.27273,0.26002,0.42941,0.88477,0.56445
13.064,0.27664,0.25806,0.43529,0.88867,0.56445
13.072,0.28055,0.25806,0.42549,0.91992,0.57031
13.08,0.28446,0.26197,0.43529,0.93555,0.56445
13.088,0.28935,0.26979,0.4549,0.93945,0.55078
13.096,0.29423,0.28348,0.46471,0.92383,0.53906
13.104,0.29912,0.30205,0.4902,0.91406,0.50977
13.112,0.30499,0.32649,0.46078,0.88477,0.53516
13.12,0.30987,0.35484,0.43922,0.85547,0.55469
13.128,0.31574,0.3871,0.43529,0.81445,0.55078
13.136,0.3216,0.42229,0.4451,0.82031,0.54492
13.144,0.32747,0.45846,0.4451,0.83984,0.55469
13.152,0.33333,0.49462,0.42549,0.84961,0.57031
13.16,0.3392,0.52786,0.38431,0.82422,0.58984
13.168,0.34409,0.55914,0.37451,0.83008,0.59961
13.176,0.34995,0.5826,0.37451,0.82422,0.60547
13.184,0.35484,0.60117,0.38039,0.83008,0.59961
13.192,0.35973,0.61779,0.38431,0.82422,0.5957
13.2,0.36461,0.63148,0.37451,0.81445,0.59961
13.208,0.3695,0.64125,0.37059,0.83008,0.60547
13.216,0.37341,0.64809,0.37059,0.82031,0.59961
13.224,0.37732,0.65005,0.4,0.85547,0.58984
13.232,0.38123,0.64712,0.4451,0.82422,0.55469
13.24,0.38514,0.64125,0.57059,0.73047,0.44531
13.248,0.39003,0.63245,0.73137,0.64453,0.29492
13.256,0.39394,0.61975,0.62549,0.67578,0.26953
13.264,0.39785,0.60411,0.35882,0.64062,0.46484
13.272,0.40176,0.58847,0.11961,0.62891,0.67578
13.28,0.40665,0.57185,0.0078431,0.75391,0.83398
13.288,0.41056,0.55327,0.033333,0.78516,0.86523
13.296,0.41544,0.53177,0.094118,0.68945,0.82422
13.304,0.41838,0.51026,0.23922,0.67969,0.70508
13.312,0.42229,0.4868,0.32941,0.75391,0.63477
13.32,0.4262,0.46432,0.37059,0.7793,0.60938
13.328,0.43011,0.44184,0.36471,0.78906,0.60938
13.336,0.43402,0.42131,0.37059,0.79883,0.60938
13.344,0.43793,0.40078,0.37451,0.79492,0.60547
13.352,0.44282,0.38319,0.37451,0.79492,0.60547
13.36,0.4477,0.36852,0.38039,0.78516,0.59961
13.368,0.45161,0.35582,0.39412,0.79492,0.5957
13.376,0.45552,0.34702,0.4,0.78516,0.58984
13.384,0.45943,0.34018,0.4,0.7793,0.58984
13.392,0.46334,0.33431,0.40392,0.78516,0.58984
13.4,0.46823,0.32845,0.4,0.7793,0.58398
13.408,0.47214,0.32356,0.41569,0.77539,0.58398
13.416,0.47703,0.31965,0.41961,0.77539,0.57422
13.424,0.48192,0.31672,0.42549,0.7793,0.57031
13.432,0.48778,0.31476,0.41961,0.78516,0.58008
13.44,0.49365,0.31476,0.42941,0.77539,0.56445
13.448,0.49853,0.31476,0.44902,0.76562,0.54492
13.456,0.5044,0.31574,0.4549,0.76953,0.53906
13.464,0.50929,0.31769,0.46078,0.75977,0.54492
13.472,0.51417,0.32063,0.47451,0.76562,0.51953
13.48,0.51808,0.32454,0.5,0.75391,0.50586
13.488,0.52297,0.32747,0.53529,0.76562,0.47461
13.496,0.52688,0.3304,0.56471,0.75977,0.45508
13.504,0.53177,0.33431,0.59608,0.76562,0.42969
13.512,0.53666,0.33724,0.6098,0.75391,0.41602
13.52,0.54252,0.34018,0.62941,0.75391,0.39453
13.528,0.54643,0.34213,0.62941,0.74414,0.39453
13.536,0.55132,0.34409,0.64118,0.74023,0.39453
13.544,0.55425,0.34506,0.6,0.73438,0.41602
13.552,0.55816,0.34604,0.56471,0.73438,0.44531
13.56,0.56207,0.34604,0.5098,0.72461,0.49023
13.568,0.565,0.34506,0.46471,0.7207,0.51953
13.576,0.56794,0.34506,0.42549,0.71484,0.55469
13.584,0.57087,0.34409,0.3902,0.7207,0.58008
13.592,0.57283,0.34311,0.3549,0.72461,0.60547
13.6,0.57478,0.34115,0.34902,0.7207,0.61523
13.608,0.57674,0.3392,0.34902,0.71484,0.61523
13.616,0.57771,0.33822,0.34902,0.71484,0.61914
13.624,0.57869,0.33627,0.3451,0.70898,0.625
13.632,0.57967,0.33431,0.33922,0.70508,0.62891
13.64,0.58065,0.33236,0.3451,0.69531,0.61914
13.648,0.58162,0.3304,0.33922,0.68555,0.61914
13.656,0.58162,0.32747,0.34902,0.68945,0.61914
13.664,0.58162,0.32356,0.3451,0.68555,0.61914
13.672,0.58162,0.3216,0.34902,0.69922,0.61523
13.68,0.5826,0.31867,0.34902,0.68945,0.60938
13.688,0.5826,0.31574,0.35882,0.67969,0.60938
13.696,0.5826,0.31378,0.35882,0.67969,0.60938
13.704,0.58358,0.31085,0.3549,0.68555,0.61523
13.712,0.58456,0.3089,0.35882,0.67969,0.60938
13.72,0.58553,0.30694,0.36471,0.68555,0.60938
13.728,0.58651,0.30499,0.37059,0.67969,0.60938
13.736,0.58749,0.30303,0.37059,0.68945,0.60547
13.744,0.58944,0.30108,0.36471,0.69531,0.60547
13.752,0.5914,0.29814,0.35882,0.68945,0.60938
13.76,0.59433,0.29717,0.37059,0.70508,0.60547
13.768,0.59726,0.29619,0.3902,0.74023,0.5957
13.776,0.6002,0.29717,0.39412,0.75391,0.58398
13.784,0.60313,0.29912,0.40392,0.76953,0.58008
13.792,0.60704,0.30499,0.43529,0.76562,0.56055
13.8,0.60899,0.31378,0.4451,0.75977,0.56055
13.808,0.61193,0.32845,0.4549,0.74023,0.53906
13.816,0.61486,0.348,0.43922,0.70508,0.56055
13.824,0.61779,0.37243,0.41961,0.67969,0.57031
13.832,0.6217,0.40176,0.4098,0.66406,0.57031
13.84,0.62463,0.435,0.41961,0.66016,0.56445
13.848,0.62757,0.47116,0.4098,0.69922,0.57422
13.856,0.6305,0.50733,0.4,0.70898,0.58008
13.864,0.63245,0.5435,0.37059,0.69922,0.60547
13.872,0.63539,0.5738,0.37059,0.69531,0.60547
13.88,0.63734,0.59824,0.37059,0.68555,0.60547
13.888,0.6393,0.62366,0.36471,0.69531,0.60547
13.896,0.64027,0.64614,0.3549,0.68945,0.60938
13.904,0.64125,0.66471,0.36471,0.70508,0.60938
13.912,0.64223,0.67937,0.34902,0.70508,0.61914
13.92,0.64321,0.68817,0.37059,0.72461,0.625
13.928,0.64321,0.69208,0.41569,0.73047,0.58398
13.936,0.64321,0.69013,0.4549,0.69531,0.55078
13.944,0.64321,0.68426,0.58431,0.63477,0.43555
13.952,0.64418,0.67449,0.71569,0.625,0.30078
13.96,0.64321,0.66178,0.56471,0.66406,0.3457
13.968,0.64321,0.64809,0.3098,0.45508,0.5
13.976,0.64321,0.63245,0.039216,0.40039,0.72461
13.984,0.64321,0.61486,-0.011765,0.46484,0.83984
13.992,0.64223,0.59531,0.052941,0.49023,0.84961
14,0.64223,0.5738,0.17843,0.48438,0.75977
14.008,0.64223,0.55327,0.3,0.61914,0.66016
14.016,0.64223,0.53177,0.3549,0.67969,0.625
14.024,0.64321,0.51026,0.37451,0.70508,0.60547
14.032,0.64321,0.48876,0.38039,0.7207,0.60547
14.04,0.64418,0.46921,0.38039,0.73047,0.60547
14.048,0.64516,0.45064,0.39412,0.73047,0.5957
14.056,0.64614,0.43304,0.38039,0.74023,0.60547
14.064,0.64712,0.41642,0.3902,0.74414,0.59961
14.072,0.64809,0.40371,0.39412,0.75391,0.59961
14.08,0.65005,0.39394,0.40392,0.75,0.58398
14.088,0.652,0.38416,0.4098,0.75391,0.58398
14.096,0.65396,0.37537,0.4098,0.74414,0.58398
14.104,0.65591,0.36852,0.39412,0.74023,0.58984
14.112,0.65787,0.36266,0.39412,0.74414,0.59961
14.12,0.65885,0.35777,0.4098,0.75,0.58398
14.128,0.65982,0.35484,0.41961,0.74414,0.57422
14.136,0.6608,0.35191,0.43529,0.74414,0.57031
14.144,0.66276,0.35093,0.4451,0.75391,0.56055
14.152,0.66471,0.34995,0.4549,0.75977,0.56055
14.16,0.66667,0.34995,0.47451,0.76562,0.53906
14.168,0.66862,0.35093,0.5,0.75391,0.51953
14.176,0.67058,0.35288,0.52941,0.77539,0.49414
14.184,0.67155,0.35582,0.5451,0.77539,0.49023
14.192,0.67253,0.35777,0.57451,0.78906,0.46484
14.2,0.67449,0.35973,0.60588,0.79883,0.43945
14.208,0.67546,0.36168,0.64118,0.79883,0.41602
14.216,0.67742,0.36266,0.6549,0.79883,0.39453
14.224,0.68035,0.36266,0.67059,0.79492,0.38477
14.232,0.68133,0.36364,0.67647,0.79492,0.38086
14.24,0.68328,0.36364,0.66078,0.7793,0.39062
14.248,0.68426,0.36266,0.61961,0.75977,0.41992
14.256,0.68524,0.36266,0.57451,0.74414,0.44922
14.264,0.68524,0.36266,0.53529,0.7207,0.48438
14.272,0.68622,0.36266,0.48039,0.70898,0.52539
14.28,0.68622,0.36266,0.43922,0.68945,0.55469
14.288,0.68622,0.36266,0.41569,0.68555,0.56445
14.296,0.68524,0.36168,0.3902,0.67969,0.58984
14.304,0.68328,0.35973,0.38431,0.67969,0.58398
14.312,0.68133,0.35679,0.37059,0.67969,0.59961
14.32,0.67937,0.35386,0.37059,0.67969,0.60547
14.328,0.67644,0.35093,0.37059,0.67969,0.60547
14.336,0.67449,0.348,0.37451,0.67578,0.59961
14.344,0.67155,0.34604,0.37059,0.66992,0.60547
14.352,0.66862,0.34311,0.37059,0.67578,0.5957
14.36,0.66471,0.34018,0.37451,0.66016,0.59961
14.368,0.66178,0.33822,0.3902,0.66992,0.58984
14.376,0.65787,0.33627,0.39412,0.66406,0.58398
14.384,0.65396,0.33333,0.3902,0.66016,0.5957
14.392,0.65005,0.32942,0.39412,0.6543,0.58398
14.4,0.64614,0.32649,0.4,0.6543,0.58398
14.408,0.64223,0.32258,0.40392,0.65039,0.58398
14.416,0.6393,0.31769,0.4,0.6543,0.58398
14.424,0.63636,0.31378,0.3902,0.6543,0.58984
14.432,0.63343,0.30987,0.39412,0.65039,0.58398
14.44,0.6305,0.30596,0.4,0.66016,0.58398
14.448,0.62854,0.30108,0.38431,0.6543,0.58398
14.456,0.62659,0.29717,0.4,0.67578,0.57422
14.464,0.62463,0.29423,0.42549,0.69531,0.56055
14.472,0.62268,0.29228,0.42941,0.71484,0.55469
14.48,0.62072,0.29228,0.4549,0.7207,0.53906
14.488,0.61975,0.29619,0.46471,0.7207,0.53516
14.496,0.61779,0.30303,0.47451,0.70508,0.53516
14.504,0.61681,0.31769,0.48039,0.67578,0.5293
14.512,0.61486,0.33724,0.4549,0.62891,0.53906
14.52,0.61388,0.36266,0.44902,0.61914,0.53516
14.528,0.6129,0.39394,0.42941,0.61523,0.55078
14.536,0.61193,0.43011,0.42941,0.63477,0.55469
14.544,0.60997,0.46725,0.42549,0.66016,0.56445
14.552,0.60802,0.50538,0.40392,0.67578,0.58008
14.56,0.60606,0.54154,0.3902,0.66016,0.58984
14.568,0.60313,0.57087,0.38431,0.66016,0.5957
14.576,0.6002,0.59531,0.37451,0.6543,0.5957
14.584,0.59629,0.61779,0.38431,0.66016,0.59961
14.592,0.59335,0.63734,0.39412,0.66406,0.58984
14.6,0.58847,0.65298,0.38039,0.66016,0.5957
14.608,0.58456,0.66569,0.37059,0.66406,0.60547
14.616,0.57967,0.67449,0.4098,0.68945,0.58398
14.624,0.57478,0.67937,0.44902,0.70508,0.56445
14.632,0.56989,0.68035,0.51961,0.66406,0.5
14.64,0.56403,0.6784,0.6902,0.64062,0.35547
14.648,0.55816,0.67449,0.7549,0.6543,0.25977
14.656,0.5523,0.66764,0.5451,0.51562,0.33984
14.664,0.54741,0.65787,0.2549,0.31055,0.5293
14.672,0.54154,0.64809,0.017647,0.29492,0.75391
14.68,0.53568,0.63636,-0.0019608,0.37109,0.81445
14.688,0.52981,0.62268,0.12941,0.41016,0.78516
14.696,0.52493,0.60802,0.27451,0.53516,0.67969
14.704,0.51906,0.59238,0.36471,0.64062,0.61914
14.712,0.51417,0.57674,0.4,0.67578,0.59961
14.72,0.50929,0.55914,0.41569,0.69922,0.5957
14.728,0.50538,0.54057,0.4,0.71484,0.60547
14.736,0.50049,0.52102,0.39412,0.72461,0.5957
14.744,0.49658,0.49951,0.41961,0.7207,0.58984
14.752,0.49365,0.47898,0.41961,0.73047,0.58398
14.76,0.49071,0.45846,0.41961,0.73438,0.58398
14.768,0.48778,0.44184,0.41961,0.74023,0.58398
14.776,0.48583,0.42717,0.41569,0.73438,0.5957
14.784,0.48289,0.41251,0.42941,0.73047,0.58008
14.792,0.48094,0.39883,0.42549,0.74414,0.58398
14.8,0.47996,0.3871,0.4451,0.74023,0.57422
14.808,0.47801,0.37732,0.4451,0.75,0.57422
14.816,0.47703,0.36852,0.4451,0.75391,0.56445
14.824,0.47507,0.36266,0.4549,0.75977,0.56055
14.832,0.4741,0.35777,0.46471,0.75391,0.55469
14.84,0.4741,0.35484,0.46471,0.76562,0.56055
14.848,0.47312,0.35191,0.48039,0.75391,0.54492
14.856,0.47312,0.34995,0.50588,0.75,0.51953
14.864,0.4741,0.34897,0.51569,0.75,0.50977
14.872,0.4741,0.348,0.53922,0.75977,0.49414
14.88,0.47507,0.34897,0.57451,0.76562,0.46484
14.888,0.47507,0.35191,0.6098,0.76953,0.43945
14.896,0.47605,0.35582,0.64118,0.75977,0.41992
14.904,0.47703,0.35875,0.67059,0.76562,0.4043
14.912,0.47703,0.36266,0.68039,0.74023,0.39062
14.92,0.47703,0.36755,0.69608,0.74414,0.38086
14.928,0.47801,0.37243,0.67647,0.70898,0.38477
14.936,0.47801,0.37732,0.66078,0.69531,0.40039
14.944,0.47801,0.38123,0.61961,0.66406,0.42578
14.952,0.47801,0.38514,0.56471,0.6543,0.46094
14.96,0.47801,0.38807,0.5098,0.625,0.5
14.968,0.47801,0.39003,0.47059,0.60938,0.5293
14.976,0.47703,0.39101,0.42549,0.59961,0.56055
14.984,0.47703,0.39003,0.40392,0.58984,0.57422
14.992,0.47605,0.3871,0.39412,0.58984,0.58398
15,0.4741,0.38416,0.39412,0.58984,0.58398
15.008,0.47312,0.38025,0.37059,0.59961,0.59961
15.016,0.47019,0.37634,0.38431,0.60547,0.5957
15.024,0.46725,0.37341,0.38039,0.59961,0.59961
15.032,0.46432,0.37048,0.39412,0.60547,0.58398
15.04,0.46139,0.36657,0.39412,0.59961,0.58984
15.048,0.45748,0.36168,0.39412,0.60547,0.58398
15.056,0.45357,0.35679,0.4098,0.60938,0.57422
15.064,0.45064,0.35191,0.40392,0.61523,0.58398
15.072,0.4477,0.34702,0.40392,0.62891,0.58008
15.08,0.44477,0.34311,0.39412,0.61523,0.58398
15.088,0.44184,0.3392,0.4,0.625,0.58008
15.096,0.43891,0.33529,0.39412,0.60938,0.58008
15.104,0.43695,0.33236,0.40392,0.61914,0.58008
15.112,0.43402,0.32942,0.39412,0.61523,0.58398
15.12,0.43109,0.32747,0.39412,0.61914,0.58398
15.128,0.42913,0.32454,0.38431,0.61523,0.5957
15.136,0.4262,0.32258,0.39412,0.625,0.58398
15.144,0.42424,0.31965,0.40392,0.62891,0.58008
15.152,0.42326,0.31672,0.4,0.66016,0.58008
15.16,0.42131,0.31574,0.4098,0.67969,0.58008
15.168,0.42033,0.31574,0.42549,0.68555,0.56055
15.176,0.42033,0.31965,0.43529,0.69922,0.56055
15.184,0.41935,0.32845,0.46078,0.70508,0.53906
15.192,0.41935,0.34409,0.46471,0.69922,0.54492
15.2,0.41838,0.36657,0.46078,0.67578,0.53516
15.208,0.41838,0.39785,0.4451,0.62891,0.53906
15.216,0.4174,0.435,0.43922,0.5957,0.54492
15.224,0.4174,0.47703,0.43529,0.5957,0.55078
15.232,0.41642,0.52297,0.4451,0.60547,0.54492
15.24,0.41642,0.56891,0.43922,0.64062,0.55469
15.248,0.41544,0.61388,0.42549,0.65039,0.56055
15.256,0.41349,0.65591,0.39412,0.63477,0.58398
15.264,0.41153,0.69404,0.3902,0.625,0.58984
15.272,0.40958,0.72336,0.38431,0.62891,0.58984
15.28,0.40665,0.74585,0.38039,0.62891,0.58398
15.288,0.40469,0.76735,0.38039,0.63477,0.5957
15.296,0.40274,0.78592,0.38039,0.63477,0.59961
15.304,0.40078,0.80156,0.3902,0.64062,0.58398
15.312,0.39883,0.81329,0.38431,0.63477,0.58984
15.32,0.39589,0.82014,0.43922,0.67969,0.56445
15.328,0.39296,0.82405,0.4902,0.65039,0.5293
15.336,0.39003,0.82307,0.63529,0.5957,0.40039
15.344,0.3871,0.81818,0.7451,0.59961,0.26953
15.352,0.38416,0.81134,0.57451,0.5293,0.32031
15.36,0.38221,0.80156,0.31961,0.32422,0.46484
15.368,0.37928,0.79081,0.04902,0.26562,0.71484
15.376,0.37732,0.77908,0.0039216,0.36523,0.81445
15.384,0.37537,0.7654,0.098039,0.38086,0.82031
15.392,0.37439,0.74976,0.22941,0.46094,0.71484
15.4,0.37243,0.73314,0.35882,0.56055,0.61523
15.408,0.37146,0.71261,0.39412,0.59961,0.58398
15.416,0.3695,0.6911,0.40392,0.61523,0.58984
15.424,0.36852,0.66862,0.4098,0.625,0.58398
15.432,0.36755,0.64418,0.41961,0.61914,0.58398
15.44,0.36657,0.61975,0.42549,0.62891,0.58008
15.448,0.36559,0.59629,0.44902,0.63477,0.56445
15.456,0.36461,0.5738,0.43529,0.63477,0.58008
15.464,0.36364,0.5523,0.41961,0.625,0.58398
15.472,0.36364,0.5347,0.43922,0.60938,0.56445
15.48,0.36266,0.51906,0.43922,0.5957,0.56445
15.488,0.36168,0.5044,0.4451,0.60547,0.56445
15.496,0.3607,0.49169,0.4549,0.58984,0.56055
15.504,0.3607,0.48094,0.46078,0.58984,0.56055
15.512,0.35875,0.47312,0.44902,0.58008,0.56055
15.52,0.35777,0.46725,0.46471,0.58398,0.55469
15.528,0.35679,0.46432,0.47451,0.57031,0.54492
15.536,0.35484,0.46237,0.50588,0.56445,0.51953
15.544,0.35386,0.46334,0.5,0.58008,0.5293
15.552,0.35288,0.46432,0.51569,0.58398,0.51562
15.56,0.35093,0.4653,0.53529,0.58984,0.5
15.568,0.34995,0.46725,0.5549,0.58008,0.48438
15.576,0.348,0.46823,0.58039,0.58398,0.46094
15.584,0.34604,0.47019,0.61569,0.58008,0.43555
15.592,0.34311,0.47312,0.6549,0.58984,0.4043
15.6,0.34018,0.47703,0.68627,0.58008,0.38086
15.608,0.33627,0.48192,0.7,0.58398,0.37109
15.616,0.33333,0.48778,0.7,0.57422,0.36523
15.624,0.32942,0.49365,0.7,0.56445,0.36523
15.632,0.32551,0.49951,0.67647,0.55078,0.37109
15.64,0.32063,0.50538,0.6549,0.53516,0.39062
15.648,0.31672,0.51124,0.60588,0.51953,0.43555
15.656,0.31085,0.51515,0.55098,0.50586,0.4707
15.664,0.30596,0.51808,0.5,0.5,0.50977
15.672,0.29912,0.52004,0.46471,0.49414,0.5293
15.68,0.29326,0.52199,0.43922,0.49023,0.55469
15.688,0.28543,0.52493,0.41961,0.49414,0.57031
15.696,0.27859,0.52688,0.41569,0.49414,0.57422
15.704,0.27175,0.52688,0.41961,0.50586,0.57422
15.712,0.26393,0.5259,0.41961,0.5,0.57422
15.72,0.25709,0.52297,0.41569,0.51562,0.58008
15.728,0.25024,0.51808,0.41961,0.51562,0.58398
15.736,0.24242,0.51026,0.42549,0.51953,0.57031
15.744,0.23558,0.50147,0.43529,0.51953,0.56055
15.752,0.22776,0.49071,0.42941,0.53906,0.57031
15.76,0.22092,0.47996,0.42549,0.53516,0.57422
15.768,0.21408,0.47019,0.43922,0.53906,0.56055
15.776,0.20821,0.46139,0.43529,0.54492,0.56445
15.784,0.20332,0.45259,0.43922,0.55078,0.56055
15.792,0.19844,0.44477,0.42549,0.55469,0.56445
15.8,0.19453,0.43695,0.41961,0.56445,0.56445
15.808,0.19062,0.43109,0.41961,0.57031,0.56055
15.816,0.18768,0.42522,0.41569,0.56445,0.57031
15.824,0.18377,0.42033,0.42941,0.58984,0.56055
15.832,0.1828,0.41544,0.42549,0.58984,0.56445
15.84,0.18084,0.41056,0.41569,0.5957,0.57031
15.848,0.17986,0.40567,0.41961,0.59961,0.57031
15.856,0.17986,0.40176,0.42941,0.63477,0.56445
15.864,0.17986,0.39883,0.42549,0.6543,0.56055
15.872,0.18084,0.39687,0.43922,0.67578,0.55469
15.88,0.18182,0.39883,0.4549,0.69922,0.54492
15.888,0.1828,0.40469,0.47451,0.71484,0.53516
15.896,0.18573,0.41838,0.48039,0.70898,0.5293
15.904,0.18768,0.43988,0.4902,0.71484,0.5293
15.912,0.19062,0.46921,0.48039,0.68555,0.52539
15.92,0.19355,0.50538,0.46078,0.6543,0.53906
15.928,0.1955,0.54741,0.43922,0.63477,0.55469
15.936,0.19844,0.59238,0.4451,0.64062,0.55078
15.944,0.20039,0.63734,0.4451,0.66016,0.55469
15.952,0.20235,0.68035,0.43922,0.67969,0.56055
15.96,0.2043,0.71848,0.42549,0.68555,0.57422
15.968,0.20626,0.7478,0.38431,0.68555,0.5957
15.976,0.20919,0.77028,0.37451,0.68555,0.60547
15.984,0.21114,0.78983,0.38431,0.67969,0.5957
15.992,0.21408,0.80645,0.38039,0.69922,0.59961
16,0.21603,0.81818,0.38039,0.70508,0.59961
16.008,0.21896,0.82502,0.38431,0.70508,0.5957
16.016,0.22092,0.82796,0.39412,0.7207,0.58398
16.024,0.22287,0.82698,0.41569,0.75,0.58398
16.032,0.22483,0.82209,0.44902,0.75391,0.56055
16.04,0.22678,0.81329,0.53922,0.67578,0.47461
16.048,0.22874,0.80352,0.6902,0.58398,0.32031
16.056,0.23069,0.78983,0.71569,0.58984,0.27539
16.064,0.23265,0.77615,0.42549,0.56055,0.41016
16.072,0.23558,0.76051,0.18431,0.54492,0.61523
16.08,0.23851,0.74194,0.017647,0.66016,0.81445
16.088,0.24145,0.72239,0.0078431,0.75391,0.86523
16.096,0.24438,0.70186,0.12353,0.66406,0.82031
16.104,0.24633,0.67937,0.24902,0.65039,0.70898
16.112,0.24927,0.65591,0.33922,0.74414,0.63477
16.12,0.2522,0.6305,0.39412,0.78906,0.59961
16.128,0.25611,0.60411,0.41569,0.81445,0.58984
16.136,0.25904,0.57674,0.4098,0.83008,0.5957
16.144,0.26295,0.54936,0.4098,0.82422,0.58984
16.152,0.26686,0.52199,0.42549,0.84375,0.58398
16.16,0.27077,0.49658,0.4,0.85547,0.59961
16.168,0.27468,0.47507,0.41961,0.86914,0.58398
16.176,0.27859,0.4565,0.43529,0.85938,0.57422
16.184,0.2825,0.43891,0.43922,0.875,0.58398
16.192,0.28543,0.42131,0.42549,0.86914,0.57422
16.2,0.28935,0.40665,0.43922,0.88477,0.56055
16.208,0.29228,0.39296,0.42549,0.88867,0.58008
16.216,0.29619,0.38123,0.41961,0.88867,0.58398
16.224,0.3001,0.37146,0.42941,0.89453,0.57422
16.232,0.30401,0.36266,0.4451,0.90039,0.56445
16.24,0.30792,0.35484,0.44902,0.90039,0.56445
16.248,0.31085,0.34897,0.4451,0.91016,0.56055
16.256,0.31476,0.34409,0.48039,0.91406,0.53516
16.264,0.31769,0.34213,0.5,0.91016,0.51562
16.272,0.3216,0.34115,0.50588,0.91406,0.50977
16.28,0.32454,0.34115,0.5098,0.91406,0.50586
16.288,0.32747,0.34311,0.5451,0.91016,0.47461
16.296,0.3304,0.34604,0.58431,0.90039,0.44531
16.304,0.33333,0.348,0.6,0.91406,0.42969
16.312,0.33627,0.34995,0.6451,0.91406,0.4043
16.32,0.3392,0.34995,0.65098,0.91016,0.39062
16.328,0.34311,0.34897,0.67647,0.90039,0.37109
16.336,0.34604,0.34604,0.66471,0.90039,0.375
16.344,0.34897,0.34115,0.63529,0.91016,0.40039
16.352,0.35191,0.33627,0.6,0.89453,0.42969
16.36,0.35386,0.32942,0.53922,0.87891,0.4707
16.368,0.35582,0.32454,0.48431,0.875,0.50977
16.376,0.35777,0.31965,0.43529,0.88867,0.55469
16.384,0.35875,0.31378,0.41569,0.87891,0.57422
16.392,0.35973,0.30694,0.39412,0.89453,0.58984
16.4,0.3607,0.30108,0.37451,0.90039,0.60547
16.408,0.36168,0.29521,0.36471,0.89453,0.60938
16.416,0.36266,0.29032,0.36471,0.89453,0.61523
16.424,0.36266,0.28739,0.3549,0.87891,0.61914
16.432,0.36364,0.28641,0.35882,0.87891,0.625
16.44,0.36364,0.28837,0.35882,0.86523,0.60547
16.448,0.36461,0.2913,0.36471,0.85938,0.61523
16.456,0.36461,0.29521,0.37059,0.86914,0.60547
16.464,0.36461,0.29912,0.37059,0.85547,0.60547
16.472,0.36559,0.30205,0.37059,0.84375,0.60547
16.48,0.36559,0.30401,0.37059,0.84961,0.60938
16.488,0.36657,0.30499,0.37059,0.83984,0.60547
16.496,0.36755,0.30401,0.36471,0.83398,0.60547
16.504,0.36852,0.30205,0.35882,0.84375,0.60938
16.512,0.3695,0.30108,0.36471,0.83984,0.60547
16.52,0.3695,0.3001,0.3549,0.84375,0.60547
16.528,0.37048,0.29912,0.37451,0.83398,0.59961
16.536,0.37243,0.29717,0.37059,0.82031,0.59961
16.544,0.37341,0.29717,0.36471,0.83008,0.60547
16.552,0.37537,0.29717,0.35882,0.83984,0.60547
16.56,0.37732,0.29619,0.38039,0.83398,0.59961
16.568,0.38025,0.29814,0.38039,0.86523,0.5957
16.576,0.38221,0.29912,0.38039,0.86914,0.5957
16.584,0.38416,0.30205,0.38431,0.88477,0.58398
16.592,0.38612,0.30694,0.41961,0.88867,0.56055
16.6,0.38905,0.31672,0.42549,0.87891,0.56445
16.608,0.39198,0.33138,0.41961,0.86914,0.56445
16.616,0.39492,0.35288,0.41961,0.84375,0.56055
16.624,0.39883,0.38123,0.41961,0.81445,0.56055
16.632,0.40176,0.41642,0.41961,0.79492,0.56055
16.64,0.40567,0.45846,0.41961,0.78516,0.56445
16.648,0.4086,0.5044,0.41961,0.81055,0.57031
16.656,0.41251,0.55425,0.40392,0.82422,0.58008
16.664,0.41544,0.59824,0.3902,0.81055,0.58984
16.672,0.41935,0.6393,0.36471,0.81055,0.60547
16.68,0.42229,0.68426,0.35882,0.81055,0.60547
16.688,0.42522,0.72825,0.36471,0.81445,0.60547
16.696,0.42717,0.76833,0.3549,0.79883,0.60547
16.704,0.42913,0.80254,0.34902,0.79883,0.60938
16.712,0.43109,0.83089,0.34902,0.79883,0.60547
16.72,0.43304,0.85239,0.3549,0.80469,0.59961
16.728,0.435,0.86608,0.38039,0.82422,0.60547
16.736,0.43597,0.87195,0.42941,0.79883,0.56445
16.744,0.43793,0.87097,0.52941,0.70898,0.4707
16.752,0.43988,0.86413,0.68627,0.64062,0.32422
16.76,0.44086,0.85239,0.61961,0.67578,0.30078
16.768,0.44282,0.83675,0.35882,0.64062,0.46484
16.776,0.44379,0.81818,0.11373,0.61523,0.67578
16.784,0.44477,0.7957,-0.021569,0.70508,0.83398
16.792,0.44575,0.77028,-0.027451,0.74414,0.87891
16.8,0.4477,0.74194,0.062745,0.65039,0.83008
16.808,0.44966,0.71261,0.2,0.64062,0.73047
16.816,0.45259,0.68231,0.29412,0.73438,0.6543
16.824,0.45455,0.652,0.32353,0.75391,0.62891
16.832,0.4565,0.6217,0.33529,0.7793,0.62891
16.84,0.45846,0.59335,0.3451,0.78906,0.61914
16.848,0.46139,0.565,0.33922,0.79492,0.625
16.856,0.46432,0.53861,0.33529,0.79492,0.62891
16.864,0.46628,0.51613,0.34902,0.78906,0.61914
16.872,0.46921,0.49756,0.3549,0.79492,0.61523
16.88,0.47214,0.47996,0.36471,0.7793,0.60547
16.888,0.47507,0.46334,0.37059,0.77539,0.60547
16.896,0.47801,0.44868,0.37059,0.77539,0.60547
16.904,0.48094,0.43597,0.37059,0.7793,0.60547
16.912,0.48387,0.42522,0.37451,0.7793,0.59961
16.92,0.48778,0.41642,0.3902,0.7793,0.58984
16.928,0.49071,0.41056,0.39412,0.77539,0.58398
16.936,0.4956,0.39394,0.4098,0.77539,0.58008
16.944,0.49951,0.37243,0.41961,0.7793,0.57422
16.952,0.5044,0.36266,0.42549,0.78516,0.56445
16.96,0.51026,0.35875,0.42941,0.78516,0.56055
16.968,0.51515,0.35679,0.4451,0.78516,0.54492
16.976,0.52102,0.35777,0.47059,0.7793,0.5293
16.984,0.5259,0.35875,0.5,0.78906,0.5
16.992,0.53079,0.35973,0.52549,0.79492,0.49023
17,0.53568,0.3607,0.5549,0.79492,0.46094
17.008,0.54057,0.36168,0.58039,0.78906,0.43945
17.016,0.54545,0.36266,0.6,0.79492,0.41992
17.024,0.55034,0.36364,0.62549,0.79883,0.4043
17.032,0.55425,0.36461,0.64118,0.79883,0.39453
17.04,0.55914,0.36559,0.62549,0.78516,0.4043
17.048,0.56305,0.36657,0.6,0.7793,0.41992
17.056,0.56696,0.36755,0.56471,0.77539,0.44531
17.064,0.57087,0.36852,0.51961,0.76953,0.47461
17.072,0.5738,0.3695,0.4549,0.76562,0.5293
17.08,0.57674,0.37048,0.41569,0.75391,0.56055
17.088,0.57869,0.37146,0.39412,0.75391,0.57422
17.096,0.58065,0.37243,0.3549,0.74414,0.60547
17.104,0.5826,0.37341,0.33922,0.75,0.61914
17.112,0.58358,0.37439,0.33922,0.75,0.62891
17.12,0.58456,0.37439,0.33922,0.75391,0.62891
17.128,0.58456,0.37341,0.33922,0.75,0.625
17.136,0.58553,0.37243,0.33922,0.75977,0.62891
17.144,0.58553,0.37146,0.33529,0.75391,0.625
17.152,0.58553,0.36852,0.3451,0.75391,0.62891
17.16,0.58456,0.36559,0.3451,0.75,0.625
17.168,0.58358,0.36168,0.3451,0.75,0.61914
17.176,0.58358,0.35875,0.33529,0.74414,0.62891
17.184,0.5826,0.35484,0.3451,0.74023,0.61914
17.192,0.58162,0.35093,0.34902,0.73047,0.61523
17.2,0.58065,0.348,0.3549,0.73438,0.60547
17.208,0.58065,0.34409,0.34902,0.73047,0.61523
17.216,0.57967,0.34018,0.3549,0.73438,0.60938
17.224,0.57869,0.33627,0.3549,0.73438,0.60938
17.232,0.57771,0.33138,0.35882,0.74023,0.60547
17.24,0.57771,0.32649,0.3549,0.73438,0.60547
17.248,0.57674,0.32063,0.36471,0.73047,0.60938
17.256,0.57576,0.31476,0.37059,0.75,0.60547
17.264,0.57478,0.3089,0.38039,0.76953,0.58398
17.272,0.57478,0.30401,0.37059,0.78906,0.59961
17.28,0.5738,0.29814,0.4,0.80469,0.58008
17.288,0.57283,0.29326,0.42549,0.81055,0.56055
17.296,0.57185,0.29228,0.43529,0.80469,0.55469
17.304,0.57185,0.29521,0.43922,0.79492,0.55469
17.312,0.57087,0.30303,0.42941,0.75,0.55078
17.32,0.56989,0.31867,0.4,0.7207,0.56445
17.328,0.56891,0.34115,0.4,0.69922,0.56445
17.336,0.56794,0.36852,0.4,0.69922,0.56445
17.344,0.56696,0.40078,0.39412,0.72461,0.58008
17.352,0.565,0.435,0.3902,0.74023,0.58398
17.36,0.56305,0.47116,0.36471,0.73047,0.59961
17.368,0.56207,0.50049,0.34902,0.73047,0.61523
17.376,0.56012,0.52688,0.34902,0.72461,0.60938
17.384,0.55914,0.55327,0.34902,0.72461,0.60938
17.392,0.55816,0.57869,0.35882,0.72461,0.60547
17.4,0.55621,0.59922,0.3549,0.73047,0.60938
17.408,0.55523,0.61584,0.37059,0.73438,0.58984
17.416,0.55327,0.62757,0.36471,0.73047,0.60547
17.424,0.55132,0.63539,0.40392,0.76953,0.58984
17.432,0.54839,0.63832,0.4549,0.75,0.55078
17.44,0.54643,0.63734,0.56471,0.70508,0.45508
17.448,0.54448,0.63343,0.72549,0.68945,0.30469
17.456,0.54154,0.62659,0.63529,0.7207,0.2793
17.464,0.53959,0.61779,0.38039,0.52539,0.44922
17.472,0.53763,0.60802,0.098039,0.42969,0.66992
17.48,0.53568,0.59629,-0.0058823,0.49023,0.81445
17.488,0.5347,0.58162,0.04902,0.51562,0.83398
17.496,0.53275,0.56598,0.16471,0.50977,0.76562
17.504,0.53177,0.54839,0.2902,0.66992,0.67578
17.512,0.53079,0.52884,0.3451,0.73438,0.63477
17.52,0.52981,0.50831,0.36471,0.75977,0.61914
17.528,0.52884,0.4868,0.37059,0.76953,0.61523
17.536,0.52884,0.46432,0.38039,0.7793,0.60938
17.544,0.52884,0.44184,0.39412,0.78906,0.60547
17.552,0.52884,0.41935,0.3902,0.79492,0.60547
17.56,0.52786,0.40078,0.39412,0.78906,0.59961
17.568,0.52786,0.38514,0.39412,0.79883,0.59961
17.576,0.52786,0.36852,0.3902,0.79883,0.60547
17.584,0.52786,0.35191,0.39412,0.80469,0.60547
17.592,0.52786,0.33724,0.39412,0.80469,0.60547
17.6,0.52884,0.32356,0.3902,0.81445,0.59961
17.608,0.52884,0.31183,0.4,0.82031,0.58984
17.616,0.52981,0.30205,0.4098,0.81055,0.58398
17.624,0.52981,0.29423,0.4,0.81445,0.5957
17.632,0.52981,0.28837,0.39412,0.81055,0.59961
17.64,0.53079,0.28446,0.42941,0.81055,0.58008
17.648,0.53079,0.28152,0.4451,0.81055,0.57031
17.656,0.53079,0.27957,0.46078,0.81445,0.55469
17.664,0.53177,0.27957,0.48039,0.81055,0.53906
17.672,0.53275,0.27957,0.49412,0.83008,0.5293
17.68,0.53372,0.27957,0.52549,0.83984,0.50586
17.688,0.5347,0.27957,0.5451,0.84375,0.49023
17.696,0.53568,0.27957,0.57451,0.84961,0.4707
17.704,0.53666,0.27957,0.61569,0.85547,0.43555
17.712,0.53763,0.27761,0.63529,0.84961,0.41602
17.72,0.53959,0.27664,0.65098,0.84375,0.41016
17.728,0.54057,0.27468,0.6549,0.83398,0.41016
17.736,0.54154,0.27077,0.6451,0.82031,0.41016
17.744,0.5435,0.26784,0.60588,0.79883,0.43945
17.752,0.54252,0.26491,0.57059,0.78516,0.46484
17.76,0.54252,0.26393,0.51569,0.76562,0.50586
17.768,0.54154,0.26295,0.46471,0.75,0.53906
17.776,0.54057,0.26197,0.43529,0.72461,0.56055
17.784,0.53861,0.26002,0.41569,0.72461,0.58008
17.792,0.53666,0.25904,0.38039,0.7207,0.60547
17.8,0.5347,0.25709,0.37059,0.71484,0.60938
17.808,0.53177,0.25513,0.36471,0.70898,0.61523
17.816,0.52884,0.25318,0.37059,0.71484,0.61523
17.824,0.52493,0.25024,0.37059,0.70508,0.60547
17.832,0.52102,0.24731,0.35882,0.70508,0.61914
17.84,0.51711,0.24536,0.37059,0.69922,0.60547
17.848,0.51222,0.24242,0.37059,0.69922,0.61523
17.856,0.50831,0.24047,0.38431,0.69922,0.59961
17.864,0.5044,0.23851,0.3902,0.69922,0.59961
17.872,0.50049,0.23754,0.37451,0.70508,0.60547
17.88,0.4956,0.23656,0.38431,0.69531,0.5957
17.888,0.49071,0.2346,0.39412,0.70508,0.58984
17.896,0.48583,0.23265,0.39412,0.70508,0.58984
17.904,0.47996,0.23069,0.39412,0.70898,0.58984
17.912,0.47507,0.22776,0.38431,0.70508,0.5957
17.92,0.47019,0.22581,0.37451,0.70508,0.60547
17.928,0.46628,0.2219,0.3902,0.70508,0.5957
17.936,0.46139,0.21799,0.39412,0.70898,0.58984
17.944,0.45846,0.21408,0.40392,0.70508,0.58398
17.952,0.45455,0.20919,0.41961,0.74414,0.57422
17.96,0.45161,0.20626,0.41569,0.76953,0.57422
17.968,0.44966,0.20332,0.42549,0.79492,0.56445
17.976,0.44673,0.20235,0.46471,0.78516,0.53906
17.984,0.44477,0.20137,0.48039,0.7793,0.52539
17.992,0.44282,0.20528,0.46471,0.76562,0.53906
18,0.44184,0.2131,0.44902,0.72461,0.54492
18.008,0.43988,0.22581,0.4451,0.68945,0.55078
18.016,0.43891,0.24536,0.4549,0.67969,0.53906
18.024,0.43695,0.26882,0.42549,0.66406,0.56055
18.032,0.43597,0.29717,0.42549,0.69531,0.56445
18.04,0.435,0.32942,0.43529,0.73047,0.57031
18.048,0.43402,0.36266,0.4098,0.73047,0.58008
18.056,0.43304,0.39785,0.38039,0.71484,0.59961
18.064,0.43206,0.42913,0.37451,0.71484,0.60547
18.072,0.43109,0.45846,0.38039,0.70898,0.59961
18.08,0.42913,0.48778,0.37059,0.70508,0.60547
18.088,0.42815,0.51613,0.38039,0.70508,0.5957
18.096,0.4262,0.53959,0.3902,0.69922,0.58984
18.104,0.42522,0.55816,0.39412,0.72461,0.59961
18.112,0.42424,0.57087,0.41961,0.75391,0.58984
18.12,0.42229,0.57869,0.47059,0.76562,0.55469
18.128,0.42131,0.5826,0.57059,0.70898,0.4707
18.136,0.41935,0.58456,0.74118,0.70508,0.31445
18.144,0.4174,0.58553,0.76667,0.71484,0.26562
18.152,0.41447,0.58553,0.44902,0.50977,0.40039
18.16,0.41153,0.58553,0.16863,0.35547,0.60547
18.168,0.40958,0.58456,-0.0058823,0.41016,0.79883
18.176,0.40762,0.58358,0.033333,0.43945,0.83008
18.184,0.40567,0.5826,0.16863,0.50586,0.75391
18.192,0.40371,0.58162,0.31373,0.64453,0.66016
18.2,0.40078,0.57771,0.37059,0.71484,0.61914
18.208,0.39883,0.57283,0.3902,0.74023,0.60938
18.216,0.39687,0.565,0.4,0.76562,0.59961
18.224,0.39394,0.55523,0.4098,0.76953,0.59961
18.232,0.39198,0.54154,0.4098,0.76562,0.59961
18.24,0.38905,0.52688,0.40392,0.77539,0.5957
18.248,0.3871,0.51026,0.41569,0.76953,0.5957
18.256,0.38416,0.49169,0.40392,0.77539,0.5957
18.264,0.38221,0.47605,0.41961,0.76562,0.58398
18.272,0.38025,0.46041,0.41569,0.77539,0.58398
18.28,0.3783,0.44477,0.41961,0.76562,0.58398
18.288,0.37634,0.43011,0.4098,0.76562,0.58398
18.296,0.37439,0.41642,0.41961,0.78516,0.58984
18.304,0.37243,0.40567,0.41961,0.79492,0.58398
18.312,0.37048,0.39687,0.42549,0.77539,0.57422
18.32,0.36852,0.39101,0.43529,0.7793,0.57031
18.328,0.36657,0.3871,0.44902,0.78906,0.56055
18.336,0.36461,0.38514,0.46471,0.79492,0.55469
18.344,0.36364,0.38416,0.46471,0.79492,0.54492
18.352,0.36168,0.38514,0.48431,0.80469,0.53516
18.36,0.3607,0.38612,0.5098,0.81055,0.51562
18.368,0.35973,0.3871,0.53529,0.82031,0.49414
18.376,0.35777,0.38905,0.56078,0.82422,0.48047
18.384,0.35679,0.39198,0.59608,0.83984,0.45508
18.392,0.35582,0.39492,0.61961,0.83008,0.43945
18.4,0.35582,0.39883,0.6451,0.84375,0.41602
18.408,0.35484,0.40274,0.68039,0.82422,0.38477
18.416,0.35386,0.40665,0.68627,0.82422,0.39453
18.424,0.35288,0.41056,0.66471,0.81055,0.38477
18.432,0.35288,0.41349,0.62941,0.79492,0.41992
18.44,0.35191,0.41642,0.58431,0.76953,0.44922
18.448,0.35093,0.41838,0.51961,0.74414,0.49414
18.456,0.34995,0.42033,0.49412,0.73047,0.50977
18.464,0.34897,0.42131,0.4451,0.71484,0.55469
18.472,0.34702,0.42131,0.4098,0.69922,0.58008
18.48,0.34604,0.42229,0.3902,0.68945,0.58398
18.488,0.34409,0.42326,0.38039,0.67969,0.59961
18.496,0.34213,0.42424,0.37059,0.68555,0.60547
18.504,0.34018,0.42522,0.37059,0.68555,0.60547
18.512,0.33822,0.4262,0.37059,0.67969,0.60938
18.52,0.33529,0.42717,0.37059,0.67578,0.60547
18.528,0.33333,0.42815,0.38039,0.66992,0.5957
18.536,0.33138,0.42913,0.37451,0.68555,0.60547
18.544,0.32845,0.43011,0.38039,0.67969,0.60547
18.552,0.32649,0.43109,0.39412,0.68945,0.5957
18.56,0.32356,0.43206,0.38039,0.67969,0.60547
18.568,0.3216,0.43206,0.37451,0.68555,0.59961
18.576,0.31867,0.43206,0.38431,0.67969,0.5957
18.584,0.31672,0.43206,0.3902,0.68555,0.5957
18.592,0.31476,0.43109,0.38039,0.68945,0.59961
18.6,0.31378,0.42815,0.39412,0.68945,0.58398
18.608,0.31183,0.4262,0.37059,0.68555,0.60547
18.616,0.31085,0.42326,0.39412,0.67969,0.58008
18.624,0.30987,0.42033,0.38431,0.67969,0.58398
18.632,0.3089,0.4174,0.3902,0.68555,0.58984
18.64,0.30792,0.41544,0.4,0.69531,0.58398
18.648,0.30694,0.41349,0.4098,0.7207,0.58008
18.656,0.30596,0.41251,0.41961,0.75,0.57031
18.664,0.30499,0.41349,0.42941,0.77539,0.56445
18.672,0.30401,0.4174,0.43922,0.75977,0.55469
18.68,0.30401,0.4262,0.44902,0.75391,0.54492
18.688,0.30303,0.44086,0.46471,0.73047,0.5293
18.696,0.30303,0.46139,0.46078,0.68555,0.5293
18.704,0.30205,0.4868,0.41961,0.6543,0.56055
18.712,0.30108,0.51711,0.42941,0.64062,0.55078
18.72,0.3001,0.54936,0.43529,0.63477,0.55469
18.728,0.29912,0.58358,0.4098,0.66406,0.57422
18.736,0.29814,0.61779,0.4,0.67969,0.58398
18.744,0.29619,0.64907,0.3902,0.67578,0.58984
18.752,0.29521,0.6784,0.37059,0.67969,0.60547
18.76,0.29423,0.70088,0.37059,0.67578,0.59961
18.768,0.29326,0.7175,0.38431,0.68555,0.5957
18.776,0.29228,0.73412,0.39412,0.68945,0.58398
18.784,0.2913,0.7478,0.4,0.68555,0.58398
18.792,0.28935,0.75758,0.38039,0.67969,0.5957
18.8,0.28739,0.7654,0.39412,0.69922,0.58984
18.808,0.28543,0.76931,0.4098,0.7207,0.5957
18.816,0.28446,0.77126,0.46471,0.70898,0.56055
18.824,0.2825,0.77028,0.58039,0.6543,0.46094
18.832,0.28055,0.76637,0.73529,0.64062,0.31055
18.84,0.27761,0.76149,0.74118,0.66016,0.27539
18.848,0.27566,0.75464,0.4,0.42969,0.42969
18.856,0.2737,0.74487,0.094118,0.31445,0.66016
18.864,0.27175,0.73509,-0.021569,0.39453,0.82031
18.872,0.26979,0.72239,0.058824,0.41602,0.83984
18.88,0.26686,0.70772,0.16471,0.5,0.76562
18.888,0.26491,0.69013,0.3,0.61914,0.66406
18.896,0.26295,0.67155,0.37059,0.66992,0.60938
18.904,0.261,0.65103,0.39412,0.69531,0.58984
18.912,0.25904,0.62854,0.4,0.70898,0.59961
18.92,0.25806,0.60606,0.39412,0.73047,0.5957
18.928,0.25611,0.58358,0.3902,0.73047,0.60547
18.936,0.25513,0.56207,0.39412,0.74414,0.59961
18.944,0.25318,0.54154,0.4,0.74414,0.5957
18.952,0.25122,0.52199,0.4098,0.75391,0.58984
18.96,0.25024,0.5044,0.40392,0.75391,0.58984
18.968,0.24829,0.48974,0.40392,0.76562,0.5957
18.976,0.24731,0.47507,0.41569,0.75391,0.58398
18.984,0.24633,0.46628,0.41961,0.76562,0.58398
18.992,0.24536,0.46139,0.40392,0.76953,0.58984
19,0.24536,0.45455,0.41569,0.7793,0.5957
19.008,0.24438,0.4477,0.42941,0.77539,0.58008
19.016,0.2434,0.44086,0.42549,0.78516,0.58398
19.024,0.2434,0.43597,0.43529,0.7793,0.57422
19.032,0.2434,0.43109,0.4451,0.79492,0.56445
19.04,0.24242,0.42717,0.47451,0.79492,0.54492
19.048,0.24242,0.42424,0.48431,0.79883,0.53906
19.056,0.24242,0.42229,0.50588,0.81055,0.52539
19.064,0.24242,0.42033,0.52941,0.82422,0.50586
19.072,0.24242,0.42033,0.58039,0.83008,0.4707
19.08,0.24242,0.41935,0.61961,0.84375,0.44531
19.088,0.24242,0.42033,0.63529,0.84961,0.42578
19.096,0.24242,0.42131,0.65098,0.85547,0.41016
19.104,0.2434,0.42229,0.67647,0.84961,0.39453
19.112,0.24438,0.42326,0.67647,0.84375,0.38477
19.12,0.24536,0.42424,0.6549,0.83008,0.39453
19.128,0.24536,0.42522,0.61961,0.80469,0.41992
19.136,0.24633,0.42522,0.5902,0.7793,0.44922
19.144,0.24633,0.42522,0.53529,0.75391,0.48438
19.152,0.24731,0.42522,0.48039,0.73438,0.5293
19.16,0.24731,0.42522,0.43922,0.7207,0.55469
19.168,0.24731,0.42522,0.41569,0.70508,0.57422
19.176,0.24633,0.42522,0.38431,0.69922,0.5957
19.184,0.24536,0.42522,0.38039,0.70508,0.59961
19.192,0.24438,0.42522,0.38039,0.69922,0.60547
19.2,0.2434,0.42522,0.37451,0.70508,0.60547
19.208,0.24242,0.42522,0.37059,0.69531,0.59961
19.216,0.24145,0.42522,0.38039,0.70508,0.60547
19.224,0.23949,0.42522,0.38431,0.69531,0.59961
19.232,0.23851,0.42522,0.38431,0.69531,0.59961
19.24,0.23656,0.42424,0.38039,0.67969,0.59961
19.248,0.23558,0.42229,0.3902,0.68555,0.59961
19.256,0.23363,0.42033,0.39412,0.67578,0.5957
19.264,0.23167,0.4174,0.4,0.66406,0.58398
19.272,0.22972,0.41447,0.39412,0.65039,0.5957
19.28,0.22874,0.41056,0.4,0.65039,0.58398
19.288,0.22678,0.40665,0.40392,0.64062,0.58398
19.296,0.22483,0.40274,0.39412,0.63477,0.58398
19.304,0.22287,0.39883,0.3902,0.62891,0.5957
19.312,0.2219,0.39492,0.4,0.63477,0.58398
19.32,0.21994,0.39198,0.4,0.61914,0.58398
19.328,0.21896,0.38807,0.40392,0.60938,0.58398
19.336,0.21799,0.38514,0.4098,0.60938,0.58398
19.344,0.21799,0.38221,0.41569,0.60938,0.57422
19.352,0.21701,0.38025,0.42549,0.63477,0.56445
19.36,0.21603,0.38025,0.43922,0.64453,0.56055
19.368,0.21408,0.38221,0.4549,0.66016,0.54492
19.376,0.2131,0.3871,0.48039,0.66406,0.5293
19.384,0.21212,0.39687,0.48431,0.66016,0.52539
19.392,0.21114,0.41056,0.47451,0.64453,0.51953
19.4,0.20919,0.43011,0.48431,0.62891,0.51562
19.408,0.20821,0.45455,0.46471,0.58984,0.53516
19.416,0.20528,0.48192,0.4549,0.58984,0.53906
19.424,0.20332,0.51222,0.4451,0.58008,0.54492
19.432,0.19941,0.54252,0.4451,0.61523,0.53906
19.44,0.19648,0.57185,0.42941,0.63477,0.56055
19.448,0.19355,0.59824,0.43529,0.63477,0.55469
19.456,0.19062,0.61975,0.4098,0.65039,0.58008
19.464,0.18866,0.63636,0.3902,0.66016,0.5957
19.472,0.18573,0.652,0.4,0.66016,0.58984
19.48,0.18182,0.66471,0.4,0.66406,0.58398
19.488,0.17791,0.67546,0.39412,0.66992,0.58398
19.496,0.17302,0.68328,0.39412,0.67969,0.58984
19.504,0.16911,0.68817,0.4,0.69531,0.58398
19.512,0.16325,0.69013,0.43529,0.73047,0.57031
19.52,0.15738,0.69013,0.47451,0.73438,0.55078
19.528,0.15152,0.68719,0.5549,0.64453,0.46484
19.536,0.14663,0.68231,0.7,0.57422,0.31055
19.544,0.14174,0.67546,0.7098,0.58008,0.27539
19.552,0.13685,0.66667,0.41961,0.50586,0.4043
19.56,0.13392,0.65787,0.1549,0.44531,0.61914
19.568,0.13001,0.64809,0.0078431,0.57031,0.81445
19.576,0.12708,0.63734,0.062745,0.63477,0.83984
19.584,0.12414,0.62463,0.12941,0.60547,0.81055
19.592,0.12121,0.61095,0.26863,0.66406,0.69922
19.6,0.11828,0.59726,0.37451,0.73047,0.61914
19.608,0.11632,0.5826,0.39412,0.76953,0.59961
19.616,0.11437,0.56696,0.4098,0.79883,0.5957
19.624,0.11339,0.5523,0.41569,0.80469,0.58398
19.632,0.11241,0.53763,0.41961,0.82422,0.58398
19.64,0.11241,0.52395,0.41569,0.83008,0.58398
19.648,0.11241,0.51124,0.41961,0.82422,0.58398
19.656,0.11339,0.50049,0.41961,0.84375,0.57422
19.664,0.11339,0.49169,0.43529,0.83984,0.57422
19.672,0.11535,0.48387,0.43529,0.84375,0.57031
19.68,0.11632,0.47605,0.43922,0.84961,0.56445
19.688,0.11828,0.46921,0.4451,0.85547,0.56055
19.696,0.12023,0.46432,0.44902,0.84375,0.56055
19.704,0.12317,0.45943,0.4451,0.86914,0.56445
19.712,0.1261,0.4565,0.4451,0.87891,0.56445
19.72,0.12903,0.45455,0.4451,0.88477,0.56055
19.728,0.13196,0.45259,0.4549,0.875,0.54492
19.736,0.13587,0.45259,0.48431,0.88867,0.53516
19.744,0.13881,0.45259,0.48039,0.89453,0.5293
19.752,0.1437,0.45259,0.5,0.9043,0.51953
19.76,0.14761,0.45357,0.51961,0.9043,0.5
19.768,0.15152,0.45357,0.5451,0.91016,0.48047
19.776,0.15543,0.45357,0.57451,0.91016,0.45508
19.784,0.15934,0.45357,0.6,0.91406,0.42969
19.792,0.16422,0.45357,0.63529,0.91406,0.4043
19.8,0.16911,0.45259,0.6549,0.91992,0.39453
19.808,0.174,0.45161,0.66471,0.92383,0.38086
19.816,0.17889,0.45064,0.67647,0.91992,0.37109
19.824,0.18475,0.44966,0.67059,0.91406,0.37109
19.832,0.18964,0.44868,0.6451,0.91016,0.39453
19.84,0.19453,0.44673,0.59608,0.89453,0.42969
19.848,0.19844,0.44575,0.53922,0.88477,0.4707
19.856,0.20332,0.44477,0.4902,0.86914,0.50586
19.864,0.20626,0.44379,0.4549,0.86914,0.53906
19.872,0.21017,0.44282,0.41569,0.86523,0.57031
19.88,0.2131,0.44184,0.40392,0.86914,0.58398
19.888,0.21505,0.43988,0.4,0.86914,0.58984
19.896,0.21701,0.43695,0.39412,0.875,0.58398
19.904,0.21994,0.435,0.38039,0.86914,0.59961
19.912,0.22092,0.43206,0.38431,0.86914,0.59961
19.92,0.22287,0.42913,0.4,0.85938,0.58398
19.928,0.22385,0.4262,0.3902,0.86914,0.5957
19.936,0.22483,0.42326,0.38431,0.86523,0.5957
19.944,0.22483,0.42131,0.3902,0.85547,0.58984
19.952,0.22483,0.41935,0.37451,0.84961,0.5957
19.96,0.22483,0.41838,0.38039,0.85938,0.59961
19.968,0.22581,0.4174,0.40392,0.86523,0.58008
19.976,0.22581,0.41642,0.4,0.86523,0.58398
19.984,0.22581,0.41544,0.3902,0.875,0.5957
19.992,0.22678,0.41447,0.39412,0.87891,0.59961
20,0.22776,0.41251,0.4,0.87891,0.58984
20.008,0.22874,0.41153,0.39412,0.875,0.58984
20.016,0.23069,0.40958,0.39412,0.88867,0.58984
20.024,0.23167,0.40762,0.40392,0.86914,0.58398
20.032,0.23265,0.40469,0.39412,0.86914,0.58398
20.04,0.23265,0.40078,0.39412,0.86914,0.58398
20.048,0.23363,0.39589,0.4098,0.87891,0.58008
20.056,0.23558,0.39198,0.40392,0.90039,0.58398
20.064,0.23754,0.38905,0.41569,0.91406,0.57422
20.072,0.23949,0.38612,0.4098,0.91992,0.58008
20.08,0.24242,0.38612,0.42549,0.93945,0.56445
20.088,0.24438,0.38807,0.46471,0.92969,0.53516
20.096,0.24731,0.39589,0.47059,0.93555,0.53516
20.104,0.24927,0.40762,0.44902,0.91992,0.53906
20.112,0.2522,0.42522,0.43922,0.90039,0.54492
20.12,0.25513,0.44673,0.42941,0.86523,0.55469
20.128,0.25806,0.47312,0.41961,0.83008,0.56055
20.136,0.261,0.50049,0.41569,0.83008,0.55469
20.144,0.26491,0.52786,0.4098,0.85938,0.57422
20.152,0.26882,0.55425,0.4,0.86914,0.58398
20.16,0.27273,0.57674,0.38039,0.84375,0.5957
20.168,0.27566,0.59433,0.37451,0.84961,0.5957
20.176,0.27957,0.6129,0.35882,0.84375,0.60547
20.184,0.2825,0.62952,0.3451,0.85547,0.61914
20.192,0.28641,0.64321,0.3549,0.84375,0.60547
20.2,0.28837,0.65298,0.37059,0.85547,0.60547
20.208,0.2913,0.65982,0.36471,0.85547,0.60938
20.216,0.29326,0.66276,0.37059,0.85938,0.60547
20.224,0.29619,0.66276,0.4,0.875,0.58398
20.232,0.3001,0.65787,0.4549,0.84961,0.54492
20.24,0.30303,0.65103,0.58039,0.73047,0.42969
20.248,0.30596,0.64223,0.71569,0.67578,0.29102
20.256,0.3089,0.63148,0.59608,0.69922,0.27539
20.264,0.31183,0.62072,0.32353,0.66016,0.48438
20.272,0.31476,0.60802,0.084314,0.68945,0.71484
20.28,0.31769,0.59335,-0.0058823,0.80469,0.85547
20.288,0.3216,0.57869,0.039216,0.83984,0.87891
20.296,0.32551,0.56207,0.11961,0.7207,0.80469
20.304,0.32845,0.54545,0.24902,0.75,0.69922
20.312,0.33236,0.52786,0.32941,0.79883,0.63477
20.32,0.33627,0.51026,0.36471,0.82422,0.61523
20.328,0.34115,0.49267,0.37059,0.84375,0.61914
20.336,0.34506,0.47507,0.38039,0.85547,0.60938
20.344,0.34897,0.45846,0.37451,0.84961,0.60547
20.352,0.35288,0.44379,0.38039,0.84961,0.59961
20.36,0.35777,0.43109,0.4,0.83398,0.58984
20.368,0.36168,0.42131,0.39412,0.84375,0.5957
20.376,0.36657,0.41153,0.37059,0.84375,0.60547
20.384,0.37048,0.40176,0.37059,0.84375,0.60547
20.392,0.37537,0.39296,0.39412,0.84961,0.58398
20.4,0.37928,0.38612,0.4098,0.85547,0.58398
20.408,0.38319,0.37928,0.41569,0.85938,0.58398
20.416,0.3871,0.37341,0.40392,0.86523,0.58398
20.424,0.39003,0.36852,0.4098,0.84961,0.58398
20.432,0.39394,0.36364,0.42941,0.84375,0.56445
20.44,0.39785,0.3607,0.44902,0.83984,0.55078
20.448,0.40176,0.35777,0.46078,0.83008,0.54492
20.456,0.40567,0.35582,0.47059,0.82422,0.53516
20.464,0.40958,0.35582,0.46078,0.82422,0.5293
20.472,0.41349,0.35484,0.49412,0.82422,0.50977
20.48,0.4174,0.35484,0.52549,0.83008,0.49023
20.488,0.42131,0.35484,0.55098,0.82031,0.46484
20.496,0.4262,0.35484,0.5902,0.82422,0.43945
20.504,0.42913,0.35484,0.61961,0.82422,0.41602
20.512,0.43304,0.35484,0.64118,0.81445,0.39453
20.52,0.43597,0.35484,0.6549,0.82031,0.39062
20.528,0.43988,0.35484,0.6549,0.81055,0.39062
20.536,0.44282,0.35386,0.64118,0.79883,0.38477
20.544,0.44575,0.35288,0.60588,0.79883,0.41992
20.552,0.4477,0.35191,0.57059,0.79492,0.43945
20.56,0.45064,0.35191,0.51961,0.78906,0.48438
20.568,0.45259,0.35191,0.47059,0.78516,0.5293
20.576,0.45455,0.35093,0.42941,0.77539,0.56055
20.584,0.4565,0.34995,0.4,0.7793,0.58008
20.592,0.45748,0.34995,0.37059,0.77539,0.60547
20.6,0.45846,0.34897,0.36471,0.76953,0.60547
20.608,0.45943,0.348,0.35882,0.76562,0.60547
20.616,0.46041,0.34702,0.34902,0.75977,0.61914
20.624,0.46139,0.34604,0.34902,0.75,0.61523
20.632,0.46237,0.34604,0.34902,0.75391,0.60938
20.64,0.46334,0.34506,0.33922,0.74414,0.61914
20.648,0.46432,0.34311,0.33529,0.74023,0.625
20.656,0.4653,0.34213,0.3451,0.75,0.625
20.664,0.46628,0.34115,0.33922,0.74023,0.625
20.672,0.46725,0.3392,0.3451,0.73047,0.61523
20.68,0.46725,0.33724,0.35882,0.73047,0.60547
20.688,0.46823,0.33529,0.3549,0.73047,0.60938
20.696,0.46921,0.33431,0.37059,0.74023,0.59961
20.704,0.47116,0.33236,0.37451,0.74414,0.59961
20.712,0.47312,0.33138,0.38039,0.75391,0.60547
20.72,0.47507,0.33138,0.37059,0.74414,0.60938
20.728,0.47801,0.3304,0.36471,0.74414,0.60547
20.736,0.47996,0.32845,0.36471,0.75,0.60547
20.744,0.48387,0.32747,0.37059,0.75,0.60547
20.752,0.4868,0.32551,0.37451,0.75391,0.5957
20.76,0.49071,0.32356,0.39412,0.76953,0.58398
20.768,0.49462,0.3216,0.3902,0.79492,0.5957
20.776,0.49951,0.31965,0.4,0.80469,0.58398
20.784,0.50342,0.31769,0.41961,0.82422,0.56445
20.792,0.50929,0.31867,0.42941,0.81445,0.55078
20.8,0.51515,0.32356,0.41961,0.81055,0.56055
20.808,0.52199,0.33236,0.43922,0.7793,0.55078
20.816,0.52786,0.34506,0.4451,0.75,0.54492
20.824,0.53372,0.36364,0.42549,0.73047,0.55469
20.832,0.53959,0.3871,0.4451,0.73438,0.53516
20.84,0.54545,0.41251,0.4098,0.74414,0.56445
20.848,0.55132,0.44086,0.41569,0.7793,0.57031
20.856,0.55718,0.46628,0.41961,0.79883,0.57422
20.864,0.56305,0.48876,0.39412,0.81445,0.58398
20.872,0.56891,0.5132,0.39412,0.80469,0.58984
20.88,0.57478,0.53666,0.39412,0.81445,0.58984
20.888,0.58065,0.55718,0.38431,0.80469,0.58984
20.896,0.58651,0.57478,0.38039,0.81055,0.5957
20.904,0.5914,0.58847,0.39412,0.81445,0.58398
20.912,0.59726,0.59824,0.3902,0.82422,0.58984
20.92,0.60215,0.60411,0.4098,0.84375,0.58008
20.928,0.60704,0.60606,0.4451,0.86914,0.56445
20.936,0.61193,0.60411,0.4902,0.83008,0.52539
20.944,0.61681,0.6002,0.65098,0.77539,0.39062
20.952,0.6217,0.59433,0.75098,0.81445,0.2793
20.96,0.62757,0.58651,0.6,0.82031,0.33594
20.968,0.63245,0.57869,0.3549,0.60547,0.48438
20.976,0.63832,0.56891,0.094118,0.55469,0.70508
20.984,0.64321,0.55718,0.033333,0.60938,0.82031
20.992,0.64712,0.5435,0.098039,0.60938,0.82422
21,0.65103,0.52981,0.23922,0.67578,0.7207
21.008,0.65591,0.51417,0.35882,0.76953,0.625
21.016,0.65982,0.49853,0.39412,0.83008,0.59961
21.024,0.66373,0.48289,0.42941,0.84375,0.57031
21.032,0.66667,0.46041,0.40392,0.86523,0.5957
21.04,0.67058,0.43304,0.4,0.85938,0.58398
21.048,0.67351,0.40958,0.40392,0.86914,0.58398
21.056,0.67644,0.39101,0.4,0.86914,0.58984
21.064,0.6784,0.37537,0.40392,0.86914,0.58398
21.072,0.68035,0.3607,0.41961,0.86523,0.58008
21.08,0.68231,0.34702,0.42941,0.86914,0.57422
21.088,0.68328,0.33431,0.43529,0.875,0.58008
21.096,0.68426,0.32356,0.4451,0.86914,0.56445
21.104,0.68426,0.31476,0.4549,0.86914,0.54492
21.112,0.68328,0.3089,0.41961,0.875,0.58008
21.12,0.68328,0.30401,0.42549,0.875,0.57422
21.128,0.68133,0.30108,0.43922,0.87891,0.56445
