Time [s], RESP, PLETH, II, V, AVR
0,1,0.33627,0.39062,0.57045,0.61523
0.008,1,0.33333,0.41016,0.59002,0.60938
0.016,1,0.3304,0.41602,0.6047,0.61523
0.024,1,0.32747,0.44531,0.62524,0.5957
0.032,1,0.32454,0.43555,0.61546,0.5957
0.04,1,0.3216,0.42969,0.6047,0.60938
0.048,1,0.31867,0.41016,0.58513,0.61914
0.056,1,0.31476,0.40039,0.56458,0.61914
0.064,1,0.31085,0.4043,0.55969,0.61523
0.072,1,0.30792,0.375,0.56458,0.62891
0.08,1,0.30596,0.36523,0.5499,0.63477
0.088,1,0.30694,0.33984,0.54501,0.64453
0.096,1,0.31183,0.33984,0.53523,0.64453
0.104,1,0.32454,0.32422,0.53523,0.65039
0.112,1,0.34115,0.32031,0.53523,0.64453
0.12,1,0.36461,0.32031,0.53523,0.65039
0.128,1,0.39785,0.32031,0.54012,0.64453
0.136,1,0.44086,0.32031,0.53033,0.65039
0.144,1,0.48974,0.33008,0.55479,0.6543
0.152,1,0.54154,0.375,0.5998,0.66406
0.16,1,0.59726,0.42578,0.62524,0.67578
0.168,1,0.65103,0.47461,0.59002,0.64062
0.176,1,0.69599,0.6543,0.55479,0.46484
0.184,1,0.73021,0.72461,0.48043,0.29492
0.192,1,0.75464,0.56445,0.42466,0.42969
0.2,1,0.77028,0.35547,0.4501,0.66992
0.208,1,0.77713,0.33594,0.49511,0.68555
0.216,1,0.77713,0.32031,0.51957,0.63477
0.224,1,0.77224,0.32031,0.53523,0.63477
0.232,1,0.76344,0.31445,0.54012,0.64062
0.24,1,0.75073,0.31445,0.54501,0.64453
0.248,0.99218,0.73412,0.30469,0.54501,0.65039
0.256,0.98436,0.71457,0.31445,0.54501,0.64453
0.264,0.97067,0.69208,0.31055,0.54501,0.64453
0.272,0.95699,0.66667,0.31055,0.54501,0.65039
0.28,0.94037,0.6393,0.32031,0.5499,0.64062
0.288,0.92473,0.60899,0.32031,0.55479,0.63477
0.296,0.90616,0.57869,0.32422,0.55479,0.62891
0.304,0.88759,0.54741,0.33008,0.55969,0.625
0.312,0.87097,0.51906,0.33984,0.56458,0.61523
0.32,0.85337,0.49365,0.34961,0.56458,0.60938
0.328,0.83675,0.46725,0.36523,0.57045,0.5957
0.336,0.81916,0.44282,0.375,0.57045,0.58398
0.344,0.80059,0.42033,0.38477,0.58023,0.57031
0.352,0.78201,0.40176,0.39453,0.58023,0.56445
0.36,0.76246,0.3871,0.41016,0.59002,0.55469
0.368,0.74194,0.37634,0.41602,0.59002,0.54492
0.376,0.72239,0.3695,0.42578,0.5998,0.53516
0.384,0.70186,0.36461,0.42578,0.59491,0.53906
0.392,0.68133,0.36266,0.42969,0.5998,0.53906
0.4,0.66178,0.3607,0.42578,0.59491,0.54492
0.408,0.64321,0.3607,0.42578,0.5998,0.54492
0.416,0.62561,0.3607,0.42969,0.59002,0.54492
0.424,0.60899,0.35973,0.41992,0.59002,0.55469
0.432,0.59238,0.35875,0.41016,0.58023,0.57031
0.44,0.57478,0.35777,0.40039,0.58023,0.58008
0.448,0.55718,0.35582,0.39453,0.57045,0.58984
0.456,0.53959,0.35386,0.39062,0.57045,0.5957
0.464,0.52199,0.35093,0.38477,0.57045,0.59961
0.472,0.50635,0.34702,0.38477,0.56458,0.60547
0.48,0.48974,0.34409,0.38477,0.55969,0.60547
0.488,0.4741,0.34018,0.38477,0.55969,0.60547
0.496,0.45943,0.33724,0.38477,0.5499,0.60547
0.504,0.44184,0.33333,0.38086,0.55479,0.60938
0.512,0.42522,0.33138,0.39062,0.5499,0.60547
0.52,0.40567,0.32845,0.39062,0.5499,0.60547
0.528,0.3871,0.32551,0.39062,0.5499,0.60547
0.536,0.36559,0.32258,0.38477,0.55479,0.60938
0.544,0.34506,0.31965,0.40039,0.56458,0.60547
0.552,0.32356,0.31574,0.41602,0.59002,0.59961
0.56,0.30108,0.31183,0.42578,0.6047,0.5957
0.568,0.28152,0.30792,0.43945,0.62035,0.5957
0.576,0.261,0.30303,0.44922,0.61546,0.58984
0.584,0.24242,0.29814,0.43555,0.5998,0.5957
0.592,0.22385,0.29326,0.41602,0.59002,0.61523
0.6,0.2043,0.28837,0.40039,0.56458,0.61914
0.608,0.18573,0.28543,0.4043,0.55969,0.60938
0.616,0.16716,0.2825,0.39062,0.55479,0.61914
0.624,0.14761,0.27957,0.38086,0.5499,0.62891
0.632,0.13099,0.27761,0.34961,0.54012,0.64062
0.64,0.11437,0.27957,0.33984,0.53523,0.64062
0.648,0.098729,0.28739,0.33008,0.52544,0.64062
0.656,0.084066,0.30303,0.32422,0.52544,0.64062
0.664,0.071359,0.32747,0.33008,0.52544,0.64062
0.672,0.058651,0.3607,0.33008,0.52544,0.64062
0.68,0.046921,0.40274,0.32422,0.52544,0.64062
0.688,0.035191,0.45161,0.33594,0.54012,0.64453
0.696,0.025415,0.50342,0.38086,0.57534,0.65039
0.704,0.01564,0.55523,0.41992,0.6047,0.66406
0.712,0.0078201,0.59629,0.44922,0.57534,0.64062
0.72,0,0.62952,0.61914,0.54501,0.50977
0.728,0,0.6608,0.69922,0.45988,0.31055
0.736,0,0.68524,0.61914,0.44521,0.30469
0.744,0,0.70186,0.38477,0.45988,0.6543
0.752,0,0.71065,0.33984,0.49511,0.70508
0.76,0,0.71261,0.33984,0.50978,0.63477
0.768,0,0.70772,0.33594,0.51957,0.625
0.776,0,0.69795,0.33984,0.53523,0.625
0.784,0,0.68328,0.32422,0.53033,0.64062
0.792,0,0.66667,0.32031,0.53523,0.64062
0.8,0,0.64614,0.32031,0.53523,0.64062
0.808,0,0.62659,0.32422,0.54012,0.63477
0.816,0,0.60508,0.33594,0.54012,0.62891
0.824,0,0.58065,0.33594,0.54012,0.62891
0.832,0,0.5523,0.33594,0.54012,0.625
0.84,0,0.52297,0.33984,0.54501,0.61914
0.848,0,0.49267,0.33984,0.54501,0.61523
0.856,0,0.46237,0.34961,0.54501,0.60938
0.864,0,0.43304,0.36523,0.54501,0.5957
0.872,0,0.40665,0.37109,0.5499,0.58984
0.88,0,0.38319,0.39062,0.5499,0.57031
0.888,0,0.36364,0.40039,0.55479,0.56055
0.896,0,0.34702,0.41016,0.55969,0.55078
0.904,0,0.33529,0.41992,0.57045,0.54492
0.912,0,0.32845,0.43555,0.57045,0.5293
0.92,0,0.32454,0.43555,0.57534,0.5293
0.928,0,0.32258,0.43555,0.58023,0.52539
0.936,0,0.32258,0.43555,0.58023,0.5293
0.944,0,0.32356,0.43945,0.57534,0.53516
0.952,0,0.32454,0.43555,0.57534,0.53516
0.96,0,0.32551,0.43555,0.58023,0.54492
0.968,0,0.32649,0.42969,0.57534,0.54492
0.976,0,0.32649,0.41992,0.57534,0.56055
0.984,0,0.32551,0.41016,0.57045,0.57031
0.992,0,0.32454,0.39453,0.57045,0.58398
1,0,0.32356,0.39062,0.56458,0.58984
1.008,0,0.3216,0.39062,0.55969,0.5957
1.016,0,0.31965,0.375,0.5499,0.59961
1.024,0,0.31769,0.375,0.55479,0.60547
1.032,0,0.31378,0.38086,0.5499,0.59961
1.04,0,0.31085,0.38086,0.5499,0.60547
1.048,0,0.30792,0.38086,0.5499,0.59961
1.056,0,0.30499,0.38477,0.5499,0.59961
1.064,0,0.30108,0.38086,0.5499,0.59961
1.072,0,0.29814,0.38086,0.55479,0.60547
1.08,0,0.29423,0.38086,0.55479,0.60938
1.088,0,0.2913,0.38477,0.56458,0.60938
1.096,0,0.28739,0.40039,0.57534,0.60547
1.104,0,0.28348,0.41016,0.59002,0.60547
1.112,0,0.28055,0.42969,0.61057,0.5957
1.12,0,0.27859,0.43945,0.61546,0.5957
1.128,0,0.27468,0.42578,0.6047,0.59961
1.136,0,0.27077,0.41016,0.59002,0.61914
1.144,0,0.26686,0.39453,0.57045,0.61914
1.152,0,0.26295,0.39453,0.55969,0.61914
1.16,0,0.25806,0.38477,0.55479,0.62891
1.168,0,0.25415,0.36523,0.5499,0.64062
1.176,0,0.25122,0.3457,0.54012,0.64453
1.184,0,0.25122,0.33008,0.52544,0.65039
1.192,0,0.25513,0.32422,0.52544,0.6543
1.2,0,0.26491,0.32422,0.52544,0.6543
1.208,0,0.27859,0.32422,0.52544,0.6543
1.216,0,0.29814,0.32422,0.51957,0.6543
1.224,0,0.32845,0.32422,0.53033,0.6543
1.232,0,0.36657,0.33594,0.53033,0.65039
1.24,0,0.41056,0.36523,0.57045,0.66016
1.248,0,0.45846,0.40039,0.59491,0.67578
1.256,0,0.50635,0.42969,0.57045,0.6543
1.264,0,0.55034,0.57031,0.54012,0.55469
1.272,0,0.58847,0.66992,0.45988,0.34961
1.28,0,0.61877,0.67578,0.4501,0.31445
1.288,0,0.6393,0.41016,0.47456,0.6543
1.296,0,0.652,0.33594,0.5,0.73047
1.304,0,0.65591,0.33594,0.50489,0.66016
1.312,0,0.65396,0.33594,0.51957,0.64062
1.32,0,0.64614,0.33008,0.53033,0.64062
1.328,0,0.63539,0.33594,0.53523,0.64062
1.336,0,0.61975,0.32422,0.53523,0.64062
1.344,0,0.6002,0.33008,0.53523,0.64062
1.352,0,0.57869,0.33008,0.53523,0.64062
1.36,0,0.55327,0.33008,0.53523,0.63477
1.368,0,0.5259,0.33984,0.53523,0.62891
1.376,0,0.49756,0.33984,0.54012,0.62891
1.384,0,0.46921,0.33984,0.54012,0.61914
1.392,0,0.43988,0.34961,0.54501,0.60938
1.4,0,0.41349,0.35547,0.54501,0.60547
1.408,0,0.39101,0.35938,0.54501,0.59961
1.416,0.0029325,0.37146,0.37109,0.54501,0.58984
1.424,0.0068426,0.35386,0.39062,0.5499,0.57422
1.432,0.012708,0.33724,0.4043,0.55479,0.56445
1.44,0.018573,0.32356,0.41602,0.55969,0.55078
1.448,0.02346,0.31281,0.41992,0.56458,0.53906
1.456,0.028348,0.30596,0.43555,0.57045,0.5293
1.464,0.033236,0.30108,0.44531,0.57534,0.52539
1.472,0.037146,0.29912,0.45508,0.58023,0.52539
1.48,0.042033,0.29814,0.44922,0.58513,0.52539
1.488,0.045943,0.3001,0.44922,0.58513,0.52539
1.496,0.049853,0.30108,0.45508,0.58513,0.52539
1.504,0.053763,0.30303,0.44531,0.58513,0.53906
1.512,0.057674,0.30401,0.43555,0.58023,0.54492
1.52,0.060606,0.30596,0.42578,0.58023,0.55078
1.528,0.064516,0.30596,0.41602,0.57534,0.56445
1.536,0.067449,0.30596,0.4043,0.57534,0.57031
1.544,0.071359,0.30499,0.39453,0.57045,0.58398
1.552,0.074291,0.30401,0.39062,0.57045,0.58984
1.56,0.077224,0.30303,0.38477,0.55969,0.5957
1.568,0.080156,0.30108,0.38086,0.55479,0.5957
1.576,0.083089,0.29912,0.39062,0.55479,0.5957
1.584,0.086022,0.29619,0.38086,0.5499,0.5957
1.592,0.087977,0.29423,0.39062,0.5499,0.5957
1.6,0.089932,0.2913,0.38477,0.5499,0.59961
1.608,0.091887,0.29032,0.39062,0.5499,0.59961
1.616,0.092864,0.28837,0.38086,0.5499,0.60547
1.624,0.092864,0.28641,0.38086,0.55479,0.61523
1.632,0.092864,0.28543,0.39062,0.55969,0.60938
1.64,0.090909,0.2825,0.40039,0.57534,0.60547
1.648,0.088954,0.28055,0.41602,0.59002,0.59961
1.656,0.084066,0.27761,0.42969,0.61546,0.5957
1.664,0.080156,0.2737,0.43945,0.62035,0.5957
1.672,0.074291,0.27077,0.42578,0.61546,0.59961
1.68,0.069404,0.26686,0.41602,0.6047,0.61523
1.688,0.063539,0.26295,0.4043,0.58513,0.61914
1.696,0.058651,0.26002,0.40039,0.57045,0.61523
1.704,0.053763,0.25611,0.39062,0.56458,0.625
1.712,0.048876,0.25318,0.375,0.55479,0.63477
1.72,0.043011,0.25122,0.35547,0.54501,0.64062
1.728,0.037146,0.25024,0.33984,0.53523,0.64453
1.736,0.031281,0.25122,0.33008,0.53033,0.64453
1.744,0.025415,0.25709,0.32422,0.53523,0.64453
1.752,0.021505,0.26979,0.33008,0.53523,0.64453
1.76,0.016618,0.29032,0.33984,0.53523,0.64062
1.768,0.013685,0.31867,0.33594,0.53033,0.64062
1.776,0.01173,0.35582,0.33984,0.53033,0.64062
1.784,0.0097752,0.3998,0.36523,0.56458,0.65039
1.792,0.0087977,0.44673,0.4043,0.6047,0.66406
1.8,0.0087977,0.49462,0.42969,0.59002,0.65039
1.808,0.0087977,0.53372,0.53906,0.55969,0.58008
1.816,0.01173,0.56696,0.66016,0.47456,0.36523
1.824,0.013685,0.59726,0.67969,0.4501,0.31055
1.832,0.018573,0.6217,0.43945,0.47456,0.60547
1.84,0.022483,0.6393,0.33594,0.5,0.73047
1.848,0.02737,0.64907,0.33984,0.50978,0.66016
1.856,0.031281,0.65103,0.33984,0.51957,0.625
1.864,0.037146,0.64614,0.33594,0.52544,0.625
1.872,0.042033,0.63539,0.33008,0.53523,0.63477
1.88,0.047898,0.62072,0.32422,0.53523,0.64062
1.888,0.054741,0.60117,0.32422,0.54012,0.64062
1.896,0.062561,0.57967,0.32422,0.54012,0.63477
1.904,0.070381,0.55523,0.33594,0.54012,0.63477
1.912,0.077224,0.53177,0.33984,0.53523,0.62891
1.92,0.084066,0.50929,0.33594,0.54012,0.62891
1.928,0.089932,0.48387,0.33984,0.54012,0.62891
1.936,0.096774,0.4565,0.33984,0.54012,0.61914
1.944,0.10362,0.43011,0.35547,0.54012,0.61523
1.952,0.10948,0.40469,0.36523,0.54501,0.60547
1.96,0.11535,0.38123,0.37109,0.54501,0.5957
1.968,0.12219,0.36168,0.38477,0.54501,0.58008
1.976,0.12708,0.34506,0.40039,0.5499,0.56445
1.984,0.13196,0.33138,0.41602,0.55479,0.55078
1.992,0.13685,0.32063,0.42578,0.56458,0.53906
2,0.14174,0.31378,0.43555,0.56458,0.5293
2.008,0.14565,0.3089,0.44922,0.57045,0.52539
2.016,0.14956,0.30694,0.45508,0.57534,0.51953
2.024,0.15347,0.30694,0.45508,0.58023,0.52539
2.032,0.15738,0.30694,0.45508,0.58513,0.51953
2.04,0.16129,0.30694,0.44922,0.59002,0.52539
2.048,0.1652,0.3089,0.44531,0.58513,0.53516
2.056,0.16911,0.30987,0.43555,0.58513,0.54492
2.064,0.17302,0.31085,0.41992,0.57534,0.55078
2.072,0.17595,0.31085,0.41016,0.57534,0.57031
2.08,0.17889,0.31085,0.39453,0.57045,0.58008
2.088,0.18084,0.30987,0.39062,0.57045,0.5957
2.096,0.18377,0.30792,0.375,0.56458,0.5957
2.104,0.18573,0.30694,0.375,0.55969,0.60938
2.112,0.18671,0.30596,0.375,0.55479,0.60938
2.12,0.18768,0.30499,0.375,0.55969,0.60938
2.128,0.18866,0.30303,0.375,0.55969,0.61523
2.136,0.18768,0.30205,0.38086,0.55969,0.60938
2.144,0.18671,0.3001,0.39062,0.55969,0.60547
2.152,0.18475,0.29814,0.38086,0.55969,0.60938
2.16,0.1828,0.29717,0.38086,0.55969,0.61523
2.168,0.18084,0.29521,0.375,0.55969,0.61523
2.176,0.17791,0.29326,0.38086,0.57045,0.61523
2.184,0.17595,0.29032,0.39453,0.58023,0.60938
2.192,0.17302,0.28739,0.41016,0.59002,0.60547
2.2,0.16813,0.28446,0.42578,0.61057,0.59961
2.208,0.16422,0.2825,0.43945,0.62524,0.5957
2.216,0.15836,0.28055,0.42969,0.61546,0.5957
2.224,0.15347,0.27761,0.41992,0.6047,0.60938
2.232,0.14761,0.27468,0.4043,0.58513,0.61914
2.24,0.14174,0.27175,0.40039,0.57045,0.60938
2.248,0.13685,0.26784,0.4043,0.57045,0.61914
2.256,0.13099,0.26491,0.38086,0.56458,0.62891
2.264,0.12512,0.26197,0.35938,0.54501,0.64062
2.272,0.12023,0.261,0.33984,0.54501,0.65039
2.28,0.11437,0.26295,0.32422,0.53523,0.65039
2.288,0.1085,0.26882,0.32422,0.54012,0.6543
2.296,0.10362,0.28152,0.33008,0.53523,0.65039
2.304,0.099707,0.29814,0.32422,0.53523,0.65039
2.312,0.095797,0.31965,0.32422,0.53033,0.65039
2.32,0.092864,0.35191,0.33008,0.53523,0.65039
2.328,0.091887,0.39198,0.34961,0.55969,0.6543
2.336,0.089932,0.43695,0.39453,0.6047,0.66992
2.344,0.089932,0.48289,0.42969,0.61546,0.67578
2.352,0.089932,0.52884,0.5,0.56458,0.61914
2.36,0.091887,0.56891,0.64062,0.5,0.41016
2.368,0.093842,0.60215,0.66992,0.45499,0.31055
2.376,0.096774,0.62757,0.49023,0.46967,0.53906
2.384,0.099707,0.64418,0.33984,0.49511,0.71484
2.392,0.10362,0.65298,0.33984,0.50978,0.66992
2.4,0.10753,0.65396,0.33984,0.51957,0.625
2.408,0.11241,0.64907,0.33984,0.53033,0.61914
2.416,0.1173,0.64125,0.33984,0.53033,0.62891
2.424,0.12414,0.62854,0.33594,0.53033,0.64062
2.432,0.13001,0.6129,0.32031,0.53033,0.64062
2.44,0.13881,0.59433,0.33008,0.53523,0.64062
2.448,0.14663,0.57283,0.33594,0.53523,0.62891
2.456,0.15543,0.54839,0.33594,0.54501,0.62891
2.464,0.16422,0.52297,0.33984,0.54012,0.625
2.472,0.17302,0.4956,0.3457,0.54501,0.61914
2.48,0.18182,0.46823,0.34961,0.54501,0.61914
2.488,0.18964,0.44184,0.35547,0.54501,0.61523
2.496,0.19746,0.41642,0.36523,0.54501,0.59961
2.504,0.20528,0.39589,0.375,0.5499,0.5957
2.512,0.2131,0.3783,0.38477,0.5499,0.58008
2.52,0.2219,0.3607,0.39453,0.5499,0.57031
2.528,0.23069,0.34604,0.4043,0.55969,0.56055
2.536,0.24047,0.33431,0.41992,0.55969,0.54492
2.544,0.25122,0.32551,0.43555,0.57045,0.53516
2.552,0.261,0.31965,0.44922,0.57045,0.52539
2.56,0.27175,0.31574,0.45508,0.57045,0.51953
2.568,0.28152,0.31378,0.46094,0.57534,0.51953
2.576,0.29228,0.31281,0.46484,0.58023,0.51562
2.584,0.30499,0.31378,0.46484,0.58023,0.51562
2.592,0.31769,0.31476,0.46094,0.58023,0.52539
2.6,0.33333,0.31672,0.44531,0.57534,0.5293
2.608,0.348,0.31769,0.43555,0.57534,0.54492
2.616,0.36559,0.31867,0.41992,0.57045,0.56055
2.624,0.38416,0.31965,0.4043,0.56458,0.57031
2.632,0.40371,0.31965,0.39062,0.55969,0.58008
2.64,0.42326,0.31867,0.39062,0.55479,0.5957
2.648,0.44184,0.31769,0.38477,0.5499,0.5957
2.656,0.46139,0.31574,0.38477,0.5499,0.5957
2.664,0.48094,0.31378,0.38477,0.5499,0.5957
2.672,0.49951,0.31183,0.38477,0.5499,0.5957
2.68,0.52102,0.3089,0.39062,0.54501,0.5957
2.688,0.54252,0.30694,0.39062,0.54501,0.5957
2.696,0.56598,0.30401,0.39062,0.54501,0.5957
2.704,0.58944,0.30205,0.39062,0.54501,0.5957
2.712,0.61095,0.30108,0.39062,0.54012,0.59961
2.72,0.63245,0.29912,0.39062,0.54501,0.59961
2.728,0.65298,0.29717,0.4043,0.55479,0.5957
2.736,0.67351,0.29423,0.41602,0.57045,0.5957
2.744,0.69599,0.2913,0.43555,0.59002,0.5957
2.752,0.71848,0.28837,0.46094,0.61057,0.58984
2.76,0.74194,0.28543,0.46094,0.61546,0.58398
2.768,0.76637,0.28152,0.43945,0.5998,0.58984
2.776,0.79179,0.27859,0.42578,0.58513,0.60938
2.784,0.81623,0.27468,0.41016,0.55479,0.60938
2.792,0.84066,0.27077,0.41016,0.5499,0.60938
2.8,0.86608,0.26784,0.39062,0.54501,0.61914
2.808,0.88759,0.26588,0.38086,0.53523,0.62891
2.816,0.91007,0.26588,0.35938,0.51957,0.64062
2.824,0.93157,0.26686,0.33984,0.51957,0.64453
2.832,0.9521,0.27273,0.33984,0.51468,0.64062
2.84,0.97458,0.28446,0.33984,0.51468,0.64062
2.848,0.99707,0.30303,0.33984,0.50978,0.64062
2.856,0.99902,0.33138,0.33594,0.51468,0.64062
2.864,1,0.36755,0.33984,0.51957,0.63477
2.872,1,0.41153,0.35547,0.51468,0.64062
2.88,1,0.45846,0.40039,0.58023,0.65039
2.888,1,0.50733,0.43555,0.5998,0.66406
2.896,1,0.55327,0.48438,0.57045,0.63477
2.904,1,0.59042,0.6543,0.5499,0.49023
2.912,1,0.61877,0.73438,0.48043,0.30078
2.92,1,0.64516,0.60938,0.41977,0.39062
2.928,1,0.66471,0.39062,0.42955,0.64062
2.936,1,0.67644,0.35547,0.46967,0.67578
2.944,1,0.68133,0.33984,0.49511,0.62891
2.952,1,0.67937,0.33594,0.50978,0.625
2.96,1,0.67253,0.33594,0.51957,0.62891
2.968,1,0.66178,0.33008,0.51957,0.63477
2.976,1,0.64712,0.32422,0.51957,0.64062
2.984,1,0.62952,0.32422,0.51957,0.64062
2.992,1,0.60899,0.32422,0.51957,0.64062
3,1,0.58749,0.32422,0.51957,0.64062
3.008,1,0.56598,0.33008,0.53033,0.63477
3.016,1,0.54448,0.33008,0.53033,0.62891
3.024,1,0.52004,0.33594,0.54012,0.625
3.032,1,0.49462,0.33984,0.54012,0.61914
3.04,1,0.46823,0.35547,0.54501,0.61523
3.048,1,0.44379,0.36523,0.54501,0.5957
3.056,1,0.42131,0.375,0.54501,0.5957
3.064,1,0.40078,0.38086,0.5499,0.58398
3.072,1,0.38416,0.39062,0.55479,0.57422
3.08,1,0.37048,0.39453,0.56458,0.56445
3.088,1,0.3607,0.41016,0.57045,0.54492
3.096,1,0.35386,0.42578,0.57534,0.53906
3.104,1,0.34995,0.42969,0.57045,0.53516
3.112,1,0.34897,0.43555,0.58023,0.5293
3.12,1,0.348,0.43555,0.58513,0.5293
3.128,1,0.348,0.43555,0.58513,0.53516
3.136,1,0.34995,0.43555,0.58513,0.53906
3.144,1,0.35093,0.43555,0.57534,0.53906
3.152,1,0.35288,0.41992,0.57045,0.55078
3.16,1,0.35484,0.41016,0.57045,0.56445
3.168,1,0.35582,0.39453,0.55969,0.57422
3.176,1,0.35582,0.38477,0.55479,0.58984
3.184,1,0.35679,0.375,0.55479,0.59961
3.192,1,0.35582,0.375,0.5499,0.61523
3.2,1,0.35582,0.37109,0.5499,0.61914
3.208,1,0.35582,0.37109,0.5499,0.61914
3.216,1,0.35484,0.37109,0.54501,0.61914
3.224,1,0.35386,0.37109,0.54501,0.61914
3.232,1,0.35191,0.37109,0.54501,0.61914
3.24,1,0.34995,0.38086,0.54501,0.61523
3.248,1,0.348,0.38086,0.54501,0.61523
3.256,1,0.34506,0.38477,0.54501,0.61523
3.264,1,0.34213,0.38477,0.54501,0.60938
3.272,1,0.34018,0.39062,0.55479,0.60938
3.28,1,0.33724,0.41016,0.57045,0.60547
3.288,1,0.33529,0.42578,0.58513,0.59961
3.296,1,0.33236,0.44922,0.61057,0.5957
3.304,1,0.32942,0.46094,0.61546,0.5957
3.312,1,0.32747,0.43555,0.5998,0.5957
3.32,1,0.32454,0.41992,0.59002,0.61523
3.328,1,0.3216,0.41016,0.56458,0.61914
3.336,1,0.31769,0.4043,0.54501,0.61914
3.344,1,0.31378,0.39453,0.54501,0.61914
3.352,1,0.31085,0.38086,0.54012,0.625
3.36,1,0.3089,0.35938,0.53033,0.63477
3.368,1,0.31183,0.33008,0.51957,0.64453
3.376,1,0.31867,0.33008,0.51957,0.64453
3.384,1,0.33431,0.32422,0.51957,0.64453
3.392,1,0.35777,0.32422,0.51957,0.64453
3.4,1,0.39101,0.32422,0.51957,0.64453
3.408,1,0.4262,0.32031,0.51957,0.64453
3.416,1,0.46334,0.32422,0.53033,0.64453
3.424,1,0.50929,0.37109,0.57534,0.6543
3.432,1,0.55816,0.41016,0.61057,0.66992
3.44,1,0.60606,0.45508,0.61546,0.6543
3.448,1,0.64907,0.59961,0.57534,0.56445
3.456,1,0.68622,0.7207,0.5,0.34961
3.464,1,0.71359,0.72461,0.44031,0.31055
3.472,1,0.73314,0.41602,0.41977,0.58984
3.48,1,0.74487,0.33984,0.46967,0.67969
3.488,1,0.74878,0.32422,0.5,0.64453
3.496,1,0.74682,0.31055,0.51957,0.64062
3.504,1,0.74096,0.31445,0.52544,0.64062
3.512,1,0.73216,0.31055,0.53033,0.64062
3.52,1,0.72043,0.30469,0.53523,0.6543
3.528,1,0.70577,0.31055,0.53523,0.6543
3.536,1,0.68817,0.30469,0.54501,0.65039
3.544,1,0.66862,0.31055,0.54012,0.65039
3.552,1,0.64712,0.30469,0.54501,0.65039
3.56,1,0.6217,0.30469,0.5499,0.64453
3.568,1,0.59531,0.31445,0.5499,0.64062
3.576,1,0.56696,0.32031,0.55479,0.62891
3.584,1,0.53763,0.32422,0.55479,0.625
3.592,1,0.50831,0.33984,0.56458,0.61523
3.6,1,0.47996,0.34961,0.56458,0.60547
3.608,1,0.45748,0.35938,0.57045,0.5957
3.616,1,0.43793,0.36523,0.57045,0.58398
3.624,1,0.42033,0.38086,0.57045,0.57031
3.632,1,0.40469,0.39062,0.57534,0.56055
3.64,1,0.39198,0.40039,0.58513,0.54492
3.648,1,0.38319,0.41602,0.59002,0.54492
3.656,0.98631,0.37732,0.41992,0.5998,0.53906
3.664,0.97263,0.37341,0.41602,0.59491,0.53906
3.672,0.95699,0.37243,0.41602,0.59491,0.53906
3.68,0.94233,0.37146,0.41992,0.5998,0.54492
3.688,0.92766,0.37243,0.41602,0.59491,0.54492
3.696,0.91398,0.37243,0.4043,0.58513,0.55078
3.704,0.89834,0.37341,0.39453,0.58023,0.56445
3.712,0.88368,0.37243,0.38477,0.57045,0.57422
3.72,0.86706,0.37146,0.38086,0.57045,0.58398
3.728,0.85142,0.3695,0.375,0.57045,0.5957
3.736,0.8348,0.36755,0.375,0.56458,0.59961
3.744,0.81818,0.36461,0.37109,0.56458,0.60938
3.752,0.80156,0.36168,0.36523,0.55969,0.61523
3.76,0.78495,0.35777,0.36523,0.56458,0.61914
3.768,0.76931,0.35484,0.36523,0.55969,0.61914
3.776,0.75367,0.35093,0.36523,0.56458,0.61914
3.784,0.739,0.348,0.36523,0.55969,0.61914
3.792,0.72434,0.34409,0.36523,0.55969,0.61914
3.8,0.70674,0.34018,0.375,0.55969,0.61914
3.808,0.68915,0.33822,0.38086,0.55969,0.61523
3.816,0.6696,0.33529,0.39062,0.56458,0.60938
3.824,0.65005,0.33236,0.40039,0.58023,0.60547
3.832,0.6305,0.32942,0.41992,0.59002,0.59961
3.84,0.61193,0.32649,0.42969,0.61546,0.60547
3.848,0.59335,0.32258,0.43945,0.62524,0.5957
3.856,0.57478,0.31867,0.42969,0.61546,0.5957
3.864,0.55327,0.31476,0.41602,0.5998,0.60938
3.872,0.53177,0.31085,0.40039,0.57534,0.61914
3.88,0.50733,0.30694,0.39453,0.55969,0.61914
3.888,0.48387,0.30303,0.39062,0.55479,0.625
3.896,0.45943,0.29912,0.375,0.5499,0.62891
3.904,0.43402,0.29619,0.35547,0.54501,0.64453
3.912,0.40958,0.29619,0.33594,0.53033,0.65039
3.92,0.38416,0.29912,0.33594,0.53033,0.64453
3.928,0.36364,0.30792,0.33008,0.52544,0.64453
3.936,0.34213,0.32454,0.33594,0.52544,0.64453
3.944,0.32454,0.34897,0.33594,0.52544,0.64062
3.952,0.30694,0.38319,0.33594,0.52544,0.64062
3.96,0.29032,0.42424,0.33984,0.52544,0.64062
3.968,0.2737,0.47116,0.35938,0.56458,0.64453
3.976,0.25806,0.51906,0.40039,0.5998,0.66992
3.984,0.24242,0.56598,0.43555,0.6047,0.6543
3.992,0.22972,0.60802,0.54492,0.55969,0.58984
4,0.21701,0.64321,0.68555,0.48532,0.37109
4.008,0.20626,0.66667,0.69922,0.4501,0.31055
4.016,0.19648,0.68231,0.44922,0.44521,0.58398
4.024,0.18671,0.69306,0.33984,0.48532,0.70898
4.032,0.17791,0.69795,0.33594,0.5,0.66016
4.04,0.16911,0.69697,0.32422,0.51957,0.63477
4.048,0.16129,0.6911,0.32422,0.52544,0.63477
4.056,0.15445,0.68133,0.32031,0.53523,0.64062
4.064,0.14761,0.66764,0.31445,0.53523,0.65039
4.072,0.14174,0.65103,0.31055,0.53523,0.6543
4.08,0.13587,0.63148,0.31445,0.53523,0.64062
4.088,0.13099,0.60997,0.32031,0.54012,0.64062
4.096,0.1261,0.58553,0.32031,0.54012,0.63477
4.104,0.12121,0.56207,0.32031,0.54012,0.63477
4.112,0.1173,0.53959,0.33008,0.54501,0.62891
4.12,0.11241,0.5132,0.33594,0.54501,0.625
4.128,0.10753,0.48485,0.34961,0.54501,0.60938
4.136,0.10166,0.45748,0.37109,0.54501,0.5957
4.144,0.096774,0.43109,0.38086,0.5499,0.58398
4.152,0.091887,0.40665,0.39062,0.55479,0.58008
4.16,0.086999,0.38514,0.40039,0.55969,0.56445
4.168,0.081134,0.36755,0.41602,0.56458,0.55078
4.176,0.076246,0.35288,0.42578,0.57045,0.53906
4.184,0.071359,0.34213,0.43555,0.57045,0.5293
4.192,0.065494,0.33431,0.43555,0.57534,0.52539
4.2,0.058651,0.3304,0.44922,0.57534,0.51953
4.208,0.052786,0.32845,0.45508,0.58023,0.52539
4.216,0.046921,0.32747,0.45508,0.58023,0.52539
4.224,0.041056,0.32649,0.44922,0.58513,0.52539
4.232,0.035191,0.32747,0.44531,0.58023,0.5293
4.24,0.029326,0.32747,0.43555,0.58513,0.54492
4.248,0.024438,0.32747,0.41992,0.57534,0.55078
4.256,0.01955,0.32454,0.41016,0.57534,0.56445
4.264,0.01564,0.3216,0.39453,0.57045,0.58008
4.272,0.01173,0.31867,0.39062,0.57045,0.58984
4.28,0.0078201,0.31672,0.38086,0.56458,0.5957
4.288,0.0029325,0.31378,0.375,0.55969,0.59961
4.296,0.00097752,0.31085,0.38086,0.55479,0.60547
4.304,0,0.3089,0.38477,0.55479,0.60547
4.312,0,0.30694,0.39062,0.55479,0.60547
4.32,0,0.30401,0.39062,0.55479,0.59961
4.328,0,0.30108,0.39453,0.55479,0.59961
4.336,0,0.29717,0.39453,0.55479,0.60547
4.344,0,0.29326,0.39062,0.54501,0.60547
4.352,0,0.29032,0.39062,0.5499,0.60547
4.36,0,0.28641,0.40039,0.55479,0.60547
4.368,0,0.28348,0.41602,0.56458,0.60547
4.376,0,0.27957,0.41992,0.58023,0.59961
4.384,0,0.27468,0.43555,0.59491,0.59961
4.392,0,0.27077,0.46094,0.61057,0.5957
4.4,0,0.26784,0.44922,0.5998,0.58984
4.408,0,0.26491,0.43555,0.59002,0.59961
4.416,0,0.261,0.41602,0.57045,0.60938
4.424,0,0.25611,0.41016,0.5499,0.60938
4.432,0,0.25122,0.40039,0.54501,0.60547
4.44,0,0.24536,0.39062,0.54501,0.61914
4.448,0,0.24047,0.37109,0.53033,0.625
4.456,0,0.23754,0.35547,0.51957,0.63477
4.464,0,0.23754,0.33984,0.51957,0.64062
4.472,0,0.24145,0.33984,0.51468,0.64453
4.48,0,0.25318,0.33984,0.50978,0.64062
4.488,0,0.27175,0.33984,0.50978,0.64062
4.496,0,0.29912,0.33984,0.51468,0.64062
4.504,0,0.32942,0.33984,0.50978,0.64062
4.512,0,0.36168,0.35547,0.53523,0.64453
4.52,0,0.40274,0.39453,0.57534,0.66406
4.528,0,0.4477,0.42969,0.58513,0.65039
4.536,0,0.49169,0.5,0.54501,0.61523
4.544,0,0.53177,0.6543,0.48043,0.4043
4.552,0,0.56598,0.69531,0.43542,0.31055
4.56,0,0.5914,0.5,0.45499,0.53516
4.568,0,0.60899,0.3457,0.48043,0.7207
4.576,0,0.61779,0.34961,0.49511,0.66406
4.584,0,0.61975,0.3457,0.50489,0.625
4.592,0,0.61584,0.33984,0.51468,0.61914
4.6,0,0.60802,0.33984,0.51957,0.625
4.608,0,0.59726,0.33984,0.51957,0.62891
4.616,0,0.58162,0.33594,0.51957,0.63477
4.624,0,0.56403,0.33984,0.52544,0.63477
4.632,0,0.54252,0.33594,0.51957,0.62891
4.64,0,0.52004,0.33984,0.51957,0.625
4.648,0,0.49462,0.33984,0.52544,0.61914
4.656,0,0.46921,0.33984,0.53033,0.61914
4.664,0,0.44184,0.33984,0.53523,0.61523
4.672,0,0.41544,0.35547,0.53523,0.60547
4.68,0,0.39003,0.36523,0.53523,0.5957
4.688,0,0.36657,0.375,0.54012,0.58984
4.696,0,0.34604,0.39062,0.54012,0.57031
4.704,0,0.32942,0.40039,0.54501,0.56445
4.712,0.0048876,0.31769,0.41602,0.54501,0.55078
4.72,0.010753,0.30694,0.42578,0.5499,0.54492
4.728,0.014663,0.29814,0.43555,0.55479,0.5293
4.736,0.01955,0.29228,0.44531,0.55969,0.52539
4.744,0.024438,0.28837,0.45508,0.56458,0.51953
4.752,0.028348,0.28641,0.46094,0.56458,0.51953
4.76,0.032258,0.28641,0.46094,0.57045,0.52539
4.768,0.036168,0.28739,0.46094,0.57045,0.52539
4.776,0.040078,0.28935,0.46094,0.57045,0.52539
4.784,0.043988,0.2913,0.44922,0.57045,0.53516
4.792,0.047898,0.29326,0.43945,0.56458,0.54492
4.8,0.050831,0.29423,0.41992,0.55479,0.56055
4.808,0.054741,0.29619,0.41016,0.55969,0.57422
4.816,0.057674,0.29619,0.40039,0.5499,0.58008
4.824,0.060606,0.29521,0.39062,0.54501,0.58984
4.832,0.063539,0.29423,0.39062,0.54012,0.5957
4.84,0.065494,0.29326,0.38477,0.54501,0.5957
4.848,0.067449,0.29228,0.39062,0.54012,0.5957
4.856,0.068426,0.2913,0.39062,0.54012,0.5957
4.864,0.069404,0.28935,0.39062,0.54012,0.5957
4.872,0.070381,0.28837,0.39062,0.54012,0.5957
4.88,0.070381,0.28739,0.39062,0.54012,0.59961
4.888,0.070381,0.28543,0.39062,0.54012,0.60547
4.896,0.070381,0.28446,0.39062,0.54012,0.60547
4.904,0.069404,0.2825,0.38477,0.54501,0.60938
4.912,0.068426,0.28152,0.40039,0.55479,0.60547
4.92,0.065494,0.27957,0.41602,0.57045,0.59961
4.928,0.062561,0.27761,0.42969,0.58513,0.5957
4.936,0.058651,0.2737,0.44531,0.6047,0.5957
4.944,0.053763,0.27077,0.43945,0.61057,0.5957
4.952,0.048876,0.26686,0.42578,0.59002,0.59961
4.96,0.044966,0.26295,0.41602,0.57045,0.60938
4.968,0.040078,0.25904,0.41016,0.54501,0.60547
4.976,0.035191,0.25513,0.4043,0.54501,0.60938
4.984,0.029326,0.25122,0.38477,0.54012,0.625
4.992,0.024438,0.24829,0.36523,0.53523,0.63477
5,0.017595,0.24536,0.3457,0.51957,0.64062
5.008,0.010753,0.24633,0.33594,0.51957,0.64453
5.016,0.0048876,0.24927,0.33594,0.51468,0.64453
5.024,0,0.25709,0.33594,0.51468,0.64453
5.032,0,0.27273,0.33594,0.50978,0.64062
5.04,0,0.29619,0.33594,0.50978,0.64453
5.048,0,0.32747,0.33594,0.50978,0.64062
5.056,0,0.36559,0.34961,0.52544,0.64062
5.064,0,0.40958,0.39062,0.56458,0.6543
5.072,0,0.45552,0.42969,0.58513,0.66406
5.08,0,0.50049,0.46484,0.54012,0.62891
5.088,0,0.54057,0.62891,0.5,0.45508
5.096,0,0.57576,0.68555,0.43542,0.30078
5.104,0,0.59922,0.55469,0.44521,0.46094
5.112,0,0.61584,0.35547,0.46967,0.70508
5.12,0,0.62659,0.33984,0.49511,0.71484
5.128,0,0.6305,0.33984,0.50489,0.63477
5.136,0,0.62952,0.33984,0.51468,0.625
5.144,0.001955,0.62268,0.33594,0.51957,0.63477
5.152,0.0048876,0.61193,0.32422,0.51957,0.64062
5.16,0.010753,0.59629,0.33008,0.53033,0.63477
5.168,0.01564,0.57869,0.33008,0.52544,0.62891
5.176,0.021505,0.55718,0.33008,0.53033,0.625
5.184,0.026393,0.5347,0.33594,0.53033,0.625
5.192,0.032258,0.50929,0.33984,0.53033,0.625
5.2,0.037146,0.4868,0.33984,0.53523,0.61914
5.208,0.042033,0.4653,0.3457,0.53523,0.61914
5.216,0.046921,0.44086,0.3457,0.53523,0.61523
5.224,0.050831,0.41153,0.36523,0.54012,0.59961
5.232,0.055718,0.38612,0.375,0.53523,0.58984
5.24,0.058651,0.36852,0.39062,0.54012,0.58008
5.248,0.062561,0.35191,0.39453,0.54012,0.57031
5.256,0.064516,0.33724,0.4043,0.54501,0.56055
5.264,0.067449,0.32551,0.41602,0.54501,0.54492
5.272,0.070381,0.31672,0.42969,0.55969,0.5293
5.28,0.073314,0.31085,0.43945,0.55969,0.52539
5.288,0.075269,0.30792,0.44922,0.57045,0.51953
5.296,0.078201,0.30596,0.45508,0.57045,0.52539
5.304,0.080156,0.30499,0.45508,0.57045,0.52539
5.312,0.082111,0.30596,0.44922,0.57045,0.52539
5.32,0.084066,0.30694,0.44531,0.57045,0.5293
5.328,0.086022,0.30792,0.43945,0.57534,0.53906
5.336,0.086999,0.3089,0.42969,0.57045,0.54492
5.344,0.087977,0.30987,0.41602,0.56458,0.55469
5.352,0.088954,0.30987,0.39453,0.55969,0.57031
5.36,0.089932,0.30987,0.39062,0.56458,0.58398
5.368,0.090909,0.3089,0.38477,0.55969,0.58984
5.376,0.092864,0.30792,0.38086,0.5499,0.5957
5.384,0.093842,0.30694,0.38086,0.5499,0.59961
5.392,0.095797,0.30499,0.38477,0.54501,0.59961
5.4,0.095797,0.30401,0.38086,0.54501,0.59961
5.408,0.096774,0.30303,0.38477,0.54501,0.60547
5.416,0.096774,0.30108,0.38086,0.54501,0.60547
5.424,0.096774,0.29814,0.38477,0.54501,0.60547
5.432,0.096774,0.29619,0.38477,0.54501,0.60938
5.44,0.096774,0.29423,0.38477,0.54501,0.60938
5.448,0.096774,0.29228,0.38477,0.54501,0.61523
5.456,0.096774,0.29032,0.39453,0.55969,0.60938
5.464,0.094819,0.28739,0.41016,0.57045,0.60547
5.472,0.092864,0.28446,0.41602,0.59002,0.60547
5.48,0.089932,0.28152,0.43945,0.61546,0.5957
5.488,0.086999,0.27859,0.43555,0.61057,0.5957
5.496,0.082111,0.27566,0.41992,0.59491,0.60547
5.504,0.077224,0.2737,0.41016,0.58023,0.61523
5.512,0.071359,0.27273,0.39062,0.5499,0.61523
5.52,0.065494,0.27077,0.39062,0.54501,0.61914
5.528,0.060606,0.26784,0.38086,0.54501,0.625
5.536,0.055718,0.26491,0.36523,0.53523,0.63477
5.544,0.050831,0.26295,0.33594,0.52544,0.65039
5.552,0.046921,0.26197,0.33008,0.51957,0.64453
5.56,0.043011,0.26491,0.32422,0.51957,0.64453
5.568,0.039101,0.27273,0.32422,0.51468,0.64453
5.576,0.035191,0.28837,0.33594,0.51468,0.64453
5.584,0.032258,0.31085,0.32422,0.51957,0.64453
5.592,0.029326,0.34311,0.32031,0.51957,0.65039
5.6,0.02737,0.37537,0.33594,0.52544,0.64453
5.608,0.02737,0.41056,0.38477,0.56458,0.66016
5.616,0.026393,0.45259,0.41992,0.59491,0.66406
5.624,0.02737,0.49658,0.44922,0.55479,0.64062
5.632,0.029326,0.53959,0.61523,0.52544,0.49023
5.64,0.032258,0.57771,0.69531,0.44521,0.29492
5.648,0.035191,0.60899,0.60547,0.42955,0.39062
5.656,0.039101,0.63148,0.38086,0.45988,0.66406
5.664,0.043011,0.64614,0.3457,0.49022,0.70898
5.672,0.047898,0.652,0.33984,0.5,0.64062
5.68,0.052786,0.65103,0.33594,0.51957,0.625
5.688,0.057674,0.64418,0.33984,0.52544,0.62891
5.696,0.062561,0.63343,0.33594,0.53033,0.63477
5.704,0.067449,0.61975,0.33008,0.53523,0.64062
5.712,0.072336,0.60411,0.33008,0.53033,0.63477
5.72,0.078201,0.58553,0.33008,0.53033,0.63477
5.728,0.083089,0.56403,0.33008,0.53523,0.63477
5.736,0.088954,0.53959,0.32422,0.53033,0.63477
5.744,0.094819,0.51417,0.33008,0.54012,0.62891
5.752,0.099707,0.48778,0.33984,0.54012,0.61914
5.76,0.10459,0.46139,0.34961,0.54012,0.61523
5.768,0.1085,0.435,0.36523,0.54012,0.60547
5.776,0.11241,0.41056,0.37109,0.54501,0.5957
5.784,0.11632,0.38807,0.38086,0.54501,0.58398
5.792,0.12023,0.3695,0.39453,0.5499,0.57031
5.8,0.12317,0.35386,0.4043,0.5499,0.56055
5.808,0.1261,0.34311,0.41602,0.55479,0.54492
5.816,0.12708,0.33333,0.42578,0.55969,0.53906
5.824,0.12903,0.32551,0.43555,0.57045,0.5293
5.832,0.13001,0.32063,0.44922,0.57045,0.52539
5.84,0.13099,0.31672,0.45508,0.57045,0.51953
5.848,0.13196,0.31476,0.46094,0.57534,0.51562
5.856,0.13294,0.31378,0.46094,0.57534,0.51953
5.864,0.13392,0.31476,0.46094,0.58513,0.51953
5.872,0.1349,0.31476,0.46094,0.58023,0.52539
5.88,0.13685,0.31476,0.44922,0.57045,0.5293
5.888,0.13881,0.31476,0.43555,0.57045,0.54492
5.896,0.14076,0.31476,0.41992,0.57045,0.56055
5.904,0.14272,0.31476,0.41016,0.56458,0.57031
5.912,0.14467,0.31378,0.40039,0.55479,0.58008
5.92,0.14663,0.31281,0.39453,0.5499,0.58984
5.928,0.14956,0.31085,0.39062,0.5499,0.5957
5.936,0.15152,0.3089,0.39062,0.5499,0.5957
5.944,0.15445,0.30596,0.39453,0.5499,0.5957
5.952,0.15836,0.30303,0.40039,0.54501,0.58984
5.96,0.16325,0.3001,0.40039,0.54501,0.5957
5.968,0.16716,0.29717,0.40039,0.54012,0.5957
5.976,0.17302,0.29423,0.41016,0.54501,0.58984
5.984,0.17889,0.29032,0.4043,0.54501,0.5957
5.992,0.18573,0.28739,0.4043,0.54501,0.5957
6,0.19257,0.28446,0.41602,0.54501,0.5957
6.008,0.19941,0.2825,0.42578,0.57045,0.5957
6.016,0.20528,0.27957,0.43555,0.58023,0.5957
6.024,0.21212,0.27664,0.45508,0.5998,0.58398
6.032,0.21799,0.27273,0.47461,0.6047,0.57031
6.04,0.22581,0.26979,0.46094,0.59491,0.57422
6.048,0.23265,0.26686,0.43945,0.58513,0.5957
6.056,0.24145,0.26295,0.41992,0.55969,0.59961
6.064,0.25024,0.26002,0.41992,0.54501,0.5957
6.072,0.25904,0.25709,0.41016,0.54501,0.60547
6.08,0.26784,0.25415,0.40039,0.54012,0.61523
6.088,0.27664,0.2522,0.38086,0.53523,0.61914
6.096,0.28641,0.2522,0.35938,0.51957,0.62891
6.104,0.29912,0.25611,0.35547,0.51468,0.62891
6.112,0.31183,0.26393,0.34961,0.51468,0.63477
6.12,0.32747,0.27957,0.34961,0.51468,0.63477
6.128,0.34311,0.30303,0.3457,0.51468,0.63477
6.136,0.36266,0.33529,0.3457,0.51957,0.62891
6.144,0.38319,0.37537,0.35547,0.51957,0.62891
6.152,0.40567,0.42131,0.39453,0.55479,0.63477
6.16,0.42815,0.47116,0.42969,0.59002,0.6543
6.168,0.45064,0.52004,0.46484,0.57534,0.64062
6.176,0.47312,0.565,0.5957,0.54501,0.55469
6.184,0.4956,0.60313,0.72461,0.48043,0.33594
6.192,0.51711,0.63441,0.74023,0.43542,0.27539
6.2,0.5435,0.65494,0.45508,0.41487,0.55078
6.208,0.56989,0.66667,0.36523,0.45988,0.66406
6.216,0.59824,0.67253,0.3457,0.48043,0.62891
6.224,0.62757,0.67449,0.33984,0.50978,0.61914
6.232,0.65494,0.67058,0.3457,0.51957,0.61914
6.24,0.68231,0.66276,0.33984,0.51957,0.62891
6.248,0.70772,0.64516,0.32422,0.51957,0.64062
6.256,0.73412,0.62757,0.32422,0.52544,0.64062
6.264,0.76149,0.6129,0.32422,0.51957,0.64062
6.272,0.78983,0.59335,0.33008,0.52544,0.63477
6.28,0.82014,0.57185,0.33008,0.52544,0.63477
6.288,0.85044,0.54741,0.33594,0.53523,0.63477
6.296,0.88172,0.52395,0.33594,0.54012,0.62891
6.304,0.91202,0.5132,0.33984,0.53523,0.625
6.312,0.94233,0.5044,0.3457,0.54012,0.61523
6.32,0.97263,0.48583,0.35547,0.54012,0.60938
6.328,0.98631,0.46334,0.36523,0.54012,0.59961
6.336,1,0.44184,0.375,0.54501,0.5957
6.344,1,0.42131,0.39062,0.5499,0.58008
6.352,1,0.40469,0.39453,0.5499,0.57031
6.36,1,0.39198,0.41016,0.55969,0.55469
6.368,1,0.38221,0.41992,0.56458,0.54492
6.376,1,0.37634,0.42969,0.57045,0.53906
6.384,1,0.37243,0.43555,0.57045,0.53516
6.392,1,0.37146,0.42969,0.57534,0.53516
6.4,1,0.37243,0.43555,0.57534,0.5293
6.408,1,0.37341,0.42969,0.57534,0.53906
6.416,1,0.37634,0.42969,0.57045,0.54492
6.424,1,0.3783,0.42578,0.56458,0.55078
6.432,1,0.38025,0.41602,0.55969,0.55469
6.44,1,0.38221,0.4043,0.55479,0.57031
6.448,1,0.38221,0.39062,0.5499,0.58008
6.456,1,0.38123,0.39062,0.5499,0.5957
6.464,1,0.38025,0.39062,0.54501,0.59961
6.472,1,0.3783,0.38086,0.54501,0.60547
6.48,1,0.37634,0.38086,0.54012,0.60938
6.488,1,0.37439,0.375,0.54012,0.61523
6.496,1,0.37341,0.375,0.54501,0.61523
6.504,1,0.37243,0.375,0.54012,0.61523
6.512,1,0.37146,0.38086,0.53523,0.60938
6.52,1,0.37048,0.375,0.53523,0.61914
6.528,1,0.36852,0.375,0.53523,0.61914
6.536,1,0.36657,0.375,0.53523,0.61914
6.544,1,0.36364,0.38086,0.54501,0.61914
6.552,1,0.3607,0.39453,0.5499,0.61914
6.56,1,0.35875,0.41602,0.57045,0.61523
6.568,1,0.35582,0.42969,0.59002,0.60938
6.576,1,0.35288,0.44922,0.6047,0.59961
6.584,1,0.34995,0.43945,0.59002,0.5957
6.592,1,0.34702,0.42578,0.58023,0.60938
6.6,1,0.34506,0.41016,0.55479,0.61914
6.608,1,0.34213,0.40039,0.54012,0.61914
6.616,1,0.33822,0.39062,0.53523,0.61914
6.624,1,0.33431,0.38086,0.53523,0.63477
6.632,1,0.3304,0.35547,0.51957,0.64062
6.64,1,0.32942,0.33594,0.51468,0.6543
6.648,1,0.33333,0.33008,0.50489,0.65039
6.656,1,0.34311,0.32422,0.50489,0.6543
6.664,1,0.36168,0.32031,0.50489,0.6543
6.672,1,0.39101,0.32031,0.50978,0.6543
6.68,1,0.42913,0.32031,0.50978,0.65039
6.688,1,0.47703,0.32031,0.50978,0.6543
6.696,1,0.52199,0.3457,0.53523,0.66016
6.704,1,0.56696,0.39453,0.58513,0.66992
6.712,1,0.61681,0.43945,0.59491,0.66016
6.72,1,0.66667,0.51953,0.55479,0.61914
6.728,1,0.71163,0.68945,0.50489,0.41992
6.736,1,0.74878,0.72461,0.43542,0.30078
6.744,1,0.77615,0.49414,0.37965,0.49414
6.752,1,0.79472,0.33984,0.41977,0.67578
6.76,1,0.8045,0.33008,0.46967,0.66016
6.768,1,0.80645,0.31445,0.49022,0.64062
6.776,1,0.80156,0.31055,0.50489,0.64453
6.784,1,0.79277,0.30469,0.51468,0.6543
6.792,1,0.77908,0.29492,0.51468,0.66016
6.8,1,0.76344,0.29492,0.51468,0.66016
6.808,1,0.74585,0.30469,0.51957,0.66016
6.816,1,0.72532,0.30469,0.51957,0.6543
6.824,1,0.70186,0.30078,0.51957,0.65039
6.832,1,0.67546,0.30469,0.51957,0.65039
6.84,1,0.64712,0.31055,0.51957,0.65039
6.848,1,0.61779,0.31055,0.53033,0.64453
6.856,1,0.58651,0.32031,0.54012,0.63477
6.864,1,0.55621,0.33008,0.54012,0.61914
6.872,1,0.52688,0.33984,0.54501,0.61523
6.88,1,0.50049,0.33984,0.54501,0.60547
6.888,1,0.47605,0.35547,0.5499,0.5957
6.896,1,0.4565,0.36523,0.55479,0.58984
6.904,1,0.44184,0.375,0.55479,0.57422
6.912,1,0.42913,0.39062,0.55969,0.56055
6.92,1,0.41935,0.4043,0.57045,0.55078
6.928,1,0.41153,0.41602,0.57045,0.54492
6.936,1,0.40567,0.41602,0.57045,0.54492
6.944,1,0.40274,0.41602,0.57534,0.54492
6.952,1,0.40176,0.41602,0.57534,0.55078
6.96,1,0.40176,0.41602,0.57045,0.55469
6.968,1,0.40078,0.4043,0.57045,0.56055
6.976,1,0.40078,0.39453,0.56458,0.57031
6.984,1,0.3998,0.39062,0.55969,0.58008
6.992,1,0.39883,0.375,0.55479,0.5957
7,0.99609,0.39687,0.37109,0.55479,0.59961
7.008,0.99218,0.39589,0.36523,0.55479,0.60938
7.016,0.97556,0.39296,0.35938,0.5499,0.61914
7.024,0.95992,0.39003,0.35547,0.5499,0.61914
7.032,0.94428,0.38612,0.34961,0.54501,0.625
7.04,0.92864,0.38221,0.34961,0.54012,0.625
7.048,0.91398,0.37732,0.34961,0.54012,0.62891
7.056,0.89834,0.37341,0.36523,0.54501,0.61914
7.064,0.88172,0.3695,0.36523,0.54012,0.61523
7.072,0.86413,0.36559,0.36523,0.54012,0.61523
7.08,0.84555,0.36168,0.36523,0.54012,0.61914
7.088,0.82698,0.35679,0.36523,0.54501,0.61914
7.096,0.80547,0.35288,0.38086,0.55479,0.61523
7.104,0.78397,0.34995,0.40039,0.57534,0.61523
7.112,0.76149,0.34506,0.41602,0.59002,0.60938
7.12,0.73803,0.34115,0.43555,0.6047,0.59961
7.128,0.71554,0.33627,0.43945,0.59491,0.5957
7.136,0.69404,0.33138,0.41602,0.59002,0.61523
7.144,0.67155,0.32747,0.39453,0.57045,0.625
7.152,0.65005,0.32258,0.38477,0.54501,0.61914
7.16,0.62659,0.31769,0.38086,0.54501,0.625
7.168,0.60411,0.31281,0.36523,0.54501,0.63477
7.176,0.57967,0.30792,0.35547,0.53033,0.64062
7.184,0.55523,0.30596,0.33594,0.51957,0.64453
7.192,0.53372,0.30792,0.32031,0.51468,0.6543
7.2,0.51222,0.31281,0.32031,0.50978,0.65039
7.208,0.49267,0.32356,0.32031,0.50978,0.6543
7.216,0.4741,0.34213,0.32031,0.50978,0.6543
7.224,0.45552,0.37146,0.31445,0.51468,0.6543
7.232,0.43695,0.41056,0.32031,0.51957,0.64453
7.24,0.41838,0.45846,0.33594,0.54012,0.65039
7.248,0.3998,0.51124,0.38086,0.57534,0.66406
7.256,0.38319,0.565,0.42578,0.59002,0.66992
7.264,0.36657,0.61584,0.4707,0.54501,0.62891
7.272,0.35093,0.66667,0.65039,0.50489,0.44531
7.28,0.33529,0.70674,0.68945,0.44031,0.30469
7.288,0.32258,0.72923,0.5293,0.42955,0.49023
7.296,0.30987,0.74291,0.34961,0.45988,0.69922
7.304,0.29912,0.74976,0.33984,0.49022,0.70508
7.312,0.28935,0.75073,0.33594,0.50489,0.62891
7.32,0.28055,0.74585,0.33008,0.51468,0.62891
7.328,0.27175,0.73607,0.32422,0.51957,0.64062
7.336,0.26393,0.72239,0.32422,0.51957,0.64062
7.344,0.25611,0.70577,0.32031,0.51957,0.64062
7.352,0.25024,0.68622,0.32031,0.51957,0.64062
7.36,0.24438,0.66373,0.32031,0.51957,0.64062
7.368,0.23851,0.63832,0.32422,0.51957,0.63477
7.376,0.23363,0.61095,0.32422,0.51957,0.63477
7.384,0.22776,0.58162,0.33008,0.52544,0.62891
7.392,0.22287,0.55132,0.33594,0.53523,0.61914
7.4,0.21701,0.52297,0.33984,0.53523,0.61523
7.408,0.21114,0.49756,0.3457,0.54012,0.60938
7.416,0.20528,0.46921,0.35547,0.54501,0.5957
7.424,0.19844,0.44184,0.37109,0.54501,0.58984
7.432,0.19257,0.41642,0.38477,0.54501,0.57422
7.44,0.18573,0.39394,0.39062,0.55479,0.56445
7.448,0.17986,0.37439,0.4043,0.55479,0.55078
7.456,0.174,0.35973,0.41602,0.56458,0.54492
7.464,0.16911,0.34897,0.41992,0.57045,0.53516
7.472,0.16422,0.34115,0.42969,0.57045,0.5293
7.48,0.15836,0.33724,0.42969,0.57045,0.5293
7.488,0.15347,0.33431,0.43555,0.57534,0.53906
7.496,0.14858,0.33431,0.43555,0.58023,0.53906
7.504,0.1437,0.33529,0.43555,0.58023,0.54492
7.512,0.13881,0.33627,0.42578,0.58023,0.55078
7.52,0.1349,0.33724,0.41602,0.57534,0.56055
7.528,0.13001,0.33724,0.40039,0.57534,0.57031
7.536,0.1261,0.33724,0.39062,0.57045,0.58008
7.544,0.12219,0.33627,0.38086,0.56458,0.58984
7.552,0.11828,0.33529,0.38086,0.55969,0.5957
7.56,0.11339,0.33333,0.375,0.55479,0.60547
7.568,0.10948,0.33138,0.375,0.55479,0.60547
7.576,0.10459,0.32845,0.37109,0.5499,0.60938
7.584,0.099707,0.32551,0.36523,0.5499,0.60938
7.592,0.094819,0.3216,0.37109,0.5499,0.60938
7.6,0.089932,0.31965,0.375,0.54501,0.61523
7.608,0.084066,0.31672,0.38086,0.5499,0.60938
7.616,0.079179,0.31378,0.38086,0.5499,0.61523
7.624,0.074291,0.30987,0.375,0.5499,0.61914
7.632,0.069404,0.30694,0.38086,0.55479,0.61914
7.64,0.061584,0.30303,0.39062,0.56458,0.61914
7.648,0.054741,0.29912,0.41016,0.58023,0.60938
7.656,0.045943,0.29521,0.41602,0.5998,0.60938
7.664,0.037146,0.2913,0.43945,0.61546,0.59961
7.672,0.029326,0.28739,0.43555,0.61057,0.5957
7.68,0.020528,0.2825,0.42578,0.59491,0.60547
7.688,0.012708,0.27859,0.41602,0.58023,0.61914
7.696,0.0058651,0.27566,0.4043,0.55479,0.61523
7.704,0.0029325,0.27273,0.40039,0.5499,0.61523
7.712,0,0.26882,0.38477,0.5499,0.62891
7.72,0,0.26491,0.35938,0.54501,0.64062
7.728,0,0.26197,0.33984,0.53033,0.65039
7.736,0,0.26002,0.32031,0.53033,0.65039
7.744,0,0.261,0.32031,0.52544,0.6543
7.752,0,0.26882,0.31445,0.52544,0.6543
7.76,0,0.28348,0.31445,0.52544,0.66016
7.768,0,0.30792,0.32031,0.52544,0.65039
7.776,0,0.34115,0.32031,0.53033,0.65039
7.784,0,0.38221,0.33008,0.54012,0.6543
7.792,0,0.42229,0.37109,0.58513,0.66992
7.8,0,0.46237,0.41016,0.59491,0.67969
7.808,0,0.50733,0.44531,0.55479,0.64453
7.816,0,0.5523,0.60938,0.51957,0.48047
7.824,0,0.59238,0.67578,0.4501,0.31445
7.832,0,0.62463,0.55469,0.45988,0.4707
7.84,0,0.64907,0.35547,0.48532,0.71484
7.848,0,0.66471,0.32422,0.50489,0.73047
7.856,0,0.67155,0.33008,0.50978,0.65039
7.864,0,0.67058,0.32422,0.51957,0.64062
7.872,0,0.66276,0.32422,0.52544,0.64453
7.88,0,0.65005,0.32031,0.53033,0.64453
7.888,0,0.63343,0.31445,0.53033,0.65039
7.896,0,0.61584,0.32031,0.52544,0.64453
7.904,0,0.59629,0.32031,0.53033,0.64453
7.912,0,0.5738,0.32031,0.53033,0.64062
7.92,0,0.54741,0.32422,0.53523,0.63477
7.928,0,0.52004,0.32422,0.54012,0.62891
7.936,0,0.49169,0.33594,0.53523,0.625
7.944,0,0.46237,0.33984,0.53523,0.61914
7.952,0,0.43402,0.34961,0.54012,0.60938
7.96,0,0.40665,0.35938,0.54501,0.59961
7.968,0,0.38221,0.375,0.54501,0.58984
7.976,0,0.3607,0.38477,0.54501,0.57422
7.984,0,0.34311,0.39453,0.5499,0.56445
7.992,0,0.33138,0.41016,0.56458,0.55469
8,0,0.32258,0.41602,0.56458,0.54492
8.008,0,0.31574,0.42578,0.57045,0.54492
8.016,0,0.31085,0.43555,0.57534,0.5293
8.024,0,0.30792,0.43945,0.57534,0.5293
8.032,0,0.30694,0.43945,0.58023,0.53516
8.04,0,0.30694,0.44531,0.57534,0.53516
8.048,0,0.30792,0.43945,0.58023,0.53516
8.056,0,0.3089,0.43555,0.58513,0.54492
8.064,0,0.31085,0.41992,0.58023,0.55078
8.072,0.0029325,0.31183,0.41016,0.57534,0.56445
8.08,0.0048876,0.31281,0.39453,0.57045,0.57031
8.088,0.0078201,0.31281,0.38477,0.56458,0.58398
8.096,0.010753,0.31281,0.375,0.55969,0.5957
8.104,0.012708,0.31183,0.37109,0.55479,0.5957
8.112,0.01564,0.31085,0.37109,0.55479,0.5957
8.12,0.017595,0.3089,0.375,0.55479,0.5957
8.128,0.01955,0.30694,0.38086,0.5499,0.5957
8.136,0.020528,0.30401,0.38086,0.5499,0.59961
8.144,0.022483,0.30205,0.38086,0.55479,0.60547
8.152,0.022483,0.29912,0.38477,0.55479,0.59961
8.16,0.02346,0.29619,0.38086,0.5499,0.60547
8.168,0.02346,0.29326,0.38086,0.5499,0.60938
8.176,0.02346,0.28935,0.38086,0.55479,0.61523
8.184,0.020528,0.28641,0.38477,0.56458,0.61523
8.192,0.018573,0.28446,0.39453,0.58023,0.61523
8.2,0.014663,0.2825,0.41016,0.59002,0.60938
8.208,0.0097752,0.27957,0.43555,0.61546,0.59961
8.216,0.0048876,0.27664,0.42969,0.61057,0.59961
8.224,0,0.27273,0.41992,0.6047,0.61523
8.232,0,0.26882,0.41016,0.58513,0.61914
8.24,0,0.26491,0.39453,0.56458,0.61914
8.248,0,0.26197,0.39453,0.55969,0.61914
8.256,0,0.25806,0.38086,0.5499,0.63477
8.264,0,0.25513,0.35938,0.54501,0.64062
8.272,0,0.2522,0.33984,0.53523,0.65039
8.28,0,0.25122,0.32422,0.52544,0.65039
8.288,0,0.25318,0.32031,0.51957,0.6543
8.296,0,0.26393,0.32422,0.51957,0.65039
8.304,0,0.27664,0.33008,0.51957,0.64453
8.312,0,0.29032,0.33008,0.52544,0.64062
8.32,0,0.31378,0.33594,0.51957,0.64453
8.328,0,0.348,0.33984,0.53523,0.64453
8.336,0,0.39003,0.375,0.57534,0.66016
8.344,0,0.43695,0.41992,0.59491,0.66406
8.352,0,0.47703,0.44531,0.55479,0.63477
8.36,0,0.50929,0.60547,0.53033,0.5
8.368,0,0.54154,0.67969,0.4501,0.32031
8.376,0,0.56989,0.58398,0.45499,0.43555
8.384,0,0.5914,0.37109,0.48043,0.69922
8.392,0,0.60411,0.33008,0.5,0.73438
8.4,0,0.60997,0.33594,0.5,0.65039
8.408,0,0.61095,0.33984,0.51468,0.62891
8.416,0,0.60606,0.33594,0.51957,0.62891
8.424,0.0029325,0.59726,0.33594,0.51957,0.64062
8.432,0.0068426,0.58358,0.33594,0.52544,0.64062
8.44,0.01564,0.56696,0.32422,0.52544,0.64062
8.448,0.024438,0.54643,0.33008,0.52544,0.64062
8.456,0.034213,0.52395,0.33594,0.52544,0.63477
8.464,0.043011,0.49951,0.33594,0.52544,0.62891
8.472,0.051808,0.4741,0.33594,0.53033,0.62891
8.48,0.059629,0.44868,0.33984,0.53033,0.61914
8.488,0.067449,0.42326,0.3457,0.53523,0.61914
8.496,0.075269,0.40176,0.35938,0.53523,0.60547
8.504,0.082111,0.38416,0.36523,0.54012,0.59961
8.512,0.089932,0.36559,0.37109,0.54501,0.5957
8.52,0.096774,0.34897,0.38477,0.54501,0.58008
8.528,0.10362,0.33431,0.39453,0.5499,0.57031
8.536,0.11046,0.32258,0.4043,0.55479,0.56055
8.544,0.1173,0.31378,0.41602,0.56458,0.54492
8.552,0.12414,0.30792,0.43555,0.56458,0.53906
8.56,0.13099,0.30401,0.43945,0.57045,0.5293
8.568,0.13587,0.30108,0.43945,0.57045,0.52539
8.576,0.14174,0.30108,0.45508,0.57045,0.52539
8.584,0.14663,0.30108,0.45508,0.57045,0.52539
8.592,0.15152,0.30205,0.45508,0.57045,0.52539
8.6,0.15543,0.30303,0.44531,0.57045,0.53516
8.608,0.16031,0.30401,0.43555,0.57534,0.54492
8.616,0.1652,0.30596,0.42578,0.57045,0.55078
8.624,0.17009,0.30694,0.41602,0.57045,0.57031
8.632,0.17498,0.30694,0.40039,0.55969,0.58008
8.64,0.17986,0.30694,0.39062,0.55969,0.5957
8.648,0.18377,0.30596,0.38477,0.55479,0.5957
8.656,0.18768,0.30401,0.38086,0.55479,0.59961
8.664,0.19062,0.30205,0.38086,0.5499,0.59961
8.672,0.19453,0.3001,0.38477,0.5499,0.59961
8.68,0.19648,0.29912,0.38477,0.5499,0.60547
8.688,0.19941,0.29717,0.38477,0.5499,0.59961
8.696,0.20039,0.29619,0.38477,0.55479,0.60547
8.704,0.20039,0.29619,0.38477,0.55479,0.60938
8.712,0.19941,0.29521,0.38477,0.5499,0.61523
8.72,0.19844,0.29326,0.38086,0.55479,0.61523
8.728,0.19648,0.29228,0.39062,0.55969,0.60938
8.736,0.1955,0.29032,0.4043,0.58023,0.60938
8.744,0.19257,0.28837,0.41602,0.59002,0.60547
8.752,0.18964,0.28543,0.43555,0.61546,0.5957
8.76,0.18573,0.28348,0.44531,0.62035,0.5957
8.768,0.18084,0.28055,0.42578,0.6047,0.59961
8.776,0.174,0.27761,0.41602,0.59491,0.61914
8.784,0.16813,0.27468,0.40039,0.57045,0.61914
8.792,0.16129,0.27273,0.4043,0.55969,0.61523
8.8,0.15543,0.27077,0.39062,0.55479,0.61914
8.808,0.14956,0.26784,0.38086,0.5499,0.62891
8.816,0.1437,0.26588,0.35547,0.54012,0.64062
8.824,0.13783,0.26393,0.3457,0.54012,0.64062
8.832,0.13196,0.26491,0.33984,0.53033,0.64062
8.84,0.12708,0.27077,0.33008,0.53033,0.64453
8.848,0.12219,0.28152,0.33594,0.51957,0.64453
8.856,0.11828,0.29912,0.33984,0.52544,0.64453
8.864,0.11535,0.32454,0.33984,0.52544,0.64062
8.872,0.11241,0.35875,0.33984,0.53523,0.64062
8.88,0.11046,0.39883,0.375,0.57045,0.65039
8.888,0.11046,0.44282,0.41602,0.6047,0.66406
8.896,0.10948,0.48192,0.44531,0.57534,0.64062
8.904,0.11046,0.51613,0.58398,0.5499,0.53906
8.912,0.11144,0.5523,0.68555,0.46477,0.33008
8.92,0.11437,0.58553,0.62891,0.4501,0.30469
8.928,0.11632,0.61193,0.41016,0.46477,0.64062
8.936,0.12023,0.6305,0.34961,0.49511,0.70898
8.944,0.12512,0.64125,0.3457,0.50489,0.64062
8.952,0.12903,0.64516,0.33984,0.51957,0.61914
8.96,0.13392,0.64223,0.3457,0.52544,0.625
8.968,0.13881,0.63441,0.33984,0.53033,0.63477
8.976,0.1437,0.6217,0.33594,0.53523,0.63477
8.984,0.14956,0.60508,0.33594,0.53033,0.63477
8.992,0.15543,0.58847,0.33594,0.53523,0.63477
9,0.16129,0.57087,0.33984,0.53523,0.625
9.008,0.16716,0.54936,0.33984,0.54012,0.62891
9.016,0.17302,0.5259,0.33984,0.54501,0.625
9.024,0.17889,0.50147,0.33984,0.54012,0.61914
9.032,0.18377,0.47507,0.34961,0.54501,0.61914
9.04,0.18866,0.44966,0.35938,0.54501,0.60547
9.048,0.19257,0.4262,0.36523,0.54501,0.5957
9.056,0.19746,0.40371,0.38086,0.55479,0.58398
9.064,0.20137,0.38319,0.39062,0.55479,0.57422
9.072,0.20528,0.36657,0.40039,0.55969,0.56445
9.08,0.20919,0.35191,0.41602,0.56458,0.55469
9.088,0.2131,0.34115,0.42578,0.57045,0.53906
9.096,0.21603,0.33431,0.43555,0.57534,0.5293
9.104,0.21994,0.3304,0.44531,0.57045,0.52539
9.112,0.22287,0.32845,0.44922,0.58513,0.51953
9.12,0.22678,0.32747,0.45508,0.58513,0.52539
9.128,0.23069,0.32747,0.45508,0.59002,0.52539
9.136,0.23558,0.32845,0.44922,0.58513,0.52539
9.144,0.23949,0.32942,0.44531,0.58023,0.5293
9.152,0.24438,0.32942,0.43555,0.57534,0.54492
9.16,0.25024,0.3304,0.41992,0.58023,0.55469
9.168,0.25611,0.3304,0.41016,0.57045,0.57031
9.176,0.26295,0.32942,0.40039,0.57045,0.57422
9.184,0.26979,0.32845,0.40039,0.57045,0.58398
9.192,0.27761,0.32845,0.39062,0.56458,0.5957
9.2,0.28543,0.32747,0.38477,0.55969,0.5957
9.208,0.29326,0.32649,0.39062,0.56458,0.5957
9.216,0.30108,0.32551,0.39062,0.55969,0.5957
9.224,0.30987,0.32356,0.39453,0.55969,0.5957
9.232,0.31769,0.3216,0.39453,0.55479,0.5957
9.24,0.32649,0.31867,0.40039,0.55969,0.5957
9.248,0.33627,0.31574,0.39453,0.5499,0.59961
9.256,0.34702,0.31281,0.40039,0.5499,0.60547
9.264,0.35679,0.31085,0.39453,0.55479,0.60547
9.272,0.36657,0.3089,0.40039,0.55969,0.60547
9.28,0.37634,0.30596,0.41602,0.57045,0.59961
9.288,0.38612,0.30401,0.42969,0.59002,0.5957
9.296,0.39589,0.30205,0.44531,0.6047,0.5957
9.304,0.40567,0.30108,0.46484,0.62035,0.58398
9.312,0.41642,0.29814,0.45508,0.61057,0.58984
9.32,0.42717,0.29423,0.43555,0.5998,0.59961
9.328,0.43891,0.2913,0.42578,0.57534,0.61523
9.336,0.45161,0.28837,0.41992,0.55479,0.60938
9.344,0.4653,0.28446,0.41602,0.5499,0.60938
9.352,0.47996,0.28152,0.39062,0.5499,0.61914
9.36,0.49462,0.27859,0.375,0.54012,0.62891
9.368,0.50831,0.27664,0.35547,0.52544,0.64062
9.376,0.52297,0.27859,0.33984,0.52544,0.64062
9.384,0.53861,0.28543,0.33984,0.51957,0.64062
9.392,0.55327,0.29619,0.33984,0.51468,0.64453
9.4,0.57185,0.31183,0.33984,0.51957,0.64062
9.408,0.5914,0.33724,0.33984,0.51957,0.64062
9.416,0.6129,0.37146,0.33984,0.51957,0.64062
9.424,0.63539,0.41251,0.37109,0.55479,0.64453
9.432,0.65591,0.45846,0.41602,0.59491,0.66406
9.44,0.67742,0.50635,0.45508,0.6047,0.65039
9.448,0.69795,0.5523,0.53906,0.55969,0.59961
9.456,0.71848,0.59238,0.69922,0.50489,0.38477
9.464,0.74291,0.62659,0.73047,0.45499,0.29492
9.472,0.76833,0.65298,0.50586,0.41977,0.50586
9.48,0.79668,0.67058,0.36523,0.45988,0.66406
9.488,0.82502,0.68035,0.3457,0.49022,0.64453
9.496,0.8563,0.68328,0.33984,0.50489,0.625
9.504,0.88661,0.68035,0.33984,0.51957,0.62891
9.512,0.91887,0.67351,0.33008,0.52544,0.64062
9.52,0.95015,0.66276,0.33008,0.53033,0.64062
9.528,0.97556,0.64907,0.32422,0.53033,0.64453
9.536,1,0.63245,0.33594,0.53033,0.63477
9.544,1,0.61388,0.33594,0.53033,0.63477
9.552,1,0.59238,0.33594,0.53033,0.63477
9.56,1,0.56891,0.33594,0.54012,0.64062
9.568,1,0.54448,0.33984,0.54012,0.62891
9.576,1,0.51808,0.3457,0.54501,0.61914
9.584,1,0.49169,0.34961,0.54501,0.61523
9.592,1,0.46921,0.35547,0.5499,0.60547
9.6,1,0.44868,0.36523,0.5499,0.5957
9.608,1,0.42815,0.375,0.55969,0.58984
9.616,1,0.4086,0.38477,0.55969,0.57422
9.624,1,0.39198,0.39453,0.56458,0.57031
9.632,1,0.3783,0.41016,0.57045,0.56055
9.64,1,0.36755,0.41992,0.57045,0.54492
9.648,1,0.35973,0.42969,0.58023,0.53516
9.656,1,0.35484,0.43555,0.59002,0.52539
9.664,1,0.35191,0.43945,0.58513,0.52539
9.672,1,0.35093,0.44531,0.59002,0.5293
9.68,1,0.35093,0.43555,0.59002,0.5293
9.688,1,0.35191,0.43555,0.59002,0.53516
9.696,1,0.35288,0.43555,0.58023,0.53906
9.704,1,0.35484,0.42578,0.57045,0.54492
9.712,1,0.35582,0.41602,0.57045,0.56055
9.72,1,0.35582,0.4043,0.56458,0.57422
9.728,1,0.35582,0.39062,0.55969,0.58984
9.736,1,0.35582,0.39062,0.55479,0.5957
9.744,1,0.35582,0.38477,0.55479,0.60547
9.752,1,0.35484,0.38086,0.55479,0.60938
9.76,1,0.35288,0.39062,0.55479,0.60547
9.768,1,0.35191,0.38477,0.55479,0.60938
9.776,1,0.34995,0.38477,0.5499,0.60938
9.784,1,0.34702,0.38477,0.54501,0.61523
9.792,1,0.34604,0.38477,0.5499,0.60938
9.8,1,0.34409,0.38477,0.54501,0.60938
9.808,1,0.34213,0.38477,0.54501,0.61523
9.816,1,0.3392,0.39062,0.5499,0.60938
9.824,1,0.33724,0.4043,0.56458,0.60547
9.832,1,0.33529,0.41602,0.58023,0.60547
9.84,1,0.33333,0.43555,0.6047,0.59961
9.848,1,0.33138,0.46094,0.61546,0.58984
9.856,1,0.32942,0.44531,0.61057,0.58984
9.864,1,0.32649,0.43555,0.59491,0.60547
9.872,1,0.32454,0.41602,0.58023,0.61914
9.88,1,0.3216,0.40039,0.5499,0.61914
9.888,1,0.31867,0.39453,0.54501,0.61914
9.896,1,0.31574,0.38477,0.54501,0.62891
9.904,1,0.31281,0.36523,0.54012,0.64062
9.912,1,0.31183,0.33984,0.52544,0.64453
9.92,1,0.31183,0.33008,0.52544,0.65039
9.928,1,0.32356,0.32422,0.51957,0.65039
9.936,1,0.33822,0.33008,0.51957,0.65039
9.944,1,0.35386,0.33008,0.51957,0.64453
9.952,1,0.38025,0.33008,0.51957,0.64453
9.96,1,0.41642,0.32422,0.51957,0.64453
9.968,1,0.46041,0.33984,0.54012,0.65039
9.976,1,0.50831,0.39453,0.58513,0.66016
9.984,1,0.55718,0.43555,0.61057,0.66406
9.992,1,0.59726,0.49023,0.58513,0.63477
10,1,0.6305,0.67969,0.55479,0.46094
10.008,1,0.66276,0.74414,0.47456,0.29492
10.016,1,0.68915,0.58984,0.40998,0.41992
10.024,1,0.70772,0.37109,0.4002,0.65039
10.032,1,0.71945,0.33984,0.48043,0.66406
10.04,1,0.72336,0.32422,0.50489,0.64062
10.048,1,0.72239,0.32031,0.51957,0.63477
10.056,1,0.71652,0.32031,0.51957,0.64062
10.064,1,0.70674,0.32031,0.51957,0.64453
10.072,1,0.69404,0.31445,0.52544,0.65039
10.08,1,0.67742,0.32031,0.53033,0.64453
10.088,1,0.6608,0.31445,0.53523,0.64453
10.096,1,0.64223,0.31445,0.53033,0.65039
10.104,1,0.62072,0.32031,0.54012,0.64062
10.112,1,0.59726,0.32031,0.54501,0.64062
10.12,1,0.57185,0.32422,0.54501,0.63477
10.128,1,0.54448,0.33594,0.5499,0.62891
10.136,1,0.51808,0.33984,0.5499,0.61914
10.144,1,0.49169,0.34961,0.55479,0.60938
10.152,1,0.46628,0.36523,0.55969,0.5957
10.16,1,0.44282,0.37109,0.56458,0.58984
10.168,1,0.42229,0.38477,0.57045,0.57422
10.176,1,0.40274,0.39062,0.57045,0.56445
10.184,1,0.38807,0.41016,0.57534,0.55469
10.192,1,0.38025,0.41602,0.58513,0.54492
10.2,1,0.37537,0.41992,0.59002,0.53906
10.208,1,0.37243,0.42969,0.59002,0.53516
10.216,1,0.37048,0.42578,0.59002,0.53516
10.224,1,0.37048,0.42969,0.59002,0.53516
10.232,1,0.37146,0.43555,0.58513,0.53906
10.24,1,0.37243,0.43555,0.58513,0.54492
10.248,1,0.37439,0.42578,0.58023,0.54492
10.256,1,0.37537,0.41602,0.57534,0.56055
10.264,1,0.37537,0.40039,0.57045,0.57422
10.272,1,0.37341,0.39062,0.57045,0.5957
10.28,1,0.37243,0.39062,0.56458,0.5957
10.288,1,0.37048,0.38477,0.55969,0.59961
10.296,1,0.36852,0.38086,0.55479,0.60938
10.304,1,0.36559,0.38086,0.55479,0.61523
10.312,1,0.36266,0.38086,0.5499,0.61523
10.32,1,0.35973,0.38477,0.55479,0.61523
10.328,0.98338,0.35679,0.39062,0.5499,0.60938
10.336,0.96676,0.35288,0.38477,0.5499,0.61523
10.344,0.94819,0.34897,0.39062,0.5499,0.61523
10.352,0.9306,0.34604,0.38086,0.5499,0.61523
10.36,0.91007,0.34213,0.39062,0.5499,0.61523
10.368,0.88856,0.33724,0.40039,0.56458,0.60547
10.376,0.86608,0.33236,0.41992,0.58513,0.59961
10.384,0.8436,0.32942,0.43555,0.59491,0.5957
10.392,0.82111,0.32454,0.46094,0.62035,0.58984
10.4,0.79961,0.31672,0.45508,0.61057,0.58398
10.408,0.77713,0.31085,0.43945,0.6047,0.5957
10.416,0.75562,0.30596,0.41992,0.58023,0.60938
10.424,0.73216,0.30108,0.41016,0.55969,0.61523
10.432,0.7087,0.29619,0.41016,0.5499,0.60938
10.44,0.68231,0.2913,0.39062,0.5499,0.625
10.448,0.65689,0.28837,0.38086,0.54501,0.62891
10.456,0.6305,0.28837,0.34961,0.54012,0.64453
10.464,0.60411,0.29326,0.33594,0.52544,0.65039
10.472,0.57771,0.30401,0.32422,0.51957,0.6543
10.48,0.55132,0.32063,0.32422,0.51957,0.6543
10.488,0.52884,0.34213,0.32422,0.51957,0.66016
10.496,0.50538,0.37537,0.32031,0.51957,0.6543
10.504,0.48583,0.4174,0.32422,0.51957,0.65039
10.512,0.4653,0.46628,0.33008,0.53033,0.6543
10.52,0.44673,0.51711,0.37109,0.57534,0.66406
10.528,0.42815,0.56598,0.41992,0.5998,0.67578
10.536,0.41056,0.61095,0.45508,0.57534,0.64453
10.544,0.39296,0.65005,0.61523,0.54501,0.51953
10.552,0.3783,0.67937,0.69531,0.45988,0.32422
10.56,0.36266,0.70088,0.61914,0.43542,0.31445
10.568,0.34995,0.71261,0.39062,0.45499,0.66016
10.576,0.33724,0.7175,0.33984,0.49511,0.70508
10.584,0.32551,0.71554,0.32422,0.50489,0.6543
10.592,0.31378,0.70968,0.32422,0.51957,0.63477
10.6,0.30205,0.69892,0.32422,0.51957,0.64062
10.608,0.2913,0.68524,0.33008,0.53033,0.64062
10.616,0.28055,0.6696,0.32031,0.53033,0.64062
10.624,0.27077,0.65005,0.33008,0.53033,0.64062
10.632,0.261,0.62952,0.33594,0.53523,0.63477
10.64,0.2522,0.60508,0.33984,0.53523,0.625
10.648,0.2434,0.57869,0.33984,0.53523,0.61914
10.656,0.23558,0.55132,0.3457,0.54012,0.61914
10.664,0.22874,0.52199,0.35547,0.54501,0.61914
10.672,0.22092,0.49169,0.35547,0.54501,0.60938
10.68,0.2131,0.46628,0.36523,0.54501,0.5957
10.688,0.20528,0.44379,0.375,0.54501,0.58984
10.696,0.19746,0.42033,0.39062,0.54501,0.58008
10.704,0.18866,0.39785,0.40039,0.5499,0.57031
10.712,0.18084,0.3783,0.41602,0.55969,0.55469
10.72,0.17302,0.36266,0.42578,0.56458,0.54492
10.728,0.16618,0.34995,0.43555,0.56458,0.53516
10.736,0.15836,0.34018,0.43945,0.57045,0.52539
10.744,0.15054,0.33333,0.44922,0.57534,0.52539
10.752,0.14272,0.32845,0.45508,0.57534,0.52539
10.76,0.13294,0.32649,0.45508,0.58023,0.52539
10.768,0.12414,0.32551,0.45508,0.57534,0.52539
10.776,0.11535,0.32454,0.45508,0.57534,0.5293
10.784,0.10655,0.32454,0.44922,0.57534,0.53516
10.792,0.097752,0.32454,0.43945,0.57534,0.54492
10.8,0.088954,0.32356,0.43555,0.57045,0.55469
10.808,0.081134,0.32258,0.41992,0.57045,0.57031
10.816,0.074291,0.32063,0.41602,0.56458,0.57422
10.824,0.068426,0.31867,0.4043,0.55969,0.58398
10.832,0.062561,0.31574,0.39453,0.55479,0.5957
10.84,0.057674,0.31281,0.39062,0.55479,0.58984
10.848,0.051808,0.30987,0.39062,0.54501,0.5957
10.856,0.046921,0.30596,0.39062,0.54501,0.5957
10.864,0.043011,0.30205,0.39453,0.54501,0.5957
10.872,0.039101,0.29717,0.40039,0.54501,0.5957
10.88,0.035191,0.29326,0.40039,0.54012,0.5957
10.888,0.031281,0.29032,0.40039,0.54012,0.5957
10.896,0.028348,0.28739,0.40039,0.54012,0.5957
10.904,0.024438,0.28348,0.40039,0.54501,0.5957
10.912,0.020528,0.27859,0.41016,0.54501,0.5957
10.92,0.016618,0.27468,0.42578,0.57045,0.5957
10.928,0.01173,0.26979,0.43555,0.58513,0.58984
10.936,0.0068426,0.26491,0.45508,0.5998,0.58398
10.944,0.00097752,0.26002,0.46094,0.61057,0.58008
10.952,0,0.25513,0.44922,0.59491,0.58398
10.96,0,0.25024,0.43555,0.58513,0.59961
10.968,0,0.24438,0.41992,0.55479,0.59961
10.976,0,0.23949,0.41992,0.54501,0.5957
10.984,0,0.23558,0.4043,0.54012,0.60547
10.992,0,0.23265,0.39062,0.53523,0.61914
11,0,0.23069,0.36523,0.52544,0.625
11.008,0,0.22972,0.35547,0.51957,0.62891
11.016,0,0.2346,0.34961,0.51468,0.63477
11.024,0,0.24536,0.3457,0.51468,0.64062
11.032,0,0.26393,0.3457,0.50978,0.63477
11.04,0,0.2913,0.34961,0.50978,0.62891
11.048,0,0.32649,0.35547,0.50978,0.62891
11.056,0,0.36852,0.35938,0.51468,0.625
11.064,0,0.41447,0.38477,0.5499,0.64062
11.072,0,0.46139,0.42969,0.58513,0.6543
11.08,0,0.50049,0.46094,0.56458,0.62891
11.088,0,0.53372,0.58398,0.54012,0.54492
11.096,0,0.565,0.70508,0.45988,0.33008
11.104,0,0.59042,0.70898,0.44521,0.29102
11.112,0,0.60899,0.44531,0.46967,0.61523
11.12,0,0.62072,0.35938,0.5,0.71484
11.128,0,0.62366,0.36523,0.50489,0.63477
11.136,0,0.62072,0.35938,0.51468,0.61523
11.144,0,0.6129,0.35547,0.51957,0.61523
11.152,0,0.6002,0.3457,0.51957,0.61914
11.16,0,0.58456,0.34961,0.52544,0.61914
11.168,0,0.565,0.34961,0.53033,0.61914
11.176,0,0.54252,0.3457,0.53523,0.61914
11.184,0,0.52102,0.3457,0.54012,0.61914
11.192,0,0.49951,0.35547,0.53523,0.61914
11.2,0,0.4741,0.35938,0.53523,0.61914
11.208,0,0.4477,0.35938,0.54012,0.61523
11.216,0,0.42131,0.35938,0.54012,0.60547
11.224,0,0.39589,0.36523,0.54501,0.59961
11.232,0,0.37146,0.375,0.54012,0.58984
11.24,0,0.34995,0.39062,0.54501,0.58008
11.248,0.00097752,0.33138,0.40039,0.54501,0.57031
11.256,0.0039101,0.31574,0.41016,0.5499,0.56445
11.264,0.0068426,0.30499,0.41602,0.55479,0.55078
11.272,0.0097752,0.29717,0.43555,0.55969,0.53516
11.28,0.012708,0.29326,0.44531,0.56458,0.52539
11.288,0.01564,0.2913,0.44922,0.57045,0.52539
11.296,0.017595,0.29032,0.45508,0.57045,0.52539
11.304,0.020528,0.29032,0.46094,0.57045,0.51953
11.312,0.022483,0.2913,0.46484,0.57534,0.51953
11.32,0.024438,0.29228,0.46094,0.57534,0.52539
11.328,0.026393,0.29326,0.44922,0.58023,0.53516
11.336,0.028348,0.29423,0.44922,0.58023,0.53906
11.344,0.030303,0.29423,0.43555,0.57534,0.54492
11.352,0.032258,0.29521,0.41602,0.57045,0.56445
11.36,0.035191,0.29423,0.40039,0.56458,0.57422
11.368,0.037146,0.29326,0.39062,0.55969,0.58398
11.376,0.039101,0.29228,0.39062,0.55479,0.58984
11.384,0.041056,0.29228,0.38477,0.5499,0.5957
11.392,0.043011,0.29032,0.38477,0.54501,0.5957
11.4,0.044966,0.28739,0.38477,0.54501,0.5957
11.408,0.046921,0.28543,0.38086,0.54501,0.59961
11.416,0.046921,0.2825,0.375,0.54501,0.59961
11.424,0.046921,0.27957,0.38086,0.5499,0.60547
11.432,0.046921,0.27664,0.38086,0.5499,0.60547
11.44,0.045943,0.2737,0.38477,0.5499,0.60547
11.448,0.044966,0.27077,0.38086,0.5499,0.60547
11.456,0.043011,0.26686,0.39062,0.55479,0.60938
11.464,0.041056,0.26393,0.4043,0.57045,0.60547
11.472,0.039101,0.261,0.41602,0.58513,0.59961
11.48,0.034213,0.25806,0.42578,0.59491,0.59961
11.488,0.030303,0.25611,0.43555,0.61546,0.5957
11.496,0.024438,0.25318,0.42969,0.6047,0.5957
11.504,0.017595,0.24927,0.41602,0.59002,0.61523
11.512,0.012708,0.24536,0.40039,0.57045,0.61914
11.52,0.0068426,0.24145,0.39062,0.55479,0.61914
11.528,0.0029325,0.23754,0.40039,0.5499,0.61914
11.536,0,0.23363,0.375,0.5499,0.62891
11.544,0,0.23167,0.35938,0.54012,0.63477
11.552,0,0.23167,0.33984,0.53033,0.64062
11.56,0,0.23558,0.33008,0.51957,0.64453
11.568,0,0.24536,0.32422,0.51957,0.65039
11.576,0,0.25904,0.32422,0.51957,0.65039
11.584,0,0.27859,0.32422,0.51957,0.64453
11.592,0,0.30694,0.32422,0.52544,0.64453
11.6,0,0.34311,0.32422,0.51957,0.64062
11.608,0,0.38612,0.34961,0.54501,0.65039
11.616,0,0.43206,0.39062,0.58513,0.66406
11.624,0,0.47801,0.42578,0.59491,0.66016
11.632,0,0.52102,0.49414,0.5499,0.61523
11.64,0,0.55816,0.6543,0.48532,0.40039
11.648,0,0.58847,0.67578,0.44521,0.31055
11.656,0,0.60997,0.48438,0.46967,0.55469
11.664,0,0.62268,0.33008,0.48532,0.73047
11.672,0,0.62757,0.33594,0.5,0.67578
11.68,0,0.62659,0.33984,0.50978,0.62891
11.688,0,0.62072,0.33008,0.52544,0.625
11.696,0,0.60899,0.32031,0.53523,0.64062
11.704,0,0.59335,0.32031,0.53033,0.64062
11.712,0,0.57478,0.32031,0.53033,0.64453
11.72,0,0.55425,0.32031,0.53033,0.64062
11.728,0,0.53079,0.32422,0.53523,0.64062
11.736,0,0.50635,0.32422,0.53523,0.64062
11.744,0,0.47996,0.32422,0.54012,0.64062
11.752,0,0.45259,0.33008,0.53523,0.63477
11.76,0,0.4262,0.33984,0.54012,0.625
11.768,0,0.40078,0.3457,0.54501,0.61523
11.776,0,0.37928,0.33984,0.54501,0.61914
11.784,0.0029325,0.3607,0.35938,0.54501,0.5957
11.792,0.0058651,0.34409,0.38477,0.54501,0.58008
11.8,0.0087977,0.32845,0.39062,0.5499,0.57031
11.808,0.010753,0.31574,0.40039,0.55969,0.56445
11.816,0.012708,0.30694,0.41602,0.56458,0.54492
11.824,0.01564,0.30108,0.41992,0.57045,0.53906
11.832,0.017595,0.29717,0.43555,0.57045,0.5293
11.84,0.020528,0.29619,0.43945,0.57534,0.5293
11.848,0.022483,0.29619,0.45508,0.58023,0.52539
11.856,0.025415,0.29814,0.44922,0.58513,0.52539
11.864,0.028348,0.29912,0.43945,0.57534,0.5293
11.872,0.031281,0.30108,0.43945,0.57534,0.53516
11.88,0.034213,0.30303,0.43555,0.57534,0.53906
11.888,0.037146,0.30401,0.42578,0.57045,0.55078
11.896,0.040078,0.30499,0.41602,0.57045,0.56055
11.904,0.043011,0.30499,0.4043,0.57045,0.57031
11.912,0.045943,0.30499,0.39062,0.56458,0.58398
11.92,0.048876,0.30401,0.375,0.56458,0.5957
11.928,0.050831,0.30303,0.37109,0.55969,0.59961
11.936,0.053763,0.30205,0.38477,0.5499,0.59961
11.944,0.054741,0.3001,0.38086,0.5499,0.59961
11.952,0.056696,0.29912,0.38086,0.5499,0.59961
11.96,0.056696,0.29814,0.38086,0.55479,0.60547
11.968,0.056696,0.29619,0.38086,0.5499,0.60547
11.976,0.055718,0.29619,0.38477,0.5499,0.60547
11.984,0.053763,0.29521,0.38086,0.5499,0.60547
11.992,0.051808,0.29423,0.38086,0.5499,0.61523
12,0.049853,0.29228,0.38086,0.5499,0.61523
12.008,0.046921,0.29032,0.39062,0.56458,0.60938
12.016,0.043988,0.28739,0.41016,0.57534,0.60547
12.024,0.039101,0.28446,0.42969,0.59491,0.59961
12.032,0.033236,0.28152,0.44922,0.61546,0.5957
12.04,0.025415,0.27859,0.43945,0.61057,0.58984
12.048,0.018573,0.27566,0.42578,0.59491,0.60547
12.056,0.0087977,0.27175,0.41602,0.58023,0.61914
12.064,0,0.26882,0.40039,0.55969,0.61523
12.072,0,0.26491,0.41016,0.55969,0.61523
12.08,0,0.26197,0.39062,0.5499,0.61914
12.088,0,0.261,0.38086,0.54501,0.61914
12.096,0,0.26002,0.35547,0.53033,0.62891
12.104,0,0.261,0.33984,0.52544,0.64062
12.112,0,0.26686,0.33984,0.51957,0.64062
12.12,0,0.27859,0.33984,0.51957,0.64062
12.128,0,0.29912,0.33984,0.51957,0.64062
12.136,0,0.32747,0.33594,0.51957,0.63477
12.144,0,0.36364,0.3457,0.52544,0.63477
12.152,0,0.40567,0.34961,0.51957,0.64062
12.16,0,0.45259,0.39062,0.58023,0.6543
12.168,0,0.49853,0.42578,0.5998,0.66406
12.176,0,0.53763,0.45508,0.56458,0.64453
12.184,0,0.56891,0.625,0.51468,0.47461
12.192,0,0.59922,0.67969,0.44521,0.31055
12.2,0,0.62366,0.55469,0.42955,0.44531
12.208,0,0.64027,0.35547,0.46477,0.69531
12.216,0,0.64907,0.33984,0.49022,0.71484
12.224,0,0.65005,0.33594,0.50489,0.64062
12.232,0,0.64516,0.33594,0.51957,0.62891
12.24,0,0.63441,0.33594,0.52544,0.625
12.248,0,0.62072,0.33594,0.52544,0.63477
12.256,0,0.60313,0.33008,0.53033,0.64062
12.264,0,0.5826,0.33008,0.52544,0.64062
12.272,0,0.55914,0.33984,0.53033,0.64062
12.28,0,0.53763,0.33984,0.53033,0.62891
12.288,0,0.51613,0.33984,0.53033,0.625
12.296,0,0.49071,0.33984,0.53523,0.61914
12.304,0,0.4653,0.3457,0.54501,0.61914
12.312,0,0.43988,0.35547,0.54501,0.61523
12.32,0,0.41447,0.36523,0.54501,0.60547
12.328,0,0.39198,0.37109,0.54501,0.5957
12.336,0,0.37048,0.39062,0.54501,0.58008
12.344,0,0.35288,0.40039,0.55479,0.56445
12.352,0,0.3392,0.41602,0.55969,0.55469
12.36,0,0.32845,0.41992,0.57045,0.54492
12.368,0,0.31965,0.42969,0.56458,0.53906
12.376,0,0.31574,0.43945,0.57045,0.52539
12.384,0,0.31281,0.44531,0.57045,0.52539
12.392,0.00097752,0.31183,0.45508,0.58023,0.52539
12.4,0.001955,0.31183,0.44922,0.58023,0.52539
12.408,0.0029325,0.31183,0.46094,0.58513,0.52539
12.416,0.0039101,0.31281,0.45508,0.58023,0.52539
12.424,0.0048876,0.31476,0.44531,0.58023,0.53516
12.432,0.0058651,0.31476,0.44922,0.57045,0.53516
12.44,0.0058651,0.3216,0.43555,0.57045,0.54492
12.448,0.0068426,0.32942,0.41602,0.57045,0.56055
12.456,0.0068426,0.33333,0.41016,0.57045,0.57031
12.464,0.0078201,0.33431,0.41016,0.55969,0.57422
12.472,0.0078201,0.33333,0.40039,0.55479,0.58984
12.48,0.0087977,0.33138,0.39453,0.54501,0.5957
12.488,0.0097752,0.3304,0.39062,0.54501,0.60547
12.496,0.0097752,0.32747,0.38477,0.5499,0.59961
12.504,0.010753,0.32551,0.39062,0.5499,0.5957
12.512,0.01173,0.32356,0.39062,0.54501,0.5957
12.52,0.012708,0.32063,0.40039,0.5499,0.5957
12.528,0.013685,0.31867,0.40039,0.5499,0.5957
12.536,0.014663,0.31574,0.40039,0.5499,0.59961
12.544,0.01564,0.31183,0.40039,0.5499,0.59961
12.552,0.017595,0.30792,0.41016,0.55479,0.59961
12.56,0.018573,0.30499,0.41992,0.57534,0.59961
12.568,0.01955,0.30108,0.43555,0.59002,0.5957
12.576,0.021505,0.29814,0.45508,0.61057,0.58984
12.584,0.02346,0.29521,0.4707,0.61546,0.57422
12.592,0.026393,0.29228,0.46094,0.61057,0.58008
12.6,0.030303,0.28837,0.44531,0.59491,0.5957
12.608,0.035191,0.28446,0.43555,0.56458,0.5957
12.616,0.042033,0.28055,0.42969,0.5499,0.5957
12.624,0.047898,0.27664,0.41992,0.5499,0.59961
12.632,0.054741,0.27273,0.4043,0.54501,0.60938
12.64,0.062561,0.27077,0.38086,0.53523,0.61914
12.648,0.070381,0.27175,0.36523,0.52544,0.625
12.656,0.079179,0.27859,0.35938,0.51957,0.625
12.664,0.090909,0.29228,0.34961,0.51957,0.625
12.672,0.10362,0.31476,0.35547,0.51957,0.625
12.68,0.12023,0.34115,0.35938,0.51957,0.61914
12.688,0.13587,0.37146,0.3457,0.51957,0.62891
12.696,0.15543,0.41153,0.35547,0.51957,0.625
12.704,0.17595,0.45748,0.38477,0.55479,0.63477
12.712,0.19844,0.50635,0.42578,0.59002,0.6543
12.72,0.22092,0.5523,0.46484,0.58023,0.63477
12.728,0.24438,0.59433,0.58008,0.5499,0.56445
12.736,0.26686,0.62952,0.70898,0.48532,0.34961
12.744,0.29032,0.65591,0.73438,0.44031,0.28516
12.752,0.31378,0.67351,0.47461,0.42466,0.53906
12.76,0.34115,0.68231,0.36523,0.45988,0.66992
12.768,0.36852,0.68524,0.35938,0.48532,0.63477
12.776,0.3998,0.68231,0.3457,0.50978,0.61914
12.784,0.43109,0.67546,0.33594,0.51957,0.625
12.792,0.45943,0.66471,0.33984,0.51957,0.625
12.8,0.48876,0.65005,0.33008,0.51957,0.63477
12.808,0.51711,0.63343,0.33594,0.52544,0.64062
12.816,0.54448,0.6129,0.33008,0.52544,0.62891
12.824,0.5738,0.59042,0.33594,0.53033,0.62891
12.832,0.60411,0.56598,0.33594,0.53523,0.62891
12.84,0.63441,0.53959,0.33984,0.53523,0.62891
12.848,0.66569,0.5132,0.33984,0.53523,0.61914
12.856,0.69697,0.4868,0.33984,0.54501,0.61914
12.864,0.72923,0.46139,0.3457,0.54012,0.61523
12.872,0.76051,0.43793,0.35547,0.54501,0.60547
12.88,0.79179,0.41838,0.35938,0.54501,0.5957
12.888,0.82014,0.40274,0.37109,0.55479,0.58984
12.896,0.84848,0.38807,0.38086,0.55969,0.57422
12.904,0.87488,0.37634,0.39062,0.56458,0.56445
12.912,0.90029,0.36657,0.4043,0.57045,0.55469
12.92,0.92766,0.3607,0.41602,0.57534,0.54492
12.928,0.95503,0.35777,0.42578,0.58023,0.53516
12.936,0.97752,0.35582,0.42969,0.58513,0.53516
12.944,1,0.35679,0.43555,0.59002,0.53516
12.952,1,0.35777,0.43555,0.58513,0.53906
12.96,1,0.35973,0.43555,0.58513,0.53906
12.968,1,0.36168,0.43555,0.58023,0.53516
12.976,1,0.36364,0.42969,0.57534,0.54492
12.984,1,0.36461,0.41602,0.57045,0.55469
12.992,1,0.36559,0.41602,0.57045,0.56445
13,1,0.36559,0.39453,0.57045,0.57031
13.008,1,0.36559,0.39062,0.56458,0.58398
13.016,1,0.36461,0.375,0.55969,0.5957
13.024,1,0.36364,0.375,0.55969,0.59961
13.032,1,0.36266,0.37109,0.55479,0.60547
13.04,1,0.36168,0.36523,0.55479,0.61523
13.048,1,0.35973,0.36523,0.55479,0.60938
13.056,1,0.35875,0.37109,0.55479,0.61523
13.064,1,0.35777,0.36523,0.5499,0.61914
13.072,1,0.35679,0.37109,0.5499,0.61914
13.08,1,0.35679,0.36523,0.5499,0.61914
13.088,1,0.35582,0.37109,0.55479,0.61914
13.096,1,0.35484,0.36523,0.55479,0.61914
13.104,1,0.35386,0.375,0.57045,0.61914
13.112,1,0.35191,0.39062,0.58023,0.61914
13.12,1,0.34995,0.41016,0.5998,0.61523
13.128,1,0.34702,0.43555,0.61546,0.5957
13.136,1,0.34409,0.43555,0.61057,0.59961
13.144,1,0.34115,0.41992,0.6047,0.60938
13.152,1,0.33822,0.4043,0.58513,0.625
13.16,1,0.33529,0.38477,0.55969,0.62891
13.168,1,0.33138,0.38477,0.55479,0.62891
13.176,1,0.32942,0.375,0.55479,0.63477
13.184,1,0.32845,0.35938,0.54501,0.64062
13.192,1,0.3304,0.33008,0.53523,0.65039
13.2,1,0.33529,0.31055,0.53033,0.66406
13.208,1,0.34604,0.31055,0.51957,0.66406
13.216,1,0.36559,0.30469,0.51957,0.66016
13.224,1,0.39394,0.30469,0.51957,0.66406
13.232,1,0.43011,0.30078,0.51957,0.66406
13.24,1,0.4741,0.30469,0.52544,0.66406
13.248,1,0.52395,0.32422,0.54012,0.66016
13.256,1,0.5738,0.375,0.59491,0.66992
13.264,1,0.62268,0.42578,0.61546,0.67969
13.272,1,0.6608,0.4707,0.59002,0.64453
13.28,1,0.69013,0.6543,0.55969,0.4707
13.288,1,0.71652,0.7207,0.48532,0.31055
13.296,1,0.73705,0.56445,0.41977,0.42578
13.304,1,0.75073,0.35547,0.40509,0.66406
13.312,1,0.7566,0.32422,0.47456,0.68555
13.32,1,0.7566,0.32031,0.5,0.64062
13.328,1,0.75073,0.30469,0.51957,0.64062
13.336,1,0.74096,0.30469,0.52544,0.64453
13.344,1,0.72825,0.30078,0.53033,0.6543
13.352,1,0.71163,0.29492,0.52544,0.66016
13.36,1,0.69208,0.29492,0.53033,0.66016
13.368,1,0.6696,0.30078,0.53523,0.6543
13.376,1,0.64809,0.30469,0.54012,0.65039
13.384,1,0.62561,0.30469,0.54012,0.65039
13.392,1,0.6002,0.30469,0.54501,0.64453
13.4,1,0.57283,0.31445,0.54501,0.64062
13.408,1,0.54448,0.32031,0.54501,0.63477
13.416,1,0.51613,0.32422,0.54501,0.625
13.424,1,0.49071,0.33984,0.5499,0.61914
13.432,1,0.46628,0.34961,0.55479,0.60547
13.44,1,0.44575,0.35938,0.55969,0.5957
13.448,1,0.42815,0.37109,0.56458,0.58398
13.456,1,0.41447,0.38477,0.57534,0.57031
13.464,1,0.40371,0.39453,0.58023,0.56055
13.472,1,0.39687,0.41016,0.58513,0.55078
13.48,1,0.39198,0.41602,0.59002,0.54492
13.488,1,0.38905,0.41992,0.59491,0.54492
13.496,1,0.38807,0.41992,0.59491,0.54492
13.504,1,0.38807,0.42578,0.59002,0.54492
13.512,1,0.38807,0.41992,0.58513,0.54492
13.52,1,0.38905,0.41602,0.58023,0.55078
13.528,1,0.39003,0.41016,0.58023,0.56055
13.536,1,0.39101,0.39453,0.57534,0.57422
13.544,1,0.39198,0.38477,0.57534,0.58984
13.552,1,0.39198,0.375,0.56458,0.59961
13.56,1,0.39101,0.36523,0.55969,0.60938
13.568,1,0.38905,0.36523,0.55969,0.61914
13.576,1,0.3871,0.36523,0.55479,0.61914
13.584,1,0.38514,0.35938,0.55479,0.61914
13.592,1,0.38221,0.36523,0.5499,0.61914
13.6,1,0.37928,0.36523,0.5499,0.61914
13.608,1,0.37537,0.36523,0.5499,0.61914
13.616,1,0.37243,0.36523,0.54501,0.61914
13.624,1,0.36852,0.37109,0.5499,0.61914
13.632,1,0.36461,0.36523,0.54501,0.61914
13.64,1,0.36168,0.375,0.5499,0.61523
13.648,1,0.35777,0.38477,0.55969,0.60938
13.656,0.98534,0.35288,0.39453,0.57534,0.60938
13.664,0.97067,0.34897,0.41016,0.59491,0.59961
13.672,0.94624,0.34506,0.43555,0.61546,0.5957
13.68,0.9218,0.34213,0.43945,0.61057,0.5957
13.688,0.89834,0.33822,0.41602,0.6047,0.59961
13.696,0.87586,0.33431,0.41016,0.58513,0.61523
13.704,0.85435,0.3304,0.39062,0.56458,0.61523
13.712,0.83284,0.32551,0.39062,0.55479,0.61523
13.72,0.80938,0.32063,0.39062,0.55479,0.61914
13.728,0.78592,0.31769,0.37109,0.54501,0.625
13.736,0.76051,0.31574,0.3457,0.53523,0.64062
13.744,0.73607,0.31769,0.33594,0.52544,0.64062
13.752,0.71359,0.32551,0.32422,0.52544,0.64062
13.76,0.69208,0.34018,0.32422,0.51957,0.64062
13.768,0.67155,0.36461,0.32422,0.51957,0.64062
13.776,0.65103,0.39101,0.33008,0.51957,0.64453
13.784,0.6305,0.42131,0.32422,0.51957,0.64062
13.792,0.61095,0.46237,0.33984,0.53033,0.64062
13.8,0.59042,0.50733,0.375,0.57045,0.65039
13.808,0.57087,0.55425,0.41602,0.5998,0.66406
13.816,0.5523,0.59922,0.44922,0.57534,0.64453
13.824,0.53372,0.63832,0.60547,0.5499,0.5293
13.832,0.51711,0.6696,0.70508,0.46477,0.33008
13.84,0.49951,0.69306,0.64062,0.43542,0.31055
13.848,0.48583,0.70772,0.39453,0.44521,0.64453
13.856,0.47116,0.71554,0.35547,0.49022,0.69531
13.864,0.45846,0.71554,0.3457,0.5,0.63477
13.872,0.44673,0.71163,0.33008,0.51468,0.625
13.88,0.435,0.70283,0.32422,0.51957,0.63477
13.888,0.42424,0.6911,0.32422,0.52544,0.63477
13.896,0.41349,0.67546,0.32031,0.53033,0.64062
13.904,0.40371,0.65787,0.32422,0.53033,0.64062
13.912,0.39492,0.63734,0.32422,0.53033,0.63477
13.92,0.38514,0.61388,0.32422,0.53523,0.63477
13.928,0.37732,0.58847,0.33008,0.53523,0.63477
13.936,0.36852,0.56109,0.32422,0.54012,0.625
13.944,0.35973,0.53275,0.33008,0.54012,0.61914
13.952,0.35191,0.5044,0.33984,0.54501,0.61523
13.96,0.34213,0.47605,0.34961,0.54501,0.59961
13.968,0.33333,0.44868,0.35938,0.5499,0.5957
13.976,0.32454,0.42717,0.36523,0.5499,0.58984
13.984,0.31574,0.4086,0.375,0.55479,0.57031
13.992,0.30596,0.39101,0.39062,0.56458,0.56055
14,0.29717,0.37634,0.40039,0.56458,0.55078
14.008,0.28837,0.36364,0.41602,0.57045,0.53906
14.016,0.28055,0.35386,0.42578,0.57045,0.5293
14.024,0.27273,0.34702,0.42969,0.58513,0.52539
14.032,0.26588,0.34213,0.43555,0.58023,0.52539
14.04,0.25806,0.34018,0.43555,0.58513,0.52539
14.048,0.25024,0.33822,0.42969,0.58023,0.5293
14.056,0.24242,0.33724,0.42969,0.59002,0.53516
14.064,0.2346,0.33724,0.42969,0.58513,0.53906
14.072,0.22776,0.33627,0.42578,0.58513,0.55078
14.08,0.22092,0.33627,0.41602,0.57534,0.56055
14.088,0.21505,0.33529,0.40039,0.57534,0.57422
14.096,0.20821,0.33431,0.39062,0.57045,0.58984
14.104,0.20137,0.33236,0.37109,0.57045,0.59961
14.112,0.19453,0.32942,0.36523,0.56458,0.60547
14.12,0.18573,0.32649,0.36523,0.55969,0.61523
14.128,0.17791,0.32356,0.36523,0.55479,0.61523
14.136,0.16911,0.32063,0.36523,0.55969,0.61523
14.144,0.16031,0.31769,0.37109,0.55479,0.61523
14.152,0.15152,0.31378,0.38086,0.55479,0.60938
14.16,0.14174,0.31085,0.38086,0.55479,0.61523
14.168,0.13294,0.30792,0.38477,0.5499,0.61523
14.176,0.12414,0.30596,0.375,0.55479,0.61523
14.184,0.11437,0.30401,0.375,0.55479,0.61914
14.192,0.10557,0.30108,0.38086,0.56458,0.61914
14.2,0.094819,0.29814,0.39453,0.58023,0.61523
14.208,0.084066,0.29423,0.41016,0.59491,0.60938
14.216,0.070381,0.29032,0.42969,0.61057,0.60547
14.224,0.057674,0.28641,0.43555,0.62035,0.59961
14.232,0.045943,0.2825,0.42578,0.61057,0.60547
14.24,0.034213,0.27859,0.41602,0.5998,0.61914
14.248,0.022483,0.27468,0.40039,0.57534,0.61914
14.256,0.01173,0.27077,0.39453,0.55969,0.61914
14.264,0.0058651,0.26686,0.38477,0.55479,0.62891
14.272,0,0.26393,0.36523,0.5499,0.64062
14.28,0,0.26295,0.3457,0.54012,0.64062
14.288,0,0.26295,0.32422,0.53523,0.6543
14.296,0,0.26686,0.32031,0.52544,0.66016
14.304,0,0.27468,0.32031,0.51957,0.6543
14.312,0,0.29032,0.32031,0.52544,0.6543
14.32,0,0.31378,0.32031,0.52544,0.66016
14.328,0,0.34604,0.32422,0.52544,0.6543
14.336,0,0.38416,0.33008,0.53033,0.65039
14.344,0,0.42717,0.34961,0.55969,0.6543
14.352,0,0.47214,0.40039,0.59491,0.66992
14.36,0,0.51515,0.42969,0.5998,0.65039
14.368,0,0.55425,0.53906,0.5499,0.58008
14.376,0,0.5826,0.66016,0.46967,0.36523
14.384,0,0.60411,0.67969,0.4501,0.31445
14.392,0,0.61975,0.43945,0.47456,0.625
14.4,0,0.6305,0.3457,0.50489,0.7207
14.408,0,0.63343,0.33984,0.50978,0.66016
14.416,0,0.63148,0.33984,0.51957,0.63477
14.424,0,0.62463,0.33984,0.52544,0.62891
14.432,0,0.61388,0.33594,0.53033,0.63477
14.44,0,0.59824,0.32422,0.53523,0.64062
14.448,0,0.58065,0.32422,0.53523,0.64062
14.456,0,0.56012,0.32422,0.53523,0.64062
14.464,0,0.53763,0.32422,0.53523,0.63477
14.472,0,0.51613,0.33594,0.54012,0.62891
14.48,0,0.49462,0.33008,0.54012,0.62891
14.488,0,0.46725,0.33594,0.54501,0.625
14.496,0,0.43695,0.3457,0.54012,0.61914
14.504,0,0.4086,0.35938,0.54501,0.61523
14.512,0,0.38319,0.36523,0.54501,0.60547
14.52,0,0.3607,0.375,0.54501,0.5957
14.528,0,0.34018,0.38477,0.54501,0.58398
14.536,0,0.32356,0.4043,0.5499,0.57031
14.544,0,0.31085,0.41602,0.55969,0.55078
14.552,0,0.30108,0.42578,0.56458,0.54492
14.56,0,0.29521,0.43555,0.57045,0.53906
14.568,0,0.29228,0.43945,0.57534,0.5293
14.576,0,0.2913,0.45508,0.57534,0.52539
14.584,0,0.2913,0.44922,0.57534,0.5293
14.592,0,0.29228,0.44922,0.58023,0.5293
14.6,0,0.29326,0.44922,0.58023,0.52539
14.608,0,0.29521,0.44922,0.58023,0.53516
14.616,0,0.29619,0.44531,0.57534,0.53906
14.624,0,0.29619,0.42969,0.57534,0.55078
14.632,0,0.29619,0.41602,0.57534,0.56445
14.64,0,0.29619,0.4043,0.57045,0.58008
14.648,0,0.29423,0.39062,0.57045,0.58984
14.656,0,0.29326,0.38086,0.56458,0.59961
14.664,0,0.29032,0.375,0.55479,0.60547
14.672,0,0.28837,0.38086,0.55479,0.60547
14.68,0,0.28739,0.38086,0.55479,0.60938
14.688,0,0.28543,0.38086,0.55479,0.60938
14.696,0,0.28348,0.38477,0.55479,0.60938
14.704,0,0.28152,0.39062,0.55479,0.60938
14.712,0,0.27957,0.39062,0.55479,0.60938
14.72,0,0.27664,0.39062,0.55479,0.61523
14.728,0,0.27468,0.38086,0.55969,0.61523
14.736,0,0.27273,0.39062,0.56458,0.60938
14.744,0,0.26979,0.40039,0.58023,0.60938
14.752,0,0.26686,0.41602,0.59491,0.60547
14.76,0,0.26393,0.43555,0.61546,0.59961
14.768,0,0.261,0.44531,0.62035,0.5957
14.776,0,0.25806,0.43555,0.61546,0.5957
14.784,0,0.25611,0.41602,0.61057,0.60938
14.792,0,0.2522,0.41016,0.58513,0.61914
14.8,0,0.24927,0.40039,0.56458,0.61914
14.808,0,0.24438,0.39062,0.57045,0.625
14.816,0,0.24047,0.375,0.55479,0.63477
14.824,0,0.23754,0.35938,0.54501,0.64062
14.832,0,0.23656,0.33984,0.53523,0.64453
14.84,0,0.23851,0.33008,0.53033,0.6543
14.848,0,0.24438,0.32422,0.53033,0.6543
14.856,0,0.25709,0.32422,0.53523,0.6543
14.864,0,0.27664,0.32422,0.53523,0.65039
14.872,0,0.29912,0.32422,0.53523,0.65039
14.88,0,0.32551,0.32422,0.53523,0.65039
14.888,0,0.35973,0.35547,0.55969,0.6543
14.896,0,0.39883,0.39062,0.5998,0.67578
14.904,0,0.43988,0.42578,0.61057,0.66406
14.912,0,0.47996,0.50586,0.55479,0.61523
14.92,0,0.51515,0.6543,0.48532,0.39453
14.928,0,0.54545,0.68945,0.4501,0.32031
14.936,0,0.56794,0.49023,0.47456,0.56445
14.944,0,0.5826,0.34961,0.50489,0.73047
14.952,0,0.58944,0.3457,0.51957,0.66992
14.96,0,0.59042,0.33984,0.53033,0.63477
14.968,0,0.58651,0.33984,0.53523,0.62891
14.976,0,0.57869,0.33984,0.54012,0.63477
14.984,0,0.56598,0.33594,0.53523,0.64062
14.992,0,0.55034,0.33984,0.54012,0.64062
15,0,0.53177,0.33984,0.54012,0.64062
15.008,0,0.51124,0.33984,0.52544,0.63477
15.016,0,0.48974,0.33984,0.53033,0.62891
15.024,0,0.46628,0.33984,0.54501,0.62891
15.032,0,0.44184,0.33984,0.54501,0.625
15.04,0,0.41838,0.34961,0.5499,0.62891
15.048,0,0.39492,0.36523,0.54501,0.60938
15.056,0,0.37341,0.37109,0.5499,0.60547
15.064,0,0.35386,0.37109,0.56458,0.59961
15.072,0,0.33822,0.38477,0.57045,0.58398
15.08,0,0.32747,0.40039,0.57045,0.57031
15.088,0,0.31672,0.41992,0.57045,0.55078
15.096,0,0.3089,0.43555,0.57045,0.53906
15.104,0,0.30205,0.43945,0.57045,0.53516
15.112,0,0.29814,0.45508,0.57045,0.52539
15.12,0,0.29521,0.44922,0.58023,0.52539
15.128,0,0.29326,0.46094,0.59002,0.52539
15.136,0,0.29326,0.46094,0.58023,0.52539
15.144,0,0.29228,0.46094,0.57045,0.5293
15.152,0,0.29228,0.46094,0.58513,0.53516
15.16,0,0.29228,0.44922,0.59491,0.54492
15.168,0,0.29326,0.43555,0.58023,0.55078
15.176,0,0.29423,0.41602,0.57534,0.56445
15.184,0,0.29423,0.4043,0.57045,0.58008
15.192,0,0.29423,0.39453,0.57534,0.5957
15.2,0,0.29326,0.39062,0.5499,0.59961
15.208,0,0.2913,0.38086,0.57045,0.60938
15.216,0,0.29032,0.375,0.58023,0.60938
15.224,0,0.28837,0.38086,0.57534,0.60938
15.232,0,0.28641,0.375,0.57045,0.61523
15.24,0,0.28543,0.39062,0.56458,0.60547
15.248,0,0.28348,0.39453,0.55969,0.60547
15.256,0,0.28152,0.39453,0.5499,0.60547
15.264,0,0.27957,0.39062,0.55479,0.61523
15.272,0,0.27859,0.39062,0.56458,0.60938
15.28,0,0.27664,0.40039,0.57045,0.60938
15.288,0,0.27468,0.41016,0.58513,0.61523
15.296,0,0.27273,0.42578,0.59491,0.60547
15.304,0,0.26979,0.42969,0.61057,0.60938
15.312,0,0.26686,0.46094,0.61546,0.5957
15.32,0,0.26393,0.44922,0.61546,0.5957
15.328,0,0.261,0.42969,0.61057,0.60938
15.336,0,0.25709,0.41016,0.59002,0.61914
15.344,0,0.25415,0.4043,0.56458,0.61523
15.352,0,0.25122,0.41016,0.5499,0.60938
15.36,0,0.24829,0.38477,0.5499,0.62891
15.368,0,0.24633,0.36523,0.55479,0.64062
15.376,0,0.24536,0.34961,0.54012,0.64453
15.384,0,0.24536,0.3457,0.54012,0.64453
15.392,0,0.24927,0.33984,0.53523,0.65039
15.4,0,0.25904,0.33594,0.53033,0.64453
15.408,0,0.27566,0.33594,0.53033,0.65039
15.416,0,0.3001,0.33008,0.53523,0.65039
15.424,0,0.33138,0.33984,0.54012,0.64062
15.432,0,0.3695,0.35938,0.55479,0.64062
15.44,0,0.41056,0.40039,0.59491,0.66016
15.448,0,0.45259,0.44531,0.6047,0.66406
15.456,0,0.49365,0.48438,0.56458,0.62891
15.464,0,0.52981,0.6543,0.5,0.42578
15.472,0,0.55621,0.68945,0.45988,0.30078
15.48,0,0.57576,0.5293,0.46477,0.49414
15.488,0,0.59042,0.35938,0.49022,0.70898
15.496,0,0.59922,0.34961,0.51468,0.67578
15.504,0,0.60215,0.35938,0.52544,0.625
15.512,0,0.59922,0.34961,0.53033,0.61914
15.52,0,0.59238,0.34961,0.53523,0.61914
15.528,0,0.58065,0.33984,0.53523,0.625
15.536,0,0.56598,0.33984,0.53523,0.62891
15.544,0,0.54839,0.33594,0.53523,0.63477
15.552,0,0.52884,0.33984,0.53523,0.62891
15.56,0,0.50733,0.3457,0.53523,0.625
15.568,0,0.4868,0.3457,0.53523,0.625
15.576,0,0.46725,0.34961,0.54012,0.61914
15.584,0,0.44477,0.35547,0.54012,0.61914
15.592,0,0.42131,0.35938,0.53523,0.61523
15.6,0,0.39883,0.36523,0.54012,0.60547
15.608,0,0.3783,0.375,0.5499,0.5957
15.616,0,0.35973,0.39062,0.54012,0.58398
15.624,0,0.34409,0.40039,0.54501,0.57031
15.632,0,0.33138,0.41016,0.55479,0.56055
15.64,0.0029325,0.3216,0.41992,0.57534,0.54492
15.648,0.0058651,0.31476,0.43555,0.57534,0.53516
15.656,0.010753,0.30987,0.45508,0.58023,0.52539
15.664,0.016618,0.30694,0.46094,0.57534,0.51562
15.672,0.021505,0.30499,0.46094,0.59002,0.51953
15.68,0.026393,0.30499,0.46094,0.59002,0.52539
15.688,0.031281,0.30499,0.45508,0.59002,0.52539
15.696,0.036168,0.30596,0.45508,0.58513,0.53516
15.704,0.041056,0.30694,0.44531,0.58513,0.53906
15.712,0.045943,0.30694,0.43945,0.57534,0.54492
15.72,0.051808,0.30792,0.42578,0.57534,0.55469
15.728,0.057674,0.30792,0.41016,0.57045,0.57031
15.736,0.063539,0.30792,0.39453,0.56458,0.58008
15.744,0.068426,0.30792,0.39062,0.55479,0.58984
15.752,0.074291,0.30694,0.38477,0.5499,0.5957
15.76,0.079179,0.30499,0.38086,0.55969,0.59961
15.768,0.085044,0.30401,0.38477,0.5499,0.59961
15.776,0.089932,0.30303,0.38477,0.5499,0.59961
15.784,0.094819,0.30108,0.38477,0.54501,0.59961
15.792,0.099707,0.29912,0.38477,0.5499,0.60547
15.8,0.10264,0.29619,0.38086,0.5499,0.60547
15.808,0.10655,0.29423,0.38086,0.55479,0.61523
15.816,0.10948,0.29228,0.375,0.5499,0.61523
15.824,0.11241,0.29032,0.38477,0.55479,0.61914
15.832,0.11437,0.28739,0.39062,0.56458,0.60938
15.84,0.1173,0.28446,0.40039,0.59002,0.61523
15.848,0.11926,0.28152,0.41016,0.59491,0.60938
15.856,0.12219,0.27761,0.44531,0.61546,0.5957
15.864,0.12317,0.27468,0.44922,0.61057,0.58398
15.872,0.12512,0.27175,0.43555,0.6047,0.5957
15.88,0.12708,0.26979,0.41602,0.59002,0.61523
15.888,0.12805,0.26686,0.41016,0.56458,0.61523
15.896,0.13099,0.26295,0.41016,0.55479,0.60938
15.904,0.13392,0.25904,0.39453,0.5499,0.61914
15.912,0.13881,0.25611,0.38477,0.54501,0.625
15.92,0.14272,0.25415,0.36523,0.53523,0.63477
15.928,0.14858,0.25513,0.35547,0.52544,0.64062
15.936,0.15445,0.261,0.33984,0.51957,0.64062
15.944,0.16129,0.27175,0.33984,0.51957,0.64062
15.952,0.16911,0.29032,0.33984,0.51957,0.64062
15.96,0.17986,0.31672,0.33984,0.51957,0.64453
15.968,0.19062,0.34506,0.33984,0.51957,0.64062
15.976,0.2043,0.37634,0.34961,0.53523,0.64062
15.984,0.21799,0.41447,0.39453,0.58023,0.66016
15.992,0.23265,0.45552,0.43555,0.6047,0.66406
16,0.24731,0.49658,0.4707,0.57045,0.63477
16.008,0.26393,0.5347,0.64062,0.53523,0.47461
16.016,0.27957,0.56696,0.70898,0.46477,0.30078
16.024,0.30108,0.5914,0.59961,0.44031,0.4043
16.032,0.32258,0.60899,0.375,0.44521,0.66016
16.04,0.34897,0.61877,0.34961,0.49022,0.69531
16.048,0.37537,0.6217,0.33984,0.50489,0.62891
16.056,0.40469,0.61975,0.33984,0.51957,0.625
16.064,0.435,0.6129,0.33594,0.53033,0.63477
16.072,0.46628,0.60313,0.33008,0.53033,0.64062
16.08,0.49853,0.5914,0.32422,0.53523,0.65039
16.088,0.52786,0.57576,0.33008,0.53523,0.64453
16.096,0.55816,0.55816,0.33008,0.53523,0.64062
16.104,0.58651,0.53763,0.32422,0.53523,0.64062
16.112,0.61584,0.51613,0.33008,0.54012,0.64062
16.12,0.64614,0.49365,0.33594,0.53523,0.63477
16.128,0.67742,0.47019,0.33984,0.54501,0.625
16.136,0.70968,0.44673,0.3457,0.54012,0.61914
16.144,0.74291,0.42424,0.35547,0.54501,0.60547
16.152,0.77322,0.40371,0.36523,0.54501,0.5957
16.16,0.80352,0.38416,0.37109,0.54501,0.5957
16.168,0.83284,0.3695,0.38477,0.5499,0.57422
16.176,0.86119,0.35875,0.40039,0.55969,0.57031
16.184,0.8915,0.348,0.41016,0.56458,0.55469
16.192,0.92278,0.34018,0.42578,0.57045,0.54492
16.2,0.95406,0.33431,0.43555,0.57045,0.53516
16.208,0.98534,0.3304,0.43555,0.57534,0.5293
16.216,0.99316,0.32845,0.43945,0.58023,0.53516
16.224,1,0.32845,0.44922,0.59002,0.5293
16.232,1,0.32845,0.43945,0.58513,0.53516
16.24,1,0.32942,0.43945,0.58023,0.53516
16.248,1,0.3304,0.43555,0.57534,0.54492
16.256,1,0.33138,0.42578,0.57045,0.55469
16.264,1,0.33236,0.41016,0.56458,0.56445
16.272,1,0.33236,0.39453,0.56458,0.57422
16.28,1,0.33333,0.38477,0.55969,0.58984
16.288,1,0.33333,0.375,0.55969,0.59961
16.296,1,0.33333,0.375,0.55479,0.60547
16.304,1,0.33236,0.37109,0.55479,0.60938
16.312,1,0.33138,0.37109,0.54501,0.60938
16.32,1,0.3304,0.36523,0.54501,0.61523
16.328,1,0.32845,0.375,0.5499,0.60938
16.336,1,0.32649,0.38086,0.54501,0.60938
16.344,1,0.32551,0.375,0.5499,0.61523
16.352,1,0.32356,0.37109,0.54501,0.61523
16.36,1,0.32063,0.38086,0.54501,0.61523
16.368,1,0.31965,0.38086,0.54501,0.61523
16.376,1,0.31769,0.38477,0.55479,0.61914
16.384,1,0.31574,0.40039,0.57045,0.61523
16.392,1,0.31378,0.41602,0.59002,0.60938
16.4,1,0.31085,0.44531,0.6047,0.59961
16.408,1,0.30792,0.44922,0.61546,0.5957
16.416,1,0.30401,0.42969,0.5998,0.59961
16.424,1,0.30108,0.41602,0.59002,0.61523
16.432,1,0.29717,0.40039,0.55479,0.61914
16.44,1,0.29326,0.40039,0.54501,0.61523
16.448,1,0.29032,0.39062,0.54012,0.61914
16.456,1,0.28739,0.37109,0.54012,0.63477
16.464,1,0.28641,0.34961,0.52544,0.64062
16.472,1,0.28837,0.33984,0.51957,0.64453
16.48,1,0.29326,0.32422,0.51468,0.64453
16.488,1,0.30303,0.32031,0.50978,0.6543
16.496,1,0.31965,0.32422,0.50978,0.6543
16.504,1,0.34409,0.33008,0.50978,0.65039
16.512,1,0.37634,0.32422,0.50489,0.64453
16.52,1,0.41544,0.33008,0.51468,0.65039
16.528,1,0.45846,0.37109,0.5499,0.66016
16.536,1,0.52884,0.41016,0.59002,0.67578
16.544,1,0.61388,0.45508,0.59491,0.6543
16.552,1,0.67742,0.61523,0.57045,0.55078
16.56,1,0.72434,0.73047,0.49511,0.33984
16.568,1,0.7566,0.74023,0.42955,0.30469
16.576,1,0.77615,0.41602,0.4002,0.58398
16.584,1,0.79081,0.34961,0.45499,0.66406
16.592,1,0.79765,0.33008,0.48043,0.64062
16.6,1,0.79765,0.32031,0.49511,0.63477
16.608,1,0.79277,0.32031,0.50978,0.64062
16.616,1,0.78299,0.32031,0.51468,0.64453
16.624,1,0.76833,0.32031,0.51957,0.64453
16.632,1,0.74976,0.32031,0.51957,0.64062
16.64,1,0.72825,0.32031,0.51957,0.64453
16.648,1,0.70381,0.32031,0.51957,0.64062
16.656,1,0.67644,0.32422,0.52544,0.64062
16.664,1,0.64712,0.33008,0.53033,0.62891
16.672,1,0.62072,0.33008,0.53523,0.625
16.68,1,0.59531,0.33594,0.54012,0.61914
16.688,1,0.56696,0.33984,0.54501,0.61914
16.696,1,0.53763,0.3457,0.54501,0.60938
16.704,1,0.50929,0.35547,0.54501,0.59961
16.712,1,0.48289,0.36523,0.54501,0.5957
16.72,1,0.46041,0.375,0.5499,0.58008
16.728,1,0.44184,0.39062,0.56458,0.56445
16.736,1,0.42717,0.39453,0.57045,0.55469
16.744,1,0.4174,0.41016,0.57534,0.55078
16.752,1,0.41056,0.41602,0.57045,0.54492
16.76,1,0.40567,0.42969,0.58023,0.5293
16.768,1,0.40371,0.42969,0.58513,0.5293
16.776,1,0.40371,0.42969,0.58023,0.53906
16.784,1,0.40469,0.43555,0.57534,0.54492
16.792,1,0.40567,0.42969,0.58023,0.54492
16.8,1,0.40665,0.41992,0.57045,0.54492
16.808,1,0.40762,0.41016,0.56458,0.56445
16.816,1,0.4086,0.40039,0.55969,0.57422
16.824,1,0.4086,0.39062,0.55479,0.58984
16.832,1,0.4086,0.38086,0.5499,0.5957
16.84,1,0.40762,0.375,0.5499,0.60547
16.848,1,0.40567,0.375,0.5499,0.60938
16.856,1,0.40469,0.375,0.5499,0.61914
16.864,1,0.40469,0.36523,0.54501,0.61914
16.872,1,0.40371,0.36523,0.54501,0.61914
16.88,1,0.40274,0.37109,0.54501,0.61523
16.888,1,0.40078,0.37109,0.54501,0.61523
16.896,1,0.39883,0.375,0.54501,0.61523
16.904,1,0.39687,0.36523,0.54501,0.61914
16.912,1,0.39296,0.37109,0.5499,0.61914
16.92,1,0.38905,0.38086,0.55479,0.61523
16.928,1,0.38514,0.40039,0.57045,0.60547
16.936,1,0.37928,0.41602,0.59002,0.59961
16.944,1,0.37341,0.43555,0.61546,0.58984
16.952,1,0.36852,0.44531,0.61546,0.58398
16.96,1,0.36364,0.42969,0.5998,0.5957
16.968,0.9912,0.3607,0.41602,0.59002,0.60547
16.976,0.9824,0.35679,0.40039,0.56458,0.61523
16.984,0.95992,0.35288,0.39062,0.5499,0.60938
16.992,0.93646,0.34897,0.38477,0.55479,0.61914
17,0.91105,0.34409,0.375,0.54501,0.625
17.008,0.88563,0.34115,0.34961,0.53033,0.63477
17.016,0.86022,0.34213,0.33008,0.51957,0.64062
17.024,0.83382,0.34702,0.32422,0.51957,0.64062
17.032,0.80841,0.3607,0.32031,0.51957,0.64453
17.04,0.78299,0.38319,0.32422,0.51468,0.64062
17.048,0.76051,0.41544,0.33008,0.50978,0.64062
17.056,0.739,0.4565,0.32422,0.51468,0.64062
17.064,0.71848,0.49756,0.32422,0.51957,0.64062
17.072,0.69892,0.54057,0.35938,0.55479,0.65039
17.08,0.68035,0.58944,0.40039,0.59002,0.66406
17.088,0.66178,0.64027,0.43945,0.59491,0.65039
17.096,0.64418,0.68817,0.57422,0.55479,0.57031
17.104,0.62659,0.72825,0.68945,0.47456,0.35547
17.112,0.61095,0.76051,0.69922,0.43542,0.31055
17.12,0.59531,0.78299,0.42578,0.42955,0.60547
17.128,0.58065,0.79765,0.33984,0.47456,0.69922
17.136,0.56696,0.80352,0.33008,0.49022,0.65039
17.144,0.55327,0.80352,0.32031,0.5,0.63477
17.152,0.53861,0.79765,0.32031,0.51468,0.63477
17.16,0.52493,0.7869,0.31055,0.51957,0.64062
17.168,0.51026,0.77419,0.30469,0.51468,0.65039
17.176,0.4956,0.75953,0.31445,0.51957,0.64453
17.184,0.48094,0.73998,0.31445,0.51468,0.64062
17.192,0.46628,0.71848,0.32031,0.51957,0.64062
17.2,0.45161,0.69306,0.31445,0.51957,0.64062
17.208,0.43793,0.66569,0.32031,0.52544,0.64062
17.216,0.42424,0.63636,0.32031,0.53033,0.62891
17.224,0.41153,0.60508,0.32422,0.53033,0.625
17.232,0.39883,0.5738,0.33008,0.53033,0.61914
17.24,0.38416,0.5435,0.33984,0.53523,0.61523
17.248,0.3695,0.51417,0.35547,0.53523,0.5957
17.256,0.35386,0.4868,0.36523,0.54501,0.58984
17.264,0.33822,0.4653,0.36523,0.54501,0.58008
17.272,0.32454,0.4477,0.38477,0.54501,0.56445
17.28,0.30987,0.43206,0.39453,0.55479,0.55078
17.288,0.29717,0.41838,0.41016,0.56458,0.54492
17.296,0.28348,0.4086,0.41602,0.56458,0.54492
17.304,0.26979,0.40078,0.42578,0.57045,0.53516
17.312,0.25611,0.39687,0.42969,0.57045,0.53516
17.32,0.24242,0.39394,0.42969,0.57045,0.53906
17.328,0.22874,0.39296,0.42578,0.57045,0.54492
17.336,0.21505,0.39296,0.41992,0.57045,0.54492
17.344,0.20235,0.39198,0.41602,0.56458,0.55078
17.352,0.19062,0.39101,0.40039,0.56458,0.57031
17.36,0.17791,0.39003,0.39062,0.55479,0.58398
17.368,0.16813,0.38905,0.38086,0.5499,0.5957
17.376,0.15836,0.38807,0.37109,0.55479,0.59961
17.384,0.14956,0.38514,0.37109,0.54501,0.60938
17.392,0.14174,0.38221,0.36523,0.54501,0.61914
17.4,0.13196,0.3783,0.35938,0.54501,0.61914
17.408,0.12317,0.37341,0.36523,0.54501,0.61523
17.416,0.11437,0.3695,0.36523,0.54012,0.60938
17.424,0.10459,0.36559,0.37109,0.54501,0.60938
17.432,0.095797,0.36168,0.36523,0.54012,0.60938
17.44,0.086999,0.35777,0.36523,0.54501,0.61523
17.448,0.078201,0.35386,0.36523,0.54012,0.61914
17.456,0.070381,0.34897,0.37109,0.54501,0.61914
17.464,0.059629,0.34604,0.38086,0.5499,0.61523
17.472,0.049853,0.34311,0.39453,0.57045,0.60938
17.48,0.037146,0.3392,0.41602,0.58513,0.60547
17.488,0.025415,0.33529,0.43555,0.5998,0.59961
17.496,0.012708,0.3304,0.43945,0.6047,0.5957
17.504,0,0.32551,0.42578,0.59491,0.59961
17.512,0,0.32063,0.41602,0.58023,0.61523
17.52,0,0.31574,0.40039,0.55479,0.61914
17.528,0,0.30987,0.40039,0.54012,0.61523
17.536,0,0.30499,0.39062,0.54012,0.61914
17.544,0,0.3001,0.375,0.53523,0.62891
17.552,0,0.29717,0.35547,0.51468,0.64062
17.56,0,0.29717,0.33594,0.50489,0.64453
17.568,0,0.29912,0.33008,0.51468,0.64453
17.576,0,0.30694,0.33594,0.51468,0.65039
17.584,0,0.32063,0.33008,0.51468,0.64453
17.592,0,0.34311,0.32422,0.50978,0.65039
17.6,0,0.37439,0.33008,0.50978,0.64453
17.608,0,0.41349,0.33984,0.50978,0.64062
17.616,0,0.45846,0.375,0.5499,0.64453
17.624,0,0.50733,0.41602,0.58513,0.66406
17.632,0,0.55523,0.44922,0.55969,0.64062
17.64,0,0.6002,0.58984,0.54012,0.55078
17.648,0,0.63832,0.68555,0.4501,0.33984
17.656,0,0.66862,0.69531,0.42955,0.30469
17.664,0,0.68817,0.42578,0.4501,0.63477
17.672,0,0.69892,0.34961,0.48532,0.70508
17.68,0,0.70479,0.34961,0.49022,0.64453
17.688,0,0.70479,0.3457,0.50489,0.61914
17.696,0,0.69892,0.33984,0.50978,0.625
17.704,0,0.68817,0.33594,0.50489,0.63477
17.712,0,0.67253,0.33008,0.50978,0.63477
17.72,0,0.65396,0.33008,0.51468,0.64062
17.728,0,0.63245,0.33594,0.51957,0.63477
17.736,0,0.60704,0.33984,0.51468,0.62891
17.744,0,0.57967,0.33984,0.51957,0.61914
17.752,0,0.54936,0.33984,0.51468,0.61914
17.76,0,0.51906,0.34961,0.51957,0.61914
17.768,0,0.49071,0.35547,0.51957,0.60938
17.776,0,0.46628,0.36523,0.52544,0.59961
17.784,0,0.43891,0.37109,0.52544,0.5957
17.792,0,0.41153,0.38477,0.52544,0.57422
17.8,0,0.38612,0.39453,0.53523,0.56445
17.808,0,0.36364,0.4043,0.54501,0.55469
17.816,0,0.34409,0.41602,0.54501,0.54492
17.824,0,0.32942,0.42578,0.54501,0.53516
17.832,0,0.31672,0.43555,0.54501,0.5293
17.84,0,0.30792,0.43945,0.55479,0.52539
17.848,0,0.30205,0.44922,0.55479,0.51953
17.856,0,0.29912,0.44922,0.56458,0.51953
17.864,0,0.29814,0.44922,0.56458,0.52539
17.872,0,0.29912,0.45508,0.57045,0.5293
17.88,0,0.3001,0.44922,0.56458,0.52539
17.888,0,0.30205,0.43945,0.56458,0.54492
17.896,0,0.30401,0.42969,0.56458,0.55078
17.904,0,0.30596,0.41602,0.56458,0.57031
17.912,0,0.30792,0.40039,0.55969,0.57422
17.92,0,0.3089,0.39453,0.55969,0.58398
17.928,0,0.30987,0.38477,0.5499,0.5957
17.936,0,0.3089,0.38086,0.54501,0.5957
17.944,0,0.30792,0.38086,0.54501,0.5957
17.952,0,0.30694,0.38086,0.54501,0.59961
17.96,0,0.30499,0.375,0.54501,0.60938
17.968,0,0.30401,0.375,0.54501,0.60938
17.976,0,0.30401,0.38086,0.54501,0.60547
17.984,0,0.30303,0.38086,0.54501,0.60547
17.992,0,0.30108,0.38477,0.54501,0.60547
18,0,0.3001,0.38477,0.54501,0.60938
18.008,0,0.29814,0.39062,0.55479,0.60547
18.016,0,0.29619,0.41016,0.56458,0.59961
18.024,0,0.29521,0.41992,0.58023,0.5957
18.032,0,0.29326,0.43555,0.59491,0.5957
18.04,0,0.2913,0.43555,0.6047,0.5957
18.048,0,0.28935,0.43555,0.59491,0.5957
18.056,0,0.28641,0.41992,0.58513,0.60938
18.064,0,0.28543,0.41016,0.5499,0.61523
18.072,0,0.28446,0.4043,0.54501,0.60938
18.08,0,0.2825,0.39453,0.54501,0.61914
18.088,0,0.27957,0.38086,0.54012,0.625
18.096,0,0.27761,0.35938,0.52544,0.64062
18.104,0,0.27664,0.33984,0.51957,0.64453
18.112,0,0.27957,0.33008,0.51957,0.64453
18.12,0,0.28641,0.32422,0.51468,0.65039
18.128,0,0.30108,0.33008,0.51468,0.65039
18.136,0,0.32258,0.33594,0.51468,0.64453
18.144,0,0.35288,0.33008,0.51468,0.64453
18.152,0,0.39101,0.33984,0.51957,0.64453
18.16,0,0.43402,0.375,0.55969,0.66016
18.168,0,0.4741,0.41016,0.59002,0.67578
18.176,0,0.51222,0.43945,0.55969,0.6543
18.184,0,0.55327,0.5957,0.54012,0.53906
18.192,0,0.5914,0.67969,0.45499,0.33984
18.2,0,0.62463,0.61914,0.44031,0.31445
18.208,0,0.65103,0.4043,0.46967,0.66406
18.216,0,0.66764,0.33984,0.49511,0.72461
18.224,0,0.67644,0.33984,0.49511,0.64453
18.232,0,0.6784,0.33984,0.50489,0.625
18.24,0,0.67351,0.33984,0.51957,0.625
18.248,0,0.66373,0.33594,0.51468,0.63477
18.256,0,0.64907,0.33594,0.51957,0.64062
18.264,0,0.63343,0.33594,0.51957,0.64062
18.272,0,0.61584,0.33594,0.52544,0.64062
18.28,0,0.59433,0.33984,0.52544,0.63477
18.288,0,0.57087,0.33594,0.52544,0.625
18.296,0,0.54448,0.3457,0.53033,0.61914
18.304,0,0.51711,0.35547,0.53033,0.61914
18.312,0,0.48974,0.35547,0.52544,0.60938
18.32,0,0.46334,0.36523,0.52544,0.59961
18.328,0,0.43793,0.375,0.53033,0.5957
18.336,0,0.41544,0.38477,0.54012,0.58398
18.344,0,0.39589,0.39062,0.54012,0.57031
18.352,0,0.38025,0.4043,0.54501,0.55469
18.36,0,0.36755,0.41992,0.54501,0.54492
18.368,0,0.35875,0.42578,0.5499,0.54492
18.376,0,0.35386,0.43555,0.55479,0.5293
18.384,0,0.34897,0.44531,0.55969,0.52539
18.392,0.00097752,0.34506,0.44922,0.55969,0.52539
18.4,0.001955,0.34311,0.45508,0.57045,0.52539
18.408,0.0058651,0.34213,0.46094,0.57045,0.52539
18.416,0.0097752,0.34213,0.44922,0.57045,0.53516
18.424,0.013685,0.34115,0.43945,0.56458,0.54492
18.432,0.017595,0.34115,0.43555,0.56458,0.54492
18.44,0.020528,0.34115,0.41992,0.57045,0.56445
18.448,0.024438,0.34115,0.4043,0.56458,0.57031
18.456,0.02737,0.34213,0.40039,0.56458,0.58398
18.464,0.030303,0.34213,0.39062,0.55969,0.5957
18.472,0.033236,0.34311,0.38477,0.55479,0.59961
18.48,0.036168,0.34213,0.38086,0.5499,0.60547
18.488,0.038123,0.34115,0.38477,0.5499,0.60547
18.496,0.041056,0.34018,0.38477,0.54501,0.60547
18.504,0.043988,0.33822,0.38086,0.54501,0.60938
18.512,0.045943,0.33627,0.37109,0.5499,0.61523
18.52,0.046921,0.33431,0.37109,0.5499,0.61523
18.528,0.047898,0.33138,0.38086,0.54501,0.61523
18.536,0.046921,0.32845,0.38477,0.54501,0.61523
18.544,0.045943,0.32551,0.38477,0.55479,0.61523
18.552,0.043988,0.32258,0.39062,0.56458,0.61523
18.56,0.042033,0.31965,0.40039,0.57534,0.61523
18.568,0.040078,0.31769,0.41602,0.59002,0.61523
18.576,0.038123,0.31574,0.44531,0.61546,0.60547
18.584,0.033236,0.30596,0.45508,0.61546,0.5957
18.592,0.028348,0.29228,0.42969,0.6047,0.60938
18.6,0.021505,0.28348,0.41602,0.58513,0.61914
18.608,0.01564,0.27761,0.4043,0.55969,0.61914
18.616,0.0078201,0.27273,0.41016,0.5499,0.60938
18.624,0.00097752,0.26882,0.40039,0.5499,0.61914
18.632,0,0.26588,0.38086,0.54501,0.625
18.64,0,0.26295,0.35547,0.54501,0.64062
18.648,0,0.261,0.33984,0.53523,0.64062
18.656,0,0.26295,0.3457,0.51957,0.63477
18.664,0,0.26882,0.3457,0.50978,0.63477
18.672,0,0.27859,0.3457,0.51957,0.64062
18.68,0,0.29521,0.33984,0.52544,0.63477
18.688,0,0.32063,0.33984,0.53033,0.64062
18.696,0,0.35288,0.35547,0.54012,0.64062
18.704,0,0.39101,0.39062,0.57534,0.65039
18.712,0,0.43304,0.42578,0.6047,0.66406
18.72,0,0.47507,0.45508,0.57534,0.65039
18.728,0,0.51613,0.60938,0.54012,0.52539
18.736,0,0.5523,0.69531,0.45499,0.32031
18.744,0,0.58162,0.61914,0.44521,0.30469
18.752,0,0.60411,0.40039,0.46967,0.66016
18.76,0,0.61779,0.35547,0.50489,0.71484
18.768,0,0.62463,0.35547,0.50978,0.64062
18.776,0,0.62659,0.35547,0.51957,0.61914
18.784,0,0.62268,0.35938,0.52544,0.61914
18.792,0,0.61584,0.34961,0.52544,0.61914
18.8,0,0.60411,0.3457,0.53033,0.625
18.808,0,0.58944,0.3457,0.53033,0.62891
18.816,0,0.57087,0.3457,0.52544,0.625
18.824,0,0.55034,0.34961,0.53033,0.61914
18.832,0,0.52786,0.34961,0.53033,0.61914
18.84,0,0.50342,0.35547,0.54501,0.61914
18.848,0,0.47898,0.34961,0.54501,0.61523
18.856,0,0.45357,0.36523,0.54501,0.60547
18.864,0,0.43206,0.36523,0.5499,0.59961
18.872,0,0.41349,0.38086,0.55479,0.5957
18.88,0,0.39394,0.39062,0.55969,0.58008
18.888,0,0.37634,0.4043,0.56458,0.56445
18.896,0,0.35973,0.41602,0.56458,0.55469
18.904,0,0.34702,0.42969,0.57045,0.53906
18.912,0,0.33724,0.43945,0.57045,0.52539
18.92,0,0.32942,0.45508,0.57045,0.51953
18.928,0,0.32551,0.46094,0.57534,0.51562
18.936,0,0.32258,0.46094,0.58023,0.51562
18.944,0,0.32063,0.46094,0.58513,0.51953
18.952,0,0.32063,0.46094,0.58513,0.51953
18.96,0,0.32063,0.46094,0.59002,0.51562
18.968,0,0.3216,0.45508,0.58513,0.52539
18.976,0,0.32258,0.44531,0.58023,0.53516
18.984,0,0.32356,0.42969,0.57534,0.54492
18.992,0,0.32356,0.41602,0.58023,0.56445
19,0,0.32356,0.4043,0.57045,0.57422
19.008,0,0.32258,0.39062,0.57045,0.58984
19.016,0,0.32063,0.38477,0.57045,0.5957
19.024,0,0.31867,0.38086,0.57045,0.60938
19.032,0,0.31769,0.375,0.55969,0.61523
19.04,0,0.31574,0.38086,0.55969,0.60938
19.048,0.00097752,0.31476,0.38086,0.55479,0.61523
19.056,0.0029325,0.31378,0.39062,0.55479,0.60938
19.064,0.0039101,0.31378,0.39062,0.55479,0.60547
19.072,0.0058651,0.31378,0.38477,0.55479,0.60938
19.08,0.0068426,0.31183,0.39062,0.55479,0.60547
19.088,0.0078201,0.31085,0.39062,0.55969,0.60938
19.096,0.0087977,0.30792,0.39453,0.57045,0.60938
19.104,0.0087977,0.30499,0.41016,0.58023,0.60938
19.112,0.0087977,0.30303,0.42578,0.59002,0.59961
19.12,0.0097752,0.3001,0.44922,0.61546,0.5957
19.128,0.0087977,0.29717,0.45508,0.61057,0.5957
19.136,0.0087977,0.29423,0.42969,0.5998,0.60547
19.144,0.0087977,0.29228,0.41602,0.58513,0.61914
19.152,0.0087977,0.28837,0.4043,0.55969,0.60938
19.16,0.0097752,0.28641,0.41016,0.5499,0.60547
19.168,0.0097752,0.28446,0.39453,0.54501,0.61914
19.176,0.01173,0.2825,0.38477,0.5499,0.625
19.184,0.012708,0.28055,0.35938,0.53523,0.64062
19.192,0.01564,0.27957,0.33984,0.51957,0.64453
19.2,0.01955,0.28348,0.33008,0.51957,0.65039
19.208,0.02346,0.2913,0.33008,0.51957,0.65039
19.216,0.028348,0.30694,0.33008,0.51957,0.64453
19.224,0.037146,0.32942,0.32422,0.51957,0.65039
19.232,0.044966,0.35973,0.33008,0.51957,0.64453
19.24,0.056696,0.39785,0.33984,0.53033,0.64453
19.248,0.068426,0.43988,0.38477,0.57534,0.66016
19.256,0.084066,0.48485,0.42578,0.6047,0.66406
19.264,0.099707,0.52493,0.46094,0.56458,0.64453
19.272,0.11828,0.55816,0.61914,0.54012,0.50977
19.28,0.13685,0.59238,0.69531,0.45988,0.31445
19.288,0.15543,0.62268,0.60547,0.43542,0.30469
19.296,0.174,0.64712,0.38477,0.44521,0.65039
19.304,0.19355,0.66276,0.3457,0.49022,0.69922
19.312,0.21212,0.67155,0.33984,0.5,0.64062
19.32,0.23558,0.67351,0.33594,0.51957,0.62891
19.328,0.25904,0.67058,0.33594,0.52544,0.64062
19.336,0.28543,0.66178,0.33008,0.52544,0.64062
19.344,0.31183,0.65005,0.33008,0.53033,0.64062
19.352,0.33724,0.63441,0.33008,0.53033,0.64062
19.36,0.36364,0.61779,0.33008,0.53033,0.64062
19.368,0.38905,0.60117,0.33008,0.53033,0.64062
19.376,0.41447,0.58065,0.33594,0.53033,0.63477
19.384,0.44282,0.55718,0.33984,0.53523,0.63477
19.392,0.47019,0.53275,0.3457,0.53523,0.61914
19.4,0.50147,0.50733,0.3457,0.53523,0.61914
19.408,0.53177,0.48192,0.34961,0.54501,0.60938
19.416,0.565,0.45846,0.36523,0.54012,0.60547
19.424,0.59726,0.43597,0.37109,0.5499,0.5957
19.432,0.6305,0.4174,0.38477,0.5499,0.58398
19.44,0.66373,0.40078,0.39453,0.55479,0.57031
19.448,0.69404,0.38807,0.4043,0.55969,0.56445
19.456,0.72434,0.3783,0.41602,0.56458,0.55078
19.464,0.75073,0.37146,0.42578,0.57045,0.54492
19.472,0.7781,0.36755,0.43555,0.57534,0.53906
19.48,0.80743,0.36559,0.43555,0.58023,0.53516
19.488,0.83578,0.36461,0.43945,0.58513,0.53516
19.496,0.86608,0.36559,0.43945,0.58513,0.53516
19.504,0.89541,0.36657,0.43555,0.58513,0.53906
19.512,0.92278,0.36852,0.43555,0.57534,0.54492
19.52,0.95015,0.37048,0.42969,0.57534,0.55078
19.528,0.97556,0.37146,0.41602,0.57045,0.56055
19.536,1,0.37243,0.41016,0.57045,0.57031
19.544,1,0.37341,0.39453,0.56458,0.58008
19.552,1,0.37341,0.38477,0.56458,0.5957
19.56,1,0.37341,0.38477,0.55969,0.59961
19.568,1,0.37341,0.38086,0.55479,0.60547
19.576,1,0.37243,0.38086,0.5499,0.60547
19.584,1,0.37048,0.37109,0.55479,0.60938
19.592,1,0.36852,0.37109,0.55479,0.60938
19.6,1,0.36657,0.37109,0.5499,0.60938
19.608,1,0.36461,0.375,0.5499,0.60938
19.616,1,0.36266,0.38477,0.5499,0.60938
19.624,1,0.3607,0.38477,0.5499,0.60938
19.632,1,0.35973,0.38477,0.54501,0.60938
19.64,1,0.35777,0.39062,0.55969,0.60938
19.648,1,0.35582,0.4043,0.57534,0.60938
19.656,1,0.35288,0.42578,0.59002,0.60547
19.664,1,0.35093,0.44531,0.61057,0.5957
19.672,1,0.34995,0.45508,0.61546,0.58984
19.68,1,0.34702,0.43555,0.5998,0.5957
19.688,1,0.34311,0.41992,0.58513,0.61523
19.696,1,0.34018,0.4043,0.55479,0.61914
19.704,1,0.33627,0.4043,0.54501,0.61523
19.712,1,0.33236,0.39062,0.54012,0.625
19.72,1,0.32942,0.375,0.54012,0.63477
19.728,1,0.32649,0.35938,0.52544,0.64062
19.736,1,0.32649,0.33984,0.51957,0.64062
19.744,1,0.33138,0.33594,0.51957,0.64062
19.752,1,0.34213,0.33008,0.51957,0.64453
19.76,1,0.35777,0.33594,0.50978,0.64062
19.768,1,0.3783,0.33008,0.51468,0.64062
19.776,1,0.4086,0.33594,0.50978,0.64062
19.784,1,0.44673,0.33984,0.51957,0.64062
19.792,1,0.49169,0.39062,0.57045,0.65039
19.8,1,0.54057,0.42969,0.5998,0.66016
19.808,1,0.58847,0.47461,0.58023,0.64062
19.816,1,0.63245,0.64453,0.56458,0.51562
19.824,1,0.67058,0.74023,0.48532,0.32031
19.832,1,0.70186,0.64062,0.42466,0.30078
19.84,1,0.72434,0.4043,0.40509,0.60547
19.848,1,0.739,0.36523,0.46967,0.66016
19.856,1,0.74585,0.33984,0.49022,0.625
19.864,1,0.74585,0.33008,0.5,0.61914
19.872,1,0.74194,0.32422,0.51468,0.64062
19.88,1,0.73314,0.32031,0.50978,0.64453
19.888,1,0.72141,0.32031,0.51468,0.64453
19.896,1,0.70577,0.31445,0.51957,0.64453
19.904,1,0.68719,0.31445,0.51957,0.65039
19.912,1,0.66667,0.32031,0.51957,0.64062
19.92,1,0.64321,0.32422,0.51957,0.64062
19.928,1,0.61877,0.33008,0.52544,0.63477
19.936,1,0.59238,0.33594,0.53033,0.625
19.944,1,0.565,0.33984,0.53523,0.61914
19.952,1,0.53763,0.34961,0.53523,0.60938
19.96,1,0.51417,0.35938,0.54012,0.60547
19.968,1,0.49267,0.36523,0.54501,0.5957
19.976,1,0.47116,0.375,0.54501,0.58984
19.984,1,0.45259,0.39062,0.55479,0.58008
19.992,1,0.43597,0.40039,0.56458,0.57031
20,1,0.42229,0.41016,0.57045,0.55469
20.008,1,0.41251,0.41992,0.57534,0.54492
20.016,1,0.40567,0.42969,0.58023,0.53906
20.024,1,0.40176,0.43555,0.59002,0.5293
20.032,1,0.40078,0.43555,0.59002,0.53516
20.04,1,0.40078,0.43555,0.58513,0.53516
20.048,1,0.40274,0.43555,0.58023,0.53516
20.056,1,0.40469,0.42578,0.57534,0.54492
20.064,1,0.40665,0.41602,0.57045,0.55469
20.072,1,0.40762,0.41016,0.57045,0.57031
20.08,1,0.4086,0.39453,0.56458,0.57422
20.088,1,0.40958,0.38477,0.55969,0.5957
20.096,1,0.40958,0.375,0.55479,0.59961
20.104,1,0.40958,0.37109,0.55969,0.60938
20.112,1,0.4086,0.36523,0.55479,0.61523
20.12,1,0.40762,0.36523,0.55969,0.61914
20.128,1,0.40567,0.37109,0.55479,0.61914
20.136,1,0.40469,0.37109,0.55479,0.61523
20.144,1,0.40274,0.375,0.55479,0.60547
20.152,1,0.3998,0.38477,0.55479,0.60547
20.16,1,0.39785,0.38477,0.55479,0.60547
20.168,1,0.39589,0.375,0.55479,0.60938
20.176,1,0.39296,0.38086,0.55969,0.61523
20.184,1,0.39101,0.39062,0.57534,0.60547
20.192,1,0.39003,0.41602,0.59002,0.59961
20.2,1,0.38807,0.42969,0.6047,0.5957
20.208,1,0.38612,0.45508,0.62524,0.58984
20.216,1,0.38514,0.44531,0.61546,0.58398
20.224,1,0.38319,0.42578,0.61057,0.5957
20.232,1,0.38025,0.4043,0.59002,0.60938
20.24,1,0.37732,0.39453,0.57045,0.61523
20.248,1,0.37341,0.39453,0.55969,0.60938
20.256,1,0.36852,0.38477,0.56458,0.61914
20.264,1,0.36559,0.36523,0.5499,0.62891
20.272,1,0.36364,0.3457,0.54501,0.64062
20.28,0.98143,0.36266,0.33008,0.54012,0.64062
20.288,0.96188,0.36657,0.33008,0.53523,0.64062
20.296,0.93939,0.37732,0.32031,0.52544,0.64453
20.304,0.91691,0.39589,0.32031,0.53033,0.65039
20.312,0.89541,0.42326,0.32031,0.52544,0.64062
20.32,0.87488,0.45943,0.32031,0.53033,0.64062
20.328,0.85533,0.50244,0.33594,0.52544,0.64062
20.336,0.83675,0.55132,0.375,0.59002,0.66016
20.344,0.8172,0.60117,0.41992,0.61546,0.66406
20.352,0.79863,0.64907,0.4707,0.58513,0.64062
20.36,0.78006,0.68719,0.63477,0.55479,0.48438
20.368,0.76149,0.71652,0.70508,0.46967,0.31055
20.376,0.74291,0.74291,0.57031,0.44031,0.42969
20.384,0.72532,0.76344,0.35938,0.45499,0.66992
20.392,0.70772,0.77615,0.33984,0.49511,0.68945
20.4,0.6911,0.78299,0.33984,0.51468,0.62891
20.408,0.67644,0.78299,0.32422,0.53033,0.62891
20.416,0.66178,0.7781,0.32031,0.53033,0.63477
20.424,0.64809,0.76931,0.30469,0.53523,0.64453
20.432,0.63539,0.7566,0.30469,0.53033,0.65039
20.44,0.62268,0.73998,0.30469,0.53033,0.64453
20.448,0.60899,0.72043,0.31055,0.53033,0.64453
20.456,0.59531,0.70088,0.31055,0.53033,0.64062
20.464,0.58162,0.68133,0.31445,0.53523,0.63477
20.472,0.56891,0.65689,0.32031,0.54012,0.63477
20.48,0.55621,0.6305,0.32031,0.54012,0.62891
20.488,0.5435,0.60313,0.32422,0.54012,0.625
20.496,0.53079,0.57576,0.33984,0.54012,0.61914
20.504,0.51613,0.54839,0.33984,0.54501,0.60938
20.512,0.50244,0.52199,0.34961,0.54501,0.59961
20.52,0.4868,0.49756,0.36523,0.55969,0.58984
20.528,0.47116,0.47605,0.38086,0.55479,0.57422
20.536,0.45357,0.45748,0.39062,0.55969,0.56445
20.544,0.43597,0.44282,0.4043,0.57045,0.55078
20.552,0.41838,0.43109,0.41016,0.57045,0.54492
20.56,0.40078,0.42326,0.41602,0.57534,0.54492
20.568,0.38416,0.4174,0.41602,0.58023,0.54492
20.576,0.36755,0.41349,0.41602,0.58513,0.54492
20.584,0.35191,0.41153,0.41602,0.58023,0.54492
20.592,0.33724,0.40958,0.41992,0.58513,0.55078
20.6,0.3216,0.40762,0.4043,0.59002,0.56445
20.608,0.30694,0.40665,0.39453,0.57534,0.57031
20.616,0.2913,0.40469,0.39062,0.57045,0.58398
20.624,0.27664,0.40371,0.375,0.57045,0.5957
20.632,0.26295,0.39785,0.36523,0.57045,0.60547
20.64,0.25024,0.39003,0.36523,0.57045,0.60938
20.648,0.23754,0.38416,0.34961,0.55969,0.61914
20.656,0.22581,0.38025,0.34961,0.55479,0.625
20.664,0.21408,0.37732,0.34961,0.54501,0.62891
20.672,0.20137,0.37341,0.34961,0.55479,0.625
20.68,0.18866,0.3695,0.35547,0.55479,0.61914
20.688,0.17595,0.36559,0.34961,0.55479,0.625
20.696,0.16325,0.3607,0.35547,0.55479,0.62891
20.704,0.14956,0.35679,0.35547,0.55479,0.61914
20.712,0.13685,0.35191,0.35938,0.5499,0.625
20.72,0.12414,0.348,0.36523,0.55969,0.625
20.728,0.11144,0.34409,0.375,0.57534,0.61914
20.736,0.099707,0.3392,0.39062,0.59491,0.61523
20.744,0.087977,0.33431,0.41016,0.61057,0.61523
20.752,0.076246,0.32942,0.42969,0.62524,0.60547
20.76,0.062561,0.32551,0.42578,0.61546,0.59961
20.768,0.049853,0.32258,0.41016,0.6047,0.61914
20.776,0.035191,0.31867,0.39062,0.58513,0.625
20.784,0.021505,0.31378,0.38086,0.55969,0.625
20.792,0.010753,0.30987,0.36523,0.56458,0.63477
20.8,0,0.30499,0.35938,0.55969,0.64062
20.808,0,0.30108,0.3457,0.54501,0.64453
20.816,0,0.29912,0.33008,0.54012,0.64453
20.824,0,0.29814,0.33008,0.53523,0.65039
20.832,0,0.30205,0.32031,0.52544,0.65039
20.84,0,0.31183,0.32031,0.52544,0.6543
20.848,0,0.32942,0.32031,0.51957,0.65039
20.856,0,0.34995,0.32031,0.52544,0.65039
20.864,0,0.37439,0.32422,0.51957,0.65039
20.872,0,0.4086,0.34961,0.5499,0.6543
20.88,0,0.4477,0.38477,0.59002,0.66406
20.888,0,0.49071,0.42969,0.6047,0.67578
20.896,0,0.53372,0.48438,0.55969,0.625
20.904,0,0.57283,0.64453,0.5,0.42578
20.912,0,0.60704,0.67969,0.44521,0.32031
20.92,0,0.63441,0.49414,0.46477,0.53516
20.928,0,0.65396,0.33984,0.49022,0.72461
20.936,0,0.66569,0.33984,0.51468,0.67578
20.944,0,0.67155,0.33008,0.51957,0.63477
20.952,0,0.6696,0.33008,0.52544,0.63477
20.96,0,0.66471,0.32422,0.53033,0.63477
20.968,0,0.65494,0.32031,0.52544,0.64062
20.976,0,0.64223,0.32031,0.53033,0.64453
20.984,0,0.62659,0.32031,0.52544,0.64062
20.992,0,0.60802,0.32031,0.53523,0.63477
21,0,0.58651,0.32031,0.54012,0.62891
21.008,0,0.56305,0.33594,0.53523,0.625
21.016,0,0.53861,0.33984,0.54012,0.625
21.024,0,0.51222,0.3457,0.54501,0.61523
21.032,0,0.48583,0.35547,0.54501,0.60938
21.04,0,0.46041,0.35938,0.5499,0.60547
21.048,0,0.43597,0.35938,0.5499,0.5957
21.056,0,0.41544,0.375,0.5499,0.58398
21.064,0,0.39883,0.39062,0.54501,0.57031
21.072,0,0.38319,0.4043,0.55969,0.56055
21.08,0,0.36852,0.41016,0.57045,0.54492
21.088,0,0.35679,0.41602,0.57534,0.53906
21.096,0,0.348,0.42578,0.57534,0.53516
21.104,0,0.34115,0.42969,0.58513,0.53516
21.112,0,0.33724,0.43555,0.58513,0.5293
21.12,0,0.33431,0.42969,0.59002,0.53516
21.128,0,0.33333,0.43555,0.59002,0.53906
21.136,0,0.33236,0.42578,0.59002,0.53906
21.144,0,0.33236,0.41992,0.58513,0.54492
21.152,0,0.33236,0.41016,0.58023,0.55469
21.16,0,0.33236,0.40039,0.57534,0.57031
21.168,0,0.33333,0.38477,0.58023,0.58008
21.176,0,0.33236,0.36523,0.58023,0.5957
21.184,0,0.33138,0.36523,0.57045,0.59961
21.192,0,0.32942,0.36523,0.57045,0.60938
21.2,0,0.32747,0.35938,0.57045,0.61523
21.208,0,0.32551,0.35938,0.57045,0.61523
21.216,0,0.32356,0.35938,0.56458,0.61523
21.224,0,0.32063,0.35938,0.56458,0.61523
21.232,0,0.31867,0.36523,0.55969,0.60938
21.24,0,0.31672,0.35938,0.55969,0.61914
21.248,0,0.31476,0.35938,0.55969,0.61914
21.256,0,0.31281,0.36523,0.56458,0.61914
21.264,0,0.31085,0.36523,0.57045,0.625
21.272,0,0.3089,0.375,0.57534,0.61914
21.28,0,0.30596,0.39062,0.59491,0.61914
21.288,0,0.30303,0.41992,0.62035,0.61523
21.296,0,0.3001,0.43555,0.62524,0.60547
21.304,0,0.29619,0.41602,0.61546,0.61523
21.312,0,0.29326,0.40039,0.6047,0.61914
21.32,0,0.28935,0.39062,0.58513,0.625
21.328,0,0.28446,0.38086,0.57045,0.61914
21.336,0,0.28055,0.375,0.57045,0.625
21.344,0,0.27664,0.36523,0.57045,0.63477
21.352,0,0.27273,0.3457,0.5499,0.64062
21.36,0,0.27077,0.33594,0.54012,0.64453
21.368,0,0.27175,0.32031,0.53523,0.65039
21.376,0,0.27566,0.32031,0.53523,0.6543
21.384,0,0.28348,0.32031,0.53523,0.6543
21.392,0,0.29717,0.32031,0.52544,0.64453
21.4,0,0.31867,0.32422,0.51468,0.64453
21.408,0,0.348,0.32422,0.54501,0.65039
21.416,0,0.38319,0.35938,0.57534,0.64453
21.424,0,0.42326,0.40039,0.5998,0.66992
21.432,0,0.4653,0.42578,0.61057,0.65039
21.44,0,0.50635,0.55078,0.56458,0.57031
21.448,0,0.5435,0.66406,0.48532,0.35938
21.456,0,0.57185,0.67969,0.45499,0.31055
21.464,0,0.59335,0.43555,0.47456,0.61914
21.472,0,0.60997,0.33594,0.50978,0.72461
21.48,0,0.62072,0.33984,0.51468,0.6543
21.488,0,0.62561,0.33984,0.52544,0.61914
21.496,0,0.62463,0.33594,0.53523,0.61914
21.504,0,0.61779,0.33008,0.54012,0.63477
21.512,0,0.60802,0.32031,0.53523,0.64062
21.52,0,0.59335,0.31445,0.54012,0.64062
21.528,0,0.57674,0.32031,0.53523,0.63477
21.536,0,0.55621,0.32422,0.52544,0.62891
21.544,0,0.5347,0.33594,0.53523,0.61914
21.552,0,0.51026,0.33984,0.54012,0.61914
21.56,0,0.48876,0.33984,0.54012,0.61914
21.568,0,0.46725,0.33984,0.54012,0.61914
21.576,0,0.44379,0.3457,0.54501,0.60938
21.584,0,0.42033,0.35938,0.54501,0.59961
21.592,0,0.39785,0.37109,0.5499,0.58398
21.6,0,0.37732,0.38086,0.5499,0.57422
21.608,0,0.35875,0.39062,0.55479,0.56445
21.616,0,0.34409,0.41016,0.55479,0.55078
21.624,0,0.33333,0.41602,0.56458,0.54492
21.632,0,0.32454,0.42969,0.56458,0.5293
21.64,0,0.31965,0.43555,0.57045,0.52539
21.648,0,0.31672,0.43555,0.57534,0.52539
21.656,0,0.31574,0.43555,0.58513,0.52539
21.664,0,0.31574,0.43555,0.58513,0.52539
21.672,0,0.31574,0.43555,0.58513,0.53516
21.68,0,0.31672,0.42969,0.58023,0.53906
21.688,0,0.31769,0.41992,0.57534,0.54492
21.696,0,0.31867,0.41602,0.57045,0.55469
21.704,0,0.31867,0.39453,0.57045,0.57031
21.712,0,0.31867,0.38477,0.57045,0.58008
21.72,0,0.31769,0.38086,0.56458,0.5957
21.728,0,0.31672,0.37109,0.55969,0.5957
21.736,0,0.31476,0.37109,0.56458,0.59961
21.744,0,0.31281,0.36523,0.55969,0.60938
21.752,0,0.31085,0.36523,0.55479,0.60938
21.76,0,0.3089,0.36523,0.55969,0.60938
21.768,0,0.30694,0.36523,0.55479,0.61523
21.776,0,0.30499,0.37109,0.55969,0.60938
21.784,0,0.30303,0.375,0.5499,0.60938
21.792,0,0.30108,0.37109,0.55479,0.61523
21.8,0,0.29814,0.375,0.56458,0.61523
21.808,0,0.29619,0.39062,0.57534,0.61914
21.816,0,0.29326,0.4043,0.58513,0.60547
21.824,0,0.29032,0.41602,0.59491,0.59961
21.832,0,0.28739,0.42969,0.61546,0.5957
21.84,0,0.28446,0.43555,0.62035,0.5957
21.848,0,0.28152,0.42578,0.6047,0.5957
21.856,0,0.27859,0.41016,0.59002,0.61523
21.864,0,0.27761,0.39453,0.57045,0.61914
21.872,0,0.27468,0.39062,0.57045,0.61914
21.88,0,0.27175,0.39062,0.55969,0.625
21.888,0,0.26882,0.37109,0.5499,0.63477
21.896,0,0.26588,0.3457,0.54501,0.64453
21.904,0,0.26393,0.33984,0.54012,0.64453
21.912,0,0.26491,0.33594,0.53033,0.64453
21.92,0,0.26979,0.32422,0.53033,0.65039
21.928,0,0.28055,0.32031,0.53523,0.65039
21.936,0,0.29814,0.32422,0.53523,0.64453
21.944,0,0.32258,0.33594,0.52544,0.64062
21.952,0,0.35582,0.33984,0.54012,0.64062
21.96,0,0.38807,0.38086,0.58023,0.6543
21.968,0,0.42131,0.42578,0.61546,0.66406
21.976,0,0.45943,0.46094,0.58023,0.64062
21.984,0,0.49951,0.61914,0.54012,0.49023
21.992,0,0.53763,0.68555,0.45988,0.31055
22,0,0.57087,0.58984,0.4501,0.41602
22.008,0,0.59726,0.375,0.48043,0.68555
22.016,0,0.61584,0.34961,0.50978,0.71484
22.024,0,0.62757,0.34961,0.51957,0.63477
22.032,0,0.63148,0.33984,0.52544,0.625
22.04,0,0.62952,0.33984,0.53523,0.625
22.048,0,0.6217,0.33984,0.53033,0.62891
22.056,0,0.61095,0.33984,0.53523,0.63477
22.064,0,0.59922,0.33984,0.53523,0.62891
22.072,0,0.5826,0.33984,0.53523,0.625
22.08,0,0.56305,0.33984,0.54012,0.625
22.088,0,0.54252,0.33984,0.53523,0.62891
22.096,0,0.51906,0.3457,0.54012,0.61914
22.104,0.0078201,0.49462,0.3457,0.54501,0.61914
22.112,0.01564,0.46921,0.35938,0.54501,0.60547
22.12,0.02346,0.44477,0.36523,0.54012,0.59961
22.128,0.032258,0.42131,0.375,0.54501,0.58984
22.136,0.040078,0.3998,0.39062,0.54501,0.58008
22.144,0.047898,0.38025,0.39453,0.5499,0.57031
22.152,0.054741,0.36364,0.4043,0.55969,0.56055
22.16,0.061584,0.35191,0.41602,0.56458,0.54492
22.168,0.067449,0.34213,0.42969,0.56458,0.53516
22.176,0.073314,0.33431,0.43945,0.57045,0.52539
22.184,0.079179,0.32747,0.44531,0.57534,0.52539
22.192,0.084066,0.32258,0.44922,0.58023,0.51953
22.2,0.088954,0.31867,0.44922,0.58023,0.52539
22.208,0.093842,0.31476,0.44922,0.58023,0.52539
22.216,0.098729,0.31183,0.44531,0.58513,0.52539
22.224,0.10362,0.3089,0.43945,0.58513,0.53516
22.232,0.10753,0.30694,0.43555,0.58513,0.54492
22.24,0.11144,0.30499,0.41992,0.57534,0.55469
22.248,0.11535,0.30303,0.4043,0.57045,0.56445
22.256,0.11828,0.30205,0.39453,0.57045,0.58008
22.264,0.12121,0.30205,0.38477,0.57045,0.5957
22.272,0.12414,0.30108,0.38086,0.56458,0.59961
22.28,0.1261,0.3001,0.37109,0.55969,0.60547
22.288,0.12805,0.29912,0.375,0.55479,0.60547
22.296,0.12903,0.29814,0.38086,0.55479,0.60547
22.304,0.13001,0.29717,0.38477,0.55479,0.60547
22.312,0.13099,0.29717,0.38086,0.55479,0.60547
22.32,0.13196,0.29619,0.38086,0.55479,0.60938
22.328,0.13196,0.29619,0.375,0.55479,0.61523
22.336,0.13196,0.29521,0.375,0.56458,0.61523
22.344,0.13099,0.29423,0.38477,0.56458,0.61523
22.352,0.13001,0.29423,0.40039,0.58023,0.60547
22.36,0.1261,0.29423,0.41602,0.59002,0.59961
22.368,0.12317,0.29326,0.42969,0.6047,0.59961
22.376,0.11828,0.29228,0.44922,0.61546,0.5957
