Time [s], RESP, PLETH, II, V, AVR
0,0.29619,0.38123,0.40392,0.60547,0.5451
0.008,0.30596,0.39785,0.38039,0.60938,0.5549
0.016,0.31672,0.41642,0.38431,0.60547,0.56471
0.024,0.32649,0.43695,0.3451,0.61914,0.58039
0.032,0.33529,0.45943,0.31961,0.62891,0.59608
0.04,0.34409,0.48192,0.3098,0.625,0.60588
0.048,0.35288,0.5044,0.31373,0.62891,0.60588
0.056,0.36168,0.52493,0.31373,0.60547,0.60588
0.064,0.37146,0.5435,0.3098,0.61523,0.6
0.072,0.38221,0.55914,0.33529,0.60938,0.59608
0.08,0.39296,0.57087,0.31961,0.61523,0.5902
0.088,0.40274,0.57967,0.25882,0.6543,0.62549
0.096,0.41251,0.58651,0.2451,0.67578,0.62941
0.104,0.42229,0.59238,0.4,0.63477,0.53529
0.112,0.43206,0.59629,0.66078,0.4707,0.4
0.12,0.44184,0.59824,0.79608,0.29102,0.3451
0.128,0.45259,0.59922,0.82549,0.17969,0.40392
0.136,0.46432,0.59726,0.51961,0.25977,0.57451
0.144,0.47507,0.59531,0.36471,0.40039,0.65098
0.152,0.48778,0.59238,0.3451,0.50586,0.61961
0.16,0.49951,0.59042,0.32353,0.58398,0.60588
0.168,0.51222,0.58651,0.2902,0.62891,0.61569
0.176,0.52395,0.58358,0.2902,0.62891,0.6098
0.184,0.53568,0.57967,0.27451,0.64453,0.62549
0.192,0.54741,0.57478,0.26863,0.63477,0.61961
0.2,0.55914,0.56891,0.27843,0.64062,0.62549
0.208,0.57087,0.56207,0.26863,0.64453,0.62549
0.216,0.58358,0.55523,0.26863,0.63477,0.62549
0.224,0.59629,0.54936,0.28431,0.62891,0.61569
0.232,0.61095,0.54252,0.27451,0.62891,0.62549
0.24,0.62463,0.53568,0.2902,0.63477,0.61569
0.248,0.63832,0.52884,0.27843,0.62891,0.61961
0.256,0.65103,0.52004,0.30392,0.62891,0.6
0.264,0.66373,0.51124,0.3098,0.62891,0.60588
0.272,0.67644,0.50244,0.27451,0.625,0.61961
0.28,0.68915,0.49462,0.26471,0.63477,0.62549
0.288,0.70283,0.48876,0.2902,0.625,0.61569
0.296,0.71848,0.48192,0.29412,0.625,0.61569
0.304,0.73314,0.47605,0.31373,0.61523,0.60588
0.312,0.74976,0.46921,0.3,0.61914,0.60588
0.32,0.7654,0.46334,0.30392,0.60547,0.60588
0.328,0.78299,0.45748,0.31373,0.60938,0.6
0.336,0.79961,0.45161,0.32941,0.60938,0.58431
0.344,0.81427,0.44575,0.32353,0.60547,0.58431
0.352,0.82991,0.43988,0.34902,0.58984,0.57451
0.36,0.84262,0.435,0.36471,0.5957,0.56471
0.368,0.8563,0.43109,0.34902,0.59961,0.57451
0.376,0.86999,0.42717,0.38039,0.58398,0.5549
0.384,0.88368,0.4262,0.38431,0.57422,0.5549
0.392,0.89834,0.42522,0.4098,0.58008,0.53529
0.4,0.913,0.42424,0.41961,0.57422,0.52941
0.408,0.92669,0.42424,0.4098,0.58008,0.53529
0.416,0.93939,0.42424,0.37451,0.5957,0.5549
0.424,0.95112,0.42424,0.37059,0.60547,0.56471
0.432,0.96188,0.42424,0.35882,0.60938,0.57059
0.44,0.97361,0.42229,0.34902,0.60547,0.57059
0.448,0.98436,0.42033,0.33922,0.62891,0.58039
0.456,0.99218,0.41838,0.32941,0.625,0.5902
0.464,1,0.41642,0.33922,0.61914,0.58431
0.472,1,0.41447,0.33529,0.62891,0.58431
0.48,1,0.41349,0.3451,0.625,0.58039
0.488,1,0.41153,0.33922,0.63477,0.58431
0.496,1,0.41056,0.32353,0.625,0.59608
0.504,1,0.4086,0.31373,0.61914,0.60588
0.512,1,0.40665,0.32353,0.625,0.6
0.52,1,0.41838,0.31961,0.62891,0.59608
0.528,1,0.43597,0.3,0.64062,0.60588
0.536,1,0.44477,0.31373,0.62891,0.59608
0.544,1,0.4477,0.33922,0.62891,0.58039
0.552,1,0.44868,0.34902,0.61914,0.57451
0.56,1,0.44673,0.32941,0.62891,0.58039
0.568,1,0.44379,0.37059,0.61523,0.57059
0.576,1,0.44086,0.36471,0.61523,0.57451
0.584,1,0.43793,0.33529,0.63477,0.58431
0.592,1,0.43402,0.31961,0.64062,0.5902
0.6,1,0.42913,0.37059,0.625,0.56471
0.608,1,0.42424,0.36471,0.625,0.5549
0.616,1,0.42131,0.38039,0.625,0.56078
0.624,1,0.42033,0.37059,0.63477,0.56078
0.632,1,0.42033,0.3902,0.62891,0.5451
0.64,1,0.42229,0.41569,0.60547,0.52941
0.648,1,0.4262,0.43922,0.60547,0.52549
0.656,1,0.43402,0.47059,0.58398,0.50588
0.664,1,0.44477,0.4451,0.58008,0.51569
0.672,1,0.46041,0.43529,0.58398,0.52549
0.68,1,0.47507,0.4098,0.5957,0.53529
0.688,1,0.48974,0.3902,0.60938,0.55098
0.696,1,0.50929,0.35882,0.61523,0.57451
0.704,1,0.52884,0.31961,0.62891,0.59608
0.712,1,0.54936,0.31373,0.62891,0.5902
0.72,1,0.56989,0.28431,0.625,0.61569
0.728,1,0.58749,0.2902,0.61523,0.61961
0.736,1,0.60313,0.29412,0.61914,0.6098
0.744,1,0.61681,0.2902,0.60938,0.61961
0.752,1,0.62757,0.28431,0.62891,0.60588
0.76,1,0.63441,0.2902,0.63477,0.61569
0.768,1,0.64027,0.22353,0.68945,0.62549
0.776,1,0.64321,0.21961,0.67578,0.62941
0.784,1,0.64321,0.47451,0.59961,0.4902
0.792,1,0.64418,0.7098,0.40039,0.35882
0.8,1,0.64418,0.8451,0.25,0.32353
0.808,1,0.64418,0.70588,0.18555,0.4451
0.816,1,0.64321,0.40392,0.32422,0.62549
0.824,1,0.64125,0.32941,0.4707,0.65098
0.832,1,0.63832,0.30392,0.56055,0.62549
0.84,1,0.63441,0.2902,0.60938,0.61569
0.848,1,0.6305,0.2451,0.65039,0.62941
0.856,1,0.62659,0.22941,0.66406,0.64118
0.864,1,0.62268,0.2451,0.66016,0.63529
0.872,1,0.61877,0.2549,0.6543,0.62549
0.88,1,0.61388,0.27843,0.64453,0.6098
0.888,1,0.60802,0.27451,0.64062,0.60588
0.896,1,0.60117,0.27843,0.64453,0.61569
0.904,1,0.59531,0.25882,0.65039,0.62549
0.912,1,0.58944,0.26863,0.65039,0.61569
0.92,1,0.58358,0.26471,0.65039,0.6098
0.928,1,0.57771,0.27843,0.64453,0.62549
0.936,1,0.57185,0.26471,0.6543,0.60588
0.944,1,0.56403,0.28431,0.64062,0.6098
0.952,1,0.55523,0.27451,0.65039,0.6098
0.96,1,0.54741,0.25882,0.64453,0.61961
0.968,1,0.53861,0.27451,0.64453,0.61569
0.976,1,0.53275,0.26863,0.64062,0.61961
0.984,1,0.52786,0.29412,0.6543,0.60588
0.992,1,0.52297,0.2902,0.65039,0.60588
1,1,0.51906,0.3,0.64062,0.6
1.008,1,0.51515,0.28431,0.65039,0.60588
1.016,1,0.51124,0.33529,0.62891,0.58039
1.024,1,0.50733,0.30392,0.63477,0.5902
1.032,1,0.50342,0.35882,0.60938,0.5549
1.04,1,0.49951,0.37059,0.61523,0.56078
1.048,1,0.49658,0.38039,0.61523,0.55098
1.056,1,0.49462,0.36471,0.61914,0.55098
1.064,1,0.49365,0.3902,0.60547,0.53529
1.072,1,0.49169,0.41961,0.60547,0.51569
1.08,1,0.48974,0.4098,0.61523,0.52549
1.088,1,0.48876,0.3902,0.61914,0.53529
1.096,1,0.4868,0.38431,0.63477,0.5451
1.104,1,0.48485,0.34902,0.65039,0.5549
1.112,1,0.48192,0.33922,0.65039,0.57059
1.12,1,0.47996,0.32941,0.65039,0.57451
1.128,1,0.47801,0.36471,0.64062,0.5549
1.136,1,0.47605,0.33922,0.63477,0.57451
1.144,1,0.4741,0.31373,0.65039,0.58431
1.152,1,0.4741,0.33922,0.62891,0.57451
1.16,1,0.4741,0.32941,0.625,0.58039
1.168,1,0.47507,0.3451,0.62891,0.57451
1.176,1,0.47605,0.31961,0.62891,0.5902
1.184,1,0.47605,0.30392,0.63477,0.59608
1.192,1,0.47605,0.31961,0.625,0.5902
1.2,1,0.47507,0.31373,0.61914,0.5902
1.208,1,0.4741,0.32941,0.63477,0.58039
1.216,1,0.47116,0.33922,0.625,0.58039
1.224,1,0.46628,0.32941,0.62891,0.58431
1.232,1,0.46237,0.33922,0.625,0.58039
1.24,1,0.45943,0.31961,0.63477,0.5902
1.248,1,0.45748,0.33922,0.62891,0.58039
1.256,1,0.45552,0.3549,0.625,0.57451
1.264,1,0.45259,0.33529,0.62891,0.58431
1.272,1,0.45064,0.3451,0.62891,0.57451
1.28,1,0.44966,0.3549,0.62891,0.56471
1.288,1,0.44868,0.3451,0.62891,0.57059
1.296,1,0.44868,0.38039,0.64062,0.5549
1.304,1,0.44966,0.37451,0.63477,0.56078
1.312,1,0.45161,0.3902,0.63477,0.5549
1.32,1,0.4565,0.42941,0.60938,0.52941
1.328,1,0.46432,0.43922,0.59961,0.51961
1.336,1,0.47507,0.47059,0.58008,0.5098
1.344,1,0.48974,0.47451,0.58008,0.5098
1.352,1,0.50635,0.4098,0.5957,0.52941
1.36,1,0.52493,0.37451,0.60547,0.5549
1.368,1,0.54448,0.38431,0.60547,0.55098
1.376,1,0.56207,0.33922,0.61914,0.58431
1.384,1,0.57771,0.27451,0.64062,0.61569
1.392,1,0.59531,0.25882,0.62891,0.61961
1.4,1,0.61193,0.2902,0.61914,0.60588
1.408,1,0.62854,0.29412,0.625,0.6098
1.416,1,0.64223,0.2902,0.61914,0.60588
1.424,1,0.65396,0.28431,0.61523,0.61569
1.432,1,0.66178,0.3,0.60938,0.60588
1.44,1,0.66764,0.25882,0.64453,0.61961
1.448,1,0.67253,0.2451,0.67969,0.62549
1.456,1,0.67546,0.29412,0.66992,0.5902
1.464,1,0.67742,0.51569,0.57031,0.47059
1.472,1,0.6784,0.69608,0.38477,0.37059
1.48,1,0.6784,0.78627,0.22461,0.3451
1.488,1,0.67644,0.60588,0.18555,0.50588
1.496,1,0.67449,0.3902,0.33984,0.62941
1.504,1,0.67155,0.33529,0.48047,0.62549
1.512,1,0.66667,0.29412,0.57031,0.61961
1.52,0.99902,0.66276,0.26471,0.625,0.63529
1.528,0.99609,0.65787,0.25882,0.64062,0.62549
1.536,0.99218,0.65396,0.25882,0.64453,0.62549
1.544,0.98925,0.65005,0.2549,0.65039,0.62549
1.552,0.98534,0.64614,0.27451,0.65039,0.6098
1.56,0.98143,0.64223,0.2902,0.62891,0.60588
1.568,0.97849,0.63832,0.25882,0.64062,0.61961
1.576,0.97458,0.63343,0.2549,0.65039,0.62549
1.584,0.97067,0.62757,0.26863,0.65039,0.6098
1.592,0.96774,0.6217,0.27451,0.64453,0.61569
1.6,0.96481,0.61486,0.27451,0.64062,0.61569
1.608,0.96188,0.60802,0.28431,0.65039,0.60588
1.616,0.95992,0.60117,0.26471,0.64062,0.61961
1.624,0.95797,0.59531,0.25882,0.63477,0.61569
1.632,0.95601,0.58847,0.27451,0.65039,0.61569
1.64,0.95503,0.58065,0.26863,0.64453,0.61961
1.648,0.95308,0.57283,0.29412,0.64453,0.6
1.656,0.9521,0.565,0.2902,0.65039,0.60588
1.664,0.95112,0.55718,0.30392,0.62891,0.6
1.672,0.95015,0.55034,0.31373,0.62891,0.5902
1.68,0.94819,0.54448,0.31373,0.63477,0.58431
1.688,0.94721,0.54057,0.31373,0.62891,0.58431
1.696,0.94624,0.53666,0.33529,0.61914,0.58039
1.704,0.94428,0.53275,0.34902,0.625,0.57059
1.712,0.9433,0.52884,0.35882,0.61523,0.56078
1.72,0.94135,0.52688,0.36471,0.61523,0.5549
1.728,0.94037,0.5259,0.39412,0.59961,0.53922
1.736,0.93939,0.52493,0.41569,0.59961,0.52941
1.744,0.93744,0.52297,0.41961,0.5957,0.51961
1.752,0.93548,0.52102,0.41569,0.60547,0.52549
1.76,0.93353,0.51808,0.4098,0.60938,0.51961
1.768,0.93157,0.51515,0.40392,0.61523,0.52941
1.776,0.92962,0.51124,0.39412,0.61914,0.53529
1.784,0.92669,0.50831,0.38039,0.62891,0.55098
1.792,0.92375,0.50538,0.37059,0.64062,0.5549
1.8,0.92082,0.50244,0.34902,0.64453,0.56078
1.808,0.91789,0.49853,0.33922,0.63477,0.57059
1.816,0.91398,0.4956,0.34902,0.62891,0.56471
1.824,0.91007,0.49267,0.33922,0.64062,0.57059
1.832,0.90616,0.48974,0.33922,0.63477,0.57451
1.84,0.90225,0.48583,0.33529,0.63477,0.58039
1.848,0.89834,0.48289,0.32941,0.62891,0.58039
1.856,0.89345,0.47996,0.32941,0.625,0.58039
1.864,0.88954,0.47801,0.32941,0.61914,0.58039
1.872,0.88563,0.47605,0.33529,0.62891,0.58039
1.88,0.87977,0.47507,0.33922,0.62891,0.58039
1.888,0.87488,0.47312,0.33529,0.62891,0.58431
1.896,0.86901,0.47214,0.3451,0.62891,0.58039
1.904,0.86315,0.47019,0.34902,0.62891,0.57451
1.912,0.8563,0.46823,0.33922,0.625,0.57451
1.92,0.84848,0.46628,0.32941,0.63477,0.58039
1.928,0.84066,0.46432,0.33922,0.63477,0.58039
1.936,0.83284,0.46139,0.32941,0.62891,0.5902
1.944,0.826,0.45846,0.33529,0.63477,0.58039
1.952,0.81916,0.45552,0.31373,0.64062,0.59608
1.96,0.81329,0.45357,0.32353,0.64453,0.5902
1.968,0.80645,0.45161,0.3451,0.64062,0.57451
1.976,0.80059,0.44966,0.36471,0.64453,0.56078
1.984,0.79472,0.44966,0.37451,0.63477,0.56471
1.992,0.78886,0.45064,0.38039,0.64453,0.56471
2,0.78299,0.45552,0.38431,0.63477,0.5549
2.008,0.77713,0.46334,0.40392,0.625,0.53922
2.016,0.77126,0.47507,0.4098,0.60938,0.53922
2.024,0.76637,0.49071,0.41569,0.60547,0.53529
2.032,0.76149,0.50831,0.38039,0.60938,0.55098
2.04,0.7566,0.52786,0.33922,0.61914,0.57451
2.048,0.75269,0.54741,0.32353,0.62891,0.59608
2.056,0.74976,0.56794,0.31961,0.62891,0.60588
2.064,0.74682,0.58749,0.27843,0.63477,0.61961
2.072,0.74487,0.60704,0.24902,0.62891,0.63529
2.08,0.74291,0.62366,0.24902,0.62891,0.64118
2.088,0.74096,0.63636,0.2549,0.62891,0.6451
2.096,0.73998,0.65005,0.2549,0.62891,0.63529
2.104,0.73803,0.65982,0.2549,0.62891,0.6451
2.112,0.73607,0.66764,0.26471,0.62891,0.63529
2.12,0.73412,0.67253,0.2451,0.64453,0.6451
2.128,0.73314,0.67644,0.20392,0.68555,0.65098
2.136,0.73021,0.67742,0.24902,0.67578,0.62941
2.144,0.72727,0.67644,0.46078,0.61523,0.50588
2.152,0.72336,0.67351,0.66078,0.41016,0.40392
2.16,0.71945,0.66862,0.7549,0.21484,0.3902
2.168,0.71457,0.66471,0.62941,0.16992,0.50588
2.176,0.70968,0.65982,0.39412,0.31055,0.65098
2.184,0.70283,0.65494,0.3098,0.44922,0.67647
2.192,0.69697,0.64809,0.29412,0.55078,0.64118
2.2,0.68719,0.64125,0.26863,0.61914,0.63529
2.208,0.67742,0.63441,0.24902,0.64453,0.64118
2.216,0.66471,0.62659,0.23333,0.6543,0.65098
2.224,0.65298,0.61877,0.21961,0.66406,0.6549
2.232,0.63734,0.60997,0.23922,0.6543,0.6451
2.24,0.6217,0.6002,0.23922,0.66016,0.65098
2.248,0.60411,0.5914,0.2451,0.6543,0.6451
2.256,0.58651,0.58065,0.22941,0.66016,0.65098
2.264,0.57087,0.57087,0.22941,0.66406,0.65098
2.272,0.55425,0.56012,0.23922,0.65039,0.6451
2.28,0.53861,0.55034,0.2451,0.6543,0.6451
2.288,0.52395,0.54154,0.23922,0.6543,0.6451
2.296,0.50733,0.53275,0.23922,0.65039,0.6451
2.304,0.49071,0.52297,0.2451,0.65039,0.64118
2.312,0.47214,0.5132,0.2451,0.65039,0.64118
2.32,0.45455,0.50342,0.24902,0.64453,0.64118
2.328,0.43793,0.49365,0.2451,0.64062,0.64118
2.336,0.42229,0.48387,0.23922,0.64453,0.6451
2.344,0.40665,0.47507,0.24902,0.63477,0.63529
2.352,0.39101,0.46628,0.25882,0.64062,0.62549
2.36,0.37439,0.4565,0.26471,0.62891,0.62941
2.368,0.35777,0.4477,0.28431,0.62891,0.61961
2.376,0.34018,0.44184,0.2902,0.625,0.61569
2.384,0.32258,0.43695,0.28431,0.61523,0.60588
2.392,0.30401,0.43109,0.30392,0.60547,0.6
2.4,0.28641,0.4262,0.3098,0.60547,0.59608
2.408,0.26882,0.42131,0.32941,0.59961,0.6
2.416,0.25122,0.41838,0.36471,0.5957,0.56078
2.424,0.23558,0.41544,0.38431,0.58984,0.55098
2.432,0.21994,0.41447,0.36471,0.58398,0.56078
2.44,0.20626,0.41349,0.33922,0.5957,0.58039
2.448,0.19159,0.41349,0.32353,0.60547,0.58431
2.456,0.17595,0.41349,0.31373,0.62891,0.59608
2.464,0.16031,0.41349,0.31961,0.63477,0.5902
2.472,0.14272,0.41349,0.30392,0.64453,0.6
2.48,0.12512,0.41251,0.30392,0.65039,0.60588
2.488,0.11046,0.40958,0.3098,0.65039,0.60588
2.496,0.094819,0.40665,0.3098,0.65039,0.6
2.504,0.080156,0.40371,0.3,0.6543,0.60588
2.512,0.066471,0.3998,0.29412,0.64453,0.60588
2.52,0.050831,0.39589,0.31373,0.63477,0.6
2.528,0.035191,0.39394,0.28431,0.65039,0.61961
2.536,0.018573,0.39198,0.3,0.64062,0.60588
2.544,0.001955,0.39101,0.2902,0.64453,0.61569
2.552,0.00097752,0.39003,0.2902,0.65039,0.6098
2.56,0,0.38905,0.2902,0.64453,0.61961
2.568,0,0.38416,0.3,0.64062,0.6098
2.576,0,0.37732,0.3098,0.63477,0.60588
2.584,0,0.37341,0.31373,0.63477,0.60588
2.592,0,0.37048,0.30392,0.64062,0.61569
2.6,0,0.36657,0.3,0.63477,0.61961
2.608,0,0.36461,0.30392,0.64062,0.60588
2.616,0,0.36266,0.2902,0.64062,0.61569
2.624,0,0.3607,0.31373,0.64453,0.6
2.632,0,0.35875,0.32941,0.64062,0.5902
2.64,0,0.35582,0.33922,0.64453,0.58431
2.648,0,0.35386,0.3451,0.65039,0.58039
2.656,0,0.35191,0.36471,0.64453,0.57059
2.664,0,0.34995,0.38039,0.64062,0.5549
2.672,0,0.34897,0.37451,0.62891,0.56471
2.68,0,0.34995,0.40392,0.61914,0.5451
2.688,0,0.35191,0.42941,0.60547,0.53922
2.696,0,0.35484,0.4098,0.59961,0.53922
2.704,0,0.3607,0.37059,0.61523,0.57059
2.712,0,0.37048,0.33529,0.61523,0.58431
2.72,0,0.38221,0.31961,0.62891,0.60588
2.728,0,0.39785,0.31373,0.625,0.60588
2.736,0,0.41544,0.31961,0.61914,0.60588
2.744,0,0.43402,0.26863,0.62891,0.63529
2.752,0,0.45357,0.2451,0.62891,0.6451
2.76,0,0.47214,0.24902,0.625,0.6451
2.768,0,0.48876,0.2549,0.62891,0.64118
2.776,0,0.50147,0.26863,0.625,0.62549
2.784,0,0.51124,0.25882,0.62891,0.64118
2.792,0,0.51906,0.23922,0.64453,0.6451
2.8,0,0.5259,0.20392,0.67578,0.66078
2.808,0,0.53177,0.26863,0.65039,0.61961
2.816,0,0.53568,0.49412,0.61523,0.49412
2.824,0,0.53763,0.66078,0.41992,0.4
2.832,0,0.54057,0.74118,0.23047,0.4098
2.84,0,0.54154,0.61961,0.19531,0.5098
2.848,0,0.54154,0.39412,0.33984,0.6549
2.856,0,0.54154,0.31961,0.45508,0.67647
2.864,0,0.54057,0.2902,0.55078,0.65098
2.872,0,0.53861,0.26863,0.60938,0.63529
2.88,0,0.53666,0.25882,0.63477,0.63529
2.888,0,0.53372,0.21961,0.65039,0.65098
2.896,0,0.53079,0.21373,0.65039,0.6549
2.904,0,0.52688,0.23922,0.65039,0.65098
2.912,0,0.52199,0.22941,0.65039,0.6451
2.92,0,0.51613,0.24902,0.65039,0.65098
2.928,0,0.50929,0.27451,0.64062,0.62549
2.936,0,0.50244,0.22941,0.65039,0.6451
2.944,0,0.4956,0.21961,0.65039,0.65098
2.952,0,0.48876,0.25882,0.64453,0.62941
2.96,0,0.48289,0.2451,0.63477,0.64118
2.968,0,0.47605,0.26471,0.64062,0.6451
2.976,0,0.47019,0.28431,0.625,0.61569
2.984,0,0.46432,0.24902,0.63477,0.62941
2.992,0,0.45748,0.23922,0.64062,0.64118
3,0.0029325,0.45064,0.26471,0.625,0.62941
3.008,0.0068426,0.44282,0.24902,0.62891,0.63529
3.016,0.014663,0.43695,0.2451,0.62891,0.64118
3.024,0.02346,0.43206,0.28431,0.62891,0.61569
3.032,0.031281,0.42717,0.27451,0.625,0.61961
3.04,0.039101,0.42229,0.27843,0.61523,0.61569
3.048,0.045943,0.41935,0.3098,0.60547,0.60588
3.056,0.053763,0.4174,0.30392,0.60547,0.60588
3.064,0.060606,0.41544,0.32353,0.60547,0.58039
3.072,0.068426,0.41349,0.35882,0.58398,0.56471
3.08,0.074291,0.41251,0.3451,0.58008,0.57451
3.088,0.081134,0.41153,0.33922,0.58398,0.58039
3.096,0.086022,0.41056,0.4098,0.57031,0.53529
3.104,0.091887,0.41056,0.37451,0.57422,0.55098
3.112,0.095797,0.41056,0.36471,0.58008,0.56078
3.12,0.10068,0.41153,0.3902,0.58008,0.55098
3.128,0.10459,0.41153,0.37059,0.59961,0.5549
3.136,0.1085,0.41056,0.33529,0.625,0.57451
3.144,0.11241,0.40958,0.31961,0.63477,0.58039
3.152,0.11535,0.40762,0.32941,0.64453,0.58039
3.16,0.11828,0.40665,0.33529,0.62891,0.58039
3.168,0.12023,0.40469,0.33922,0.62891,0.58431
3.176,0.12219,0.40371,0.31961,0.64062,0.5902
3.184,0.12414,0.40371,0.32941,0.62891,0.58431
3.192,0.1261,0.40274,0.32353,0.62891,0.59608
3.2,0.12805,0.40274,0.31373,0.64062,0.5902
3.208,0.12903,0.40274,0.31961,0.65039,0.5902
3.216,0.13099,0.40176,0.31373,0.63477,0.6
3.224,0.13294,0.40176,0.32941,0.62891,0.59608
3.232,0.1349,0.40078,0.32353,0.63477,0.6
3.24,0.13587,0.3998,0.32353,0.64062,0.5902
3.248,0.13783,0.3998,0.32353,0.63477,0.5902
3.256,0.14076,0.39883,0.3451,0.62891,0.58039
3.264,0.1437,0.39785,0.35882,0.625,0.57451
3.272,0.14761,0.39687,0.33922,0.63477,0.58039
3.28,0.15054,0.39589,0.33922,0.63477,0.58039
3.288,0.15445,0.39492,0.33922,0.62891,0.58039
3.296,0.15836,0.39296,0.33922,0.625,0.58039
3.304,0.16227,0.39198,0.3451,0.62891,0.58039
3.312,0.16618,0.39101,0.37059,0.62891,0.56471
3.32,0.17107,0.39003,0.38431,0.62891,0.5549
3.328,0.17595,0.38905,0.4098,0.63477,0.53529
3.336,0.1828,0.3871,0.4098,0.64062,0.53922
3.344,0.18866,0.3871,0.43529,0.625,0.52549
3.352,0.1955,0.3871,0.47059,0.60547,0.5098
3.36,0.20332,0.38905,0.48039,0.59961,0.5
3.368,0.21017,0.39296,0.46078,0.59961,0.5098
3.376,0.21799,0.39883,0.43529,0.5957,0.52549
3.384,0.22385,0.40665,0.39412,0.60547,0.5451
3.392,0.23069,0.4174,0.38431,0.61523,0.56078
3.4,0.23656,0.43109,0.35882,0.62891,0.58431
3.408,0.24242,0.4477,0.33922,0.61914,0.59608
3.416,0.24829,0.4653,0.31961,0.625,0.60588
3.424,0.25415,0.48387,0.30392,0.61914,0.60588
3.432,0.26002,0.50244,0.2902,0.625,0.61569
3.44,0.26588,0.52004,0.31373,0.61523,0.60588
3.448,0.27175,0.53568,0.29412,0.61914,0.6098
3.456,0.27664,0.54936,0.3,0.61914,0.61569
3.464,0.28152,0.56012,0.30392,0.625,0.60588
3.472,0.28641,0.56794,0.26863,0.66992,0.61961
3.48,0.2913,0.57283,0.30392,0.64453,0.59608
3.488,0.29717,0.57771,0.50588,0.60938,0.48431
3.496,0.30205,0.58065,0.70588,0.41602,0.38039
3.504,0.30792,0.58162,0.82157,0.24609,0.34902
3.512,0.31378,0.58162,0.7098,0.19531,0.46078
3.52,0.32063,0.57967,0.46471,0.31445,0.6098
3.528,0.32649,0.57674,0.36471,0.43945,0.64118
3.536,0.33236,0.57185,0.33922,0.54492,0.6098
3.544,0.3392,0.56696,0.3,0.60547,0.61961
3.552,0.34604,0.56207,0.3,0.62891,0.6098
3.56,0.35288,0.55718,0.3098,0.62891,0.60588
3.568,0.35973,0.5523,0.28431,0.63477,0.61569
3.576,0.36755,0.54741,0.27451,0.64062,0.61961
3.584,0.37634,0.5435,0.2902,0.63477,0.60588
3.592,0.38612,0.53861,0.30392,0.63477,0.60588
3.6,0.39589,0.53372,0.29412,0.64453,0.6098
3.608,0.40469,0.52786,0.2902,0.64062,0.6
3.616,0.41349,0.52297,0.31961,0.62891,0.6
3.624,0.42229,0.51613,0.3098,0.62891,0.60588
3.632,0.43206,0.51124,0.30392,0.625,0.60588
3.64,0.44184,0.50538,0.2902,0.61914,0.6098
3.648,0.45161,0.49951,0.31373,0.61523,0.60588
3.656,0.46237,0.49365,0.3,0.62891,0.6098
3.664,0.4741,0.48778,0.32941,0.61523,0.5902
3.672,0.48583,0.48192,0.31961,0.61523,0.59608
3.68,0.49853,0.47605,0.33529,0.60938,0.5902
3.688,0.51222,0.47019,0.31961,0.61914,0.59608
3.696,0.52493,0.46432,0.31373,0.60547,0.60588
3.704,0.53763,0.45943,0.32353,0.60938,0.59608
3.712,0.55034,0.45552,0.32941,0.60547,0.5902
3.72,0.56207,0.45357,0.33529,0.60547,0.5902
3.728,0.5738,0.45259,0.31373,0.60547,0.58431
3.736,0.58651,0.45259,0.36471,0.58984,0.56471
3.744,0.59922,0.45259,0.40392,0.58398,0.53922
3.752,0.6129,0.45357,0.40392,0.58008,0.55098
3.76,0.62561,0.45357,0.41569,0.58008,0.52941
3.768,0.63832,0.45357,0.42941,0.57422,0.52941
3.776,0.65103,0.45357,0.42549,0.57031,0.52941
3.784,0.66276,0.45357,0.43529,0.57031,0.52549
3.792,0.67546,0.45259,0.42549,0.58398,0.52941
3.8,0.68817,0.45161,0.3902,0.60547,0.55098
3.808,0.70088,0.45064,0.40392,0.60547,0.5451
3.816,0.71359,0.45064,0.4,0.60547,0.55098
3.824,0.72727,0.44966,0.40392,0.61914,0.55098
3.832,0.73998,0.44868,0.3451,0.62891,0.57451
3.84,0.75367,0.44868,0.32941,0.62891,0.58431
3.848,0.7654,0.44868,0.32353,0.63477,0.5902
3.856,0.7781,0.44673,0.3451,0.63477,0.58039
3.864,0.78886,0.44575,0.3549,0.625,0.57451
3.872,0.79961,0.44477,0.34902,0.61523,0.5902
3.88,0.80841,0.44282,0.3549,0.61914,0.58039
3.888,0.8172,0.44086,0.36471,0.61523,0.58039
3.896,0.826,0.43891,0.3549,0.61914,0.58039
3.904,0.83382,0.43695,0.33922,0.60938,0.5902
3.912,0.84164,0.435,0.33529,0.61523,0.59608
3.92,0.84946,0.43304,0.33922,0.625,0.5902
3.928,0.85533,0.43011,0.32353,0.62891,0.59608
3.936,0.86119,0.42815,0.36471,0.61523,0.58039
3.944,0.86706,0.4262,0.35882,0.625,0.57451
3.952,0.87195,0.42326,0.36471,0.61914,0.58431
3.96,0.87683,0.42033,0.33529,0.62891,0.59608
3.968,0.8827,0.4174,0.3549,0.625,0.57451
3.976,0.88759,0.41447,0.36471,0.61914,0.56471
3.984,0.89345,0.41251,0.35882,0.63477,0.57059
3.992,0.89932,0.41056,0.38039,0.62891,0.5549
4,0.90518,0.4086,0.40392,0.61914,0.53922
4.008,0.91007,0.40665,0.42941,0.625,0.52549
4.016,0.91593,0.40567,0.43922,0.61914,0.51961
4.024,0.92082,0.40665,0.41961,0.60938,0.53529
4.032,0.92669,0.40958,0.4549,0.5957,0.5098
4.04,0.93157,0.41642,0.43529,0.60547,0.51961
4.048,0.93646,0.42522,0.43922,0.58984,0.53922
4.056,0.94233,0.43695,0.4,0.59961,0.55098
4.064,0.94917,0.45064,0.37451,0.60547,0.56078
4.072,0.95601,0.46432,0.38431,0.59961,0.5549
4.08,0.96383,0.47703,0.32941,0.61523,0.5902
4.088,0.97067,0.49169,0.33922,0.60938,0.58039
4.096,0.97752,0.50733,0.29412,0.625,0.6
4.104,0.98436,0.52199,0.2902,0.62891,0.60588
4.112,0.9912,0.53666,0.3,0.61523,0.6098
4.12,0.99609,0.54839,0.26863,0.62891,0.62549
4.128,1,0.55914,0.2549,0.63477,0.62549
4.136,1,0.56891,0.29412,0.62891,0.6
4.144,1,0.57576,0.30392,0.65039,0.61569
4.152,1,0.58065,0.23333,0.68555,0.62549
4.16,1,0.58358,0.35882,0.64453,0.56078
4.168,1,0.58553,0.62941,0.49414,0.4098
4.176,1,0.58651,0.7902,0.33008,0.32941
4.184,1,0.58553,0.84118,0.18945,0.32353
4.192,1,0.58358,0.56078,0.18555,0.53922
4.2,1,0.5826,0.3451,0.41016,0.64118
4.208,1,0.58065,0.31373,0.51953,0.62549
4.216,1,0.57869,0.2902,0.5957,0.62549
4.224,1,0.57674,0.3,0.625,0.6098
4.232,1,0.5738,0.26471,0.65039,0.61569
4.24,1,0.56989,0.24902,0.6543,0.62549
4.248,1,0.565,0.26863,0.65039,0.61569
4.256,1,0.55914,0.27843,0.64453,0.61569
4.264,1,0.55425,0.24902,0.65039,0.62549
4.272,1,0.54936,0.25882,0.6543,0.62549
4.28,1,0.54448,0.2451,0.6543,0.62549
4.288,1,0.53861,0.24902,0.66406,0.62549
4.296,1,0.53275,0.30392,0.63477,0.6
4.304,1,0.52493,0.31373,0.63477,0.5902
4.312,1,0.51711,0.2902,0.64062,0.60588
4.32,1,0.50929,0.29412,0.63477,0.60588
4.328,1,0.50342,0.32353,0.62891,0.5902
4.336,1,0.49756,0.28431,0.64062,0.60588
4.344,1,0.49169,0.26471,0.65039,0.6098
4.352,1,0.4868,0.28431,0.65039,0.60588
4.36,1,0.48192,0.26471,0.64453,0.61569
4.368,1,0.47801,0.3098,0.62891,0.5902
4.376,1,0.4741,0.29412,0.62891,0.59608
4.384,1,0.47116,0.31373,0.62891,0.58431
4.392,1,0.46823,0.33922,0.625,0.57451
4.4,1,0.46432,0.34902,0.625,0.56471
4.408,1,0.46139,0.33922,0.62891,0.57059
4.416,1,0.45846,0.35882,0.61914,0.5549
4.424,1,0.45552,0.38431,0.61523,0.53922
4.432,1,0.45357,0.38039,0.60547,0.53922
4.44,1,0.45161,0.36471,0.60938,0.5549
4.448,1,0.45064,0.38039,0.60547,0.53922
4.456,1,0.45064,0.37451,0.60938,0.5451
4.464,1,0.45161,0.4098,0.60547,0.52941
4.472,1,0.45259,0.4,0.61523,0.51961
4.48,1,0.45259,0.42549,0.60547,0.52941
4.488,1,0.45259,0.38039,0.62891,0.55098
4.496,1,0.45259,0.38431,0.63477,0.5451
4.504,1,0.45161,0.37059,0.62891,0.5549
4.512,1,0.45161,0.33529,0.64453,0.57451
4.52,1,0.45064,0.3098,0.65039,0.58431
4.528,1,0.44868,0.2902,0.64062,0.5902
4.536,1,0.4477,0.33922,0.625,0.57059
4.544,1,0.44575,0.31961,0.63477,0.58431
4.552,1,0.44477,0.31373,0.62891,0.58431
4.56,1,0.44282,0.32941,0.62891,0.58039
4.568,1,0.44184,0.3451,0.61914,0.57451
4.576,1,0.44086,0.3451,0.625,0.57451
4.584,1,0.43891,0.31373,0.62891,0.58431
4.592,1,0.43793,0.36471,0.61914,0.56471
4.6,1,0.43597,0.35882,0.625,0.57451
4.608,1,0.43402,0.37451,0.62891,0.56471
4.616,1,0.43988,0.33922,0.62891,0.58039
4.624,1,0.44966,0.33922,0.62891,0.58039
4.632,1,0.45357,0.33529,0.63477,0.57451
4.64,1,0.45455,0.3549,0.62891,0.57451
4.648,1,0.45455,0.33922,0.62891,0.58039
4.656,1,0.45357,0.3549,0.625,0.57451
4.664,1,0.45161,0.36471,0.61914,0.56471
4.672,1,0.45064,0.38431,0.62891,0.57059
4.68,1,0.44966,0.4098,0.61523,0.53922
4.688,1,0.44966,0.38431,0.62891,0.5549
4.696,1,0.45064,0.39412,0.62891,0.5451
4.704,1,0.45455,0.43922,0.59961,0.51961
4.712,1,0.46237,0.4549,0.5957,0.5098
4.72,1,0.47214,0.4549,0.58398,0.5098
4.728,1,0.48583,0.41569,0.59961,0.52941
4.736,1,0.50147,0.38431,0.60547,0.55098
4.744,1,0.51906,0.37059,0.61523,0.5549
4.752,1,0.53763,0.3451,0.61914,0.57059
4.76,1,0.55621,0.34902,0.61523,0.58039
4.768,1,0.57185,0.31961,0.625,0.5902
4.776,1,0.58553,0.29412,0.62891,0.6098
4.784,1,0.6002,0.27451,0.62891,0.61569
4.792,1,0.61486,0.2902,0.61914,0.60588
4.8,1,0.62659,0.31373,0.625,0.59608
4.808,1,0.63636,0.30392,0.61523,0.6
4.816,1,0.64418,0.29412,0.625,0.60588
4.824,1,0.64907,0.26471,0.66016,0.61569
4.832,1,0.65298,0.2549,0.68555,0.60588
4.84,1,0.65494,0.3902,0.6543,0.53529
4.848,1,0.65689,0.61961,0.48438,0.4098
4.856,1,0.65591,0.78627,0.31445,0.32941
4.864,1,0.65494,0.81569,0.17969,0.38431
4.872,1,0.65396,0.53922,0.16992,0.5549
4.88,1,0.65103,0.3451,0.4043,0.6451
4.888,1,0.64907,0.3098,0.52539,0.62549
4.896,1,0.64516,0.29412,0.59961,0.61961
4.904,1,0.64223,0.28431,0.625,0.61569
4.912,1,0.63832,0.23922,0.65039,0.63529
4.92,1,0.63539,0.23333,0.6543,0.64118
4.928,1,0.63148,0.2902,0.63477,0.60588
4.936,1,0.62659,0.27451,0.63477,0.61961
4.944,1,0.6217,0.28431,0.63477,0.6098
4.952,1,0.61681,0.26863,0.64062,0.61961
4.96,1,0.60997,0.26471,0.64453,0.62549
4.968,1,0.60411,0.24902,0.6543,0.62549
4.976,1,0.59824,0.2451,0.65039,0.62941
4.984,1,0.59335,0.29412,0.64062,0.60588
4.992,1,0.58749,0.31373,0.63477,0.5902
5,0.99707,0.58162,0.26471,0.65039,0.61961
5.008,0.99511,0.57478,0.2549,0.65039,0.62549
5.016,0.99218,0.56891,0.24902,0.65039,0.61961
5.024,0.99022,0.56305,0.3,0.64062,0.60588
5.032,0.98827,0.55621,0.30392,0.63477,0.6
5.04,0.98534,0.55132,0.31373,0.62891,0.5902
5.048,0.98338,0.54545,0.29412,0.64062,0.6
5.056,0.98143,0.54057,0.31961,0.63477,0.58431
5.064,0.97947,0.53666,0.3098,0.64453,0.5902
5.072,0.97849,0.53372,0.32353,0.625,0.58039
5.08,0.97654,0.53079,0.31373,0.63477,0.58431
5.088,0.97556,0.52786,0.31961,0.62891,0.57451
5.096,0.97556,0.52395,0.3451,0.625,0.56078
5.104,0.97458,0.52102,0.36471,0.62891,0.5549
5.112,0.97361,0.51711,0.38039,0.60547,0.5451
5.12,0.97263,0.51515,0.39412,0.60547,0.53922
5.128,0.97165,0.5132,0.4098,0.60938,0.52941
5.136,0.97067,0.51124,0.38431,0.62891,0.52941
5.144,0.9697,0.51026,0.41961,0.61914,0.52549
5.152,0.96872,0.50831,0.42941,0.61523,0.51569
5.16,0.96676,0.50733,0.37059,0.64062,0.55098
5.168,0.96579,0.50538,0.3451,0.65039,0.56471
5.176,0.96383,0.5044,0.36471,0.63477,0.5549
5.184,0.96188,0.50244,0.33922,0.64453,0.57059
5.192,0.95992,0.49951,0.32353,0.65039,0.58039
5.2,0.95797,0.49658,0.3549,0.64453,0.56471
5.208,0.95406,0.49365,0.33529,0.64062,0.58039
5.216,0.95112,0.48974,0.33922,0.62891,0.58039
5.224,0.94721,0.48778,0.33922,0.625,0.58039
5.232,0.9433,0.48485,0.3098,0.63477,0.5902
5.24,0.93842,0.48289,0.31373,0.62891,0.59608
5.248,0.93255,0.48094,0.33529,0.625,0.58039
5.256,0.92669,0.47996,0.32941,0.63477,0.58431
5.264,0.92082,0.47703,0.3451,0.61914,0.58039
5.272,0.91398,0.47507,0.35882,0.61523,0.58039
5.28,0.90714,0.4741,0.3549,0.61523,0.57451
5.288,0.89834,0.47116,0.36471,0.60938,0.57059
5.296,0.89052,0.46921,0.36471,0.61523,0.56471
5.304,0.8827,0.46628,0.36471,0.61523,0.56078
5.312,0.87586,0.46432,0.3549,0.61914,0.57059
5.32,0.86804,0.46139,0.3451,0.625,0.58039
5.328,0.86119,0.45943,0.36471,0.61914,0.57059
5.336,0.85435,0.4565,0.37451,0.61523,0.5549
5.344,0.84751,0.45455,0.3902,0.61914,0.55098
5.352,0.84066,0.45259,0.38431,0.625,0.5549
5.36,0.83382,0.45259,0.41569,0.61914,0.53529
5.368,0.82893,0.45357,0.43529,0.61523,0.52941
5.376,0.82307,0.4565,0.43529,0.60938,0.52941
5.384,0.81818,0.46139,0.46078,0.60547,0.5098
5.392,0.81427,0.46921,0.47451,0.5957,0.50588
5.4,0.81036,0.47996,0.48039,0.58008,0.5
5.408,0.80547,0.49365,0.4549,0.58008,0.5098
5.416,0.80156,0.50929,0.41961,0.5957,0.52941
5.424,0.79765,0.52688,0.38431,0.60547,0.55098
5.432,0.79472,0.54448,0.37451,0.61523,0.5549
5.44,0.79277,0.56305,0.3451,0.61914,0.58039
5.448,0.79081,0.58065,0.33529,0.625,0.58431
5.456,0.78886,0.59629,0.31961,0.625,0.59608
5.464,0.78592,0.61193,0.31373,0.625,0.60588
5.472,0.78397,0.62366,0.3,0.62891,0.60588
5.48,0.78104,0.63343,0.30392,0.625,0.60588
5.488,0.7781,0.64223,0.29412,0.62891,0.60588
5.496,0.77419,0.65005,0.2902,0.62891,0.6098
5.504,0.77126,0.65591,0.26471,0.6543,0.61569
5.512,0.76735,0.6608,0.23922,0.67578,0.62549
5.52,0.76442,0.66276,0.35882,0.66016,0.5451
5.528,0.75953,0.66373,0.59608,0.5,0.41961
5.536,0.75562,0.66373,0.72549,0.30078,0.37059
5.544,0.75073,0.66276,0.76667,0.16016,0.41961
5.552,0.74585,0.6608,0.5098,0.22461,0.58431
5.56,0.73998,0.65787,0.33529,0.39062,0.6549
5.568,0.73412,0.65494,0.3,0.52539,0.64118
5.576,0.72727,0.65005,0.27451,0.59961,0.62941
5.584,0.72043,0.64614,0.25882,0.64062,0.62549
5.592,0.71261,0.64223,0.2549,0.65039,0.62941
5.6,0.70577,0.63832,0.24902,0.66016,0.62549
5.608,0.69795,0.63539,0.2451,0.6543,0.62941
5.616,0.6911,0.63148,0.2451,0.66992,0.63529
5.624,0.68426,0.62659,0.23922,0.66406,0.64118
5.632,0.6784,0.62072,0.22941,0.66016,0.6451
5.64,0.67351,0.61486,0.2549,0.65039,0.62941
5.648,0.66862,0.60899,0.23922,0.66406,0.62549
5.656,0.66764,0.60215,0.23922,0.6543,0.63529
5.664,0.66569,0.59629,0.2451,0.65039,0.63529
5.672,0.66764,0.59042,0.23922,0.6543,0.64118
5.68,0.66862,0.58651,0.2451,0.65039,0.64118
5.688,0.67155,0.58065,0.25882,0.65039,0.63529
5.696,0.67449,0.57283,0.24902,0.64453,0.62941
5.704,0.67937,0.565,0.23333,0.65039,0.64118
5.712,0.68328,0.55718,0.2451,0.64453,0.6451
5.72,0.68915,0.54936,0.26471,0.64453,0.63529
5.728,0.69599,0.54154,0.24902,0.64453,0.63529
5.736,0.70283,0.5347,0.27843,0.64453,0.61569
5.744,0.71065,0.52688,0.27451,0.63477,0.61961
5.752,0.71554,0.52004,0.2902,0.63477,0.6098
5.76,0.72141,0.51222,0.31373,0.62891,0.60588
5.768,0.72532,0.50635,0.31373,0.625,0.6
5.776,0.72825,0.50049,0.33922,0.60938,0.58039
5.784,0.72923,0.49462,0.3451,0.60547,0.58039
5.792,0.73021,0.48876,0.36471,0.60547,0.57059
5.8,0.72727,0.48289,0.37059,0.59961,0.56471
5.808,0.72532,0.47801,0.36471,0.59961,0.57059
5.816,0.7175,0.47312,0.36471,0.60547,0.56471
5.824,0.70968,0.46725,0.36471,0.60938,0.57059
5.832,0.69697,0.46237,0.3549,0.625,0.56471
5.84,0.68426,0.45552,0.33922,0.62891,0.58039
5.848,0.67058,0.44966,0.32941,0.64062,0.58431
5.856,0.65591,0.44379,0.3098,0.65039,0.6
5.864,0.64027,0.43793,0.30392,0.66016,0.60588
5.872,0.62463,0.43402,0.32941,0.6543,0.59608
5.88,0.60508,0.43109,0.33922,0.64453,0.6
5.888,0.58553,0.42717,0.31373,0.64453,0.60588
5.896,0.56305,0.42326,0.3098,0.64062,0.60588
5.904,0.54057,0.41838,0.29412,0.64062,0.61569
5.912,0.51613,0.41447,0.2902,0.64062,0.6098
5.92,0.49169,0.41056,0.29412,0.63477,0.61961
5.928,0.46628,0.40665,0.3,0.64062,0.6098
5.936,0.44086,0.40078,0.31961,0.62891,0.60588
5.944,0.41838,0.39589,0.32353,0.62891,0.59608
5.952,0.39492,0.38905,0.3098,0.64453,0.60588
5.96,0.37341,0.38416,0.3,0.65039,0.6098
5.968,0.35191,0.38025,0.31373,0.64453,0.60588
5.976,0.3304,0.37732,0.31961,0.64453,0.6
5.984,0.30987,0.37439,0.31373,0.65039,0.60588
5.992,0.28935,0.37243,0.31373,0.65039,0.60588
6,0.26882,0.37048,0.32353,0.64062,0.59608
6.008,0.25122,0.36852,0.31961,0.63477,0.6
6.016,0.23265,0.36755,0.33922,0.65039,0.5902
6.024,0.21701,0.36657,0.36471,0.64062,0.57059
6.032,0.20137,0.36657,0.38039,0.64062,0.57451
6.04,0.18573,0.36657,0.38431,0.64062,0.56471
6.048,0.17009,0.36755,0.40392,0.62891,0.55098
6.056,0.15445,0.3695,0.41569,0.61914,0.5451
6.064,0.13881,0.37146,0.42941,0.60547,0.52941
6.072,0.12414,0.37537,0.43529,0.5957,0.52941
6.08,0.1085,0.38025,0.40392,0.59961,0.5451
6.088,0.094819,0.38807,0.37059,0.60547,0.5549
6.096,0.080156,0.39883,0.3549,0.60938,0.58039
6.104,0.068426,0.41251,0.33529,0.61523,0.59608
6.112,0.056696,0.42815,0.3098,0.61914,0.60588
6.12,0.045943,0.44477,0.29412,0.625,0.61569
6.128,0.036168,0.46237,0.28431,0.61914,0.62549
6.136,0.026393,0.47996,0.26863,0.625,0.63529
6.144,0.01564,0.49658,0.27843,0.61914,0.62549
6.152,0.0078201,0.51222,0.26863,0.61914,0.63529
6.16,0,0.5259,0.25882,0.625,0.63529
6.168,0,0.53568,0.26863,0.625,0.64118
6.176,0,0.5435,0.2451,0.66016,0.62941
6.184,0,0.55034,0.21373,0.67969,0.6549
6.192,0,0.55621,0.37059,0.65039,0.57059
6.2,0,0.55914,0.61569,0.53516,0.42549
6.208,0,0.56207,0.72549,0.32422,0.3902
6.216,0,0.56305,0.76667,0.18945,0.43529
6.224,0,0.56305,0.5098,0.25586,0.59608
6.232,0,0.56207,0.33529,0.40039,0.68039
6.24,0,0.56012,0.3098,0.50586,0.65098
6.248,0,0.55816,0.27843,0.58984,0.65098
6.256,0,0.55621,0.26863,0.62891,0.64118
6.264,0,0.55327,0.27451,0.63477,0.62941
6.272,0,0.54936,0.23922,0.64062,0.65098
6.28,0,0.54545,0.23333,0.64062,0.66078
6.288,0,0.54154,0.25882,0.64453,0.63529
6.296,0,0.53763,0.26863,0.62891,0.64118
6.304,0,0.5347,0.2451,0.64453,0.6451
6.312,0,0.53079,0.25882,0.64453,0.65098
6.32,0,0.5259,0.26863,0.64453,0.62549
6.328,0,0.52004,0.2549,0.64453,0.62941
6.336,0,0.5132,0.2549,0.65039,0.64118
6.344,0,0.50733,0.25882,0.63477,0.62941
6.352,0,0.50049,0.27843,0.62891,0.62549
6.36,0,0.49365,0.28431,0.63477,0.62549
6.368,0,0.48876,0.26863,0.64062,0.62941
6.376,0,0.48289,0.27843,0.62891,0.61961
6.384,0,0.47605,0.2902,0.62891,0.61569
6.392,0,0.46921,0.28431,0.62891,0.61961
6.4,0,0.46237,0.28431,0.61523,0.62549
6.408,0,0.45552,0.3,0.61523,0.61569
6.416,0,0.44966,0.30392,0.61523,0.6098
6.424,0,0.44379,0.3,0.59961,0.60588
6.432,0,0.43891,0.32941,0.5957,0.6
6.44,0,0.435,0.31961,0.58984,0.59608
6.448,0,0.43206,0.3451,0.58008,0.58431
6.456,0,0.43109,0.35882,0.58398,0.57451
6.464,0,0.43011,0.37059,0.58008,0.56471
6.472,0,0.43109,0.36471,0.58984,0.57059
6.48,0,0.43109,0.38039,0.57422,0.5549
6.488,0,0.43109,0.39412,0.57031,0.55098
6.496,0,0.43109,0.38431,0.58008,0.5549
6.504,0.001955,0.43109,0.38431,0.58984,0.5549
6.512,0.0039101,0.43109,0.3549,0.60547,0.57059
6.52,0.0078201,0.43109,0.3451,0.625,0.57451
6.528,0.01173,0.43109,0.33922,0.62891,0.58039
6.536,0.014663,0.43109,0.33529,0.64453,0.58039
6.544,0.017595,0.43109,0.33529,0.64453,0.58431
6.552,0.01955,0.43109,0.3451,0.64062,0.58039
6.56,0.022483,0.43109,0.33922,0.63477,0.58039
6.568,0.02346,0.43109,0.31373,0.64453,0.60588
6.576,0.024438,0.43109,0.33529,0.63477,0.5902
6.584,0.025415,0.43109,0.33922,0.62891,0.58039
6.592,0.026393,0.43109,0.30392,0.63477,0.60588
6.6,0.026393,0.43109,0.31961,0.62891,0.60588
6.608,0.026393,0.43109,0.32941,0.62891,0.58431
6.616,0.026393,0.43109,0.33922,0.63477,0.59608
6.624,0.025415,0.43109,0.34902,0.62891,0.5902
6.632,0.024438,0.43011,0.3549,0.62891,0.58039
6.64,0.02346,0.42815,0.3451,0.61914,0.5902
6.648,0.022483,0.42522,0.3549,0.62891,0.58039
6.656,0.021505,0.42229,0.36471,0.62891,0.58039
6.664,0.021505,0.41935,0.33922,0.62891,0.58431
6.672,0.021505,0.41838,0.33529,0.63477,0.5902
6.68,0.021505,0.41838,0.35882,0.625,0.57451
6.688,0.021505,0.4174,0.36471,0.62891,0.57451
6.696,0.022483,0.41642,0.35882,0.625,0.56471
6.704,0.022483,0.41447,0.42941,0.61914,0.52941
6.712,0.024438,0.41349,0.44902,0.625,0.52549
6.72,0.026393,0.41251,0.41961,0.62891,0.53922
6.728,0.029326,0.41153,0.44902,0.60938,0.52941
6.736,0.031281,0.41056,0.5,0.59961,0.49412
6.744,0.035191,0.41153,0.5098,0.58008,0.4902
6.752,0.038123,0.41447,0.43529,0.59961,0.52549
6.76,0.042033,0.41935,0.42941,0.60547,0.52941
6.768,0.045943,0.42522,0.40392,0.5957,0.5451
6.776,0.049853,0.43304,0.38039,0.60938,0.56078
6.784,0.053763,0.44379,0.34902,0.61523,0.58039
6.792,0.058651,0.4565,0.33922,0.61914,0.58431
6.8,0.062561,0.47116,0.32353,0.61914,0.60588
6.808,0.067449,0.4868,0.3098,0.62891,0.60588
6.816,0.071359,0.50342,0.3,0.61914,0.61569
6.824,0.076246,0.51808,0.31373,0.61523,0.60588
6.832,0.080156,0.53177,0.31373,0.61914,0.60588
6.84,0.085044,0.5435,0.32941,0.60547,0.6
6.848,0.088954,0.5523,0.2902,0.62891,0.61569
6.856,0.093842,0.55914,0.2451,0.67578,0.62549
6.864,0.098729,0.56207,0.3549,0.65039,0.56471
6.872,0.10459,0.56403,0.6098,0.53906,0.42941
6.88,0.11046,0.56403,0.75098,0.3457,0.36471
6.888,0.11828,0.56305,0.8,0.19531,0.35882
6.896,0.12512,0.56109,0.5902,0.23438,0.52941
6.904,0.13196,0.56012,0.38431,0.38086,0.64118
6.912,0.13881,0.55914,0.35882,0.48047,0.62549
6.92,0.14663,0.55718,0.3451,0.55469,0.6
6.928,0.15347,0.55523,0.29412,0.61523,0.61961
6.936,0.16227,0.55327,0.26471,0.65039,0.62549
6.944,0.17107,0.54936,0.28431,0.64453,0.61569
6.952,0.18182,0.54545,0.27843,0.64453,0.61569
6.96,0.19257,0.54154,0.2902,0.64453,0.60588
6.968,0.20332,0.53763,0.2902,0.64453,0.61569
6.976,0.21408,0.53275,0.27451,0.65039,0.61961
6.984,0.22483,0.52688,0.2902,0.64062,0.6098
6.992,0.23656,0.52199,0.27843,0.64453,0.60588
7,0.24927,0.51613,0.2902,0.63477,0.61961
7.008,0.26197,0.51124,0.2902,0.625,0.60588
7.016,0.27566,0.50538,0.2902,0.64453,0.60588
7.024,0.29032,0.49951,0.28431,0.62891,0.6
7.032,0.30499,0.49365,0.3,0.63477,0.60588
7.04,0.31965,0.48876,0.29412,0.64062,0.6
7.048,0.33529,0.48387,0.28431,0.62891,0.6098
7.056,0.34995,0.47996,0.29412,0.62891,0.60588
7.064,0.36461,0.47703,0.3098,0.625,0.6
7.072,0.3783,0.47507,0.31961,0.60547,0.5902
7.08,0.39198,0.4741,0.32353,0.61523,0.5902
7.088,0.40469,0.47214,0.31961,0.61914,0.58431
7.096,0.41838,0.47019,0.33529,0.60547,0.58039
7.104,0.43304,0.46823,0.33922,0.58984,0.58039
7.112,0.44673,0.46725,0.35882,0.59961,0.57451
7.12,0.46139,0.4653,0.35882,0.60547,0.58039
7.128,0.4741,0.46432,0.39412,0.58398,0.5451
7.136,0.48778,0.46334,0.40392,0.57422,0.53529
7.144,0.50049,0.46237,0.4098,0.57422,0.53529
7.152,0.5132,0.46237,0.42549,0.58008,0.52941
7.16,0.5259,0.46237,0.43529,0.56445,0.51961
7.168,0.53861,0.46334,0.4098,0.58008,0.53529
7.176,0.55132,0.46334,0.41569,0.58984,0.52941
7.184,0.565,0.46334,0.35882,0.61523,0.56078
7.192,0.57771,0.46237,0.37451,0.61914,0.5549
7.2,0.5914,0.46237,0.38431,0.625,0.5549
7.208,0.60508,0.46139,0.38039,0.60547,0.5549
7.216,0.61779,0.46041,0.36471,0.625,0.57451
7.224,0.62952,0.45943,0.36471,0.63477,0.56471
7.232,0.64027,0.45846,0.37059,0.63477,0.56471
7.24,0.65005,0.4565,0.34902,0.625,0.57451
7.248,0.6608,0.45552,0.35882,0.625,0.56471
7.256,0.67155,0.45357,0.34902,0.62891,0.57451
7.264,0.68231,0.45259,0.33529,0.63477,0.58039
7.272,0.69501,0.45161,0.3549,0.61914,0.57451
7.28,0.70674,0.45064,0.35882,0.625,0.57059
7.288,0.7175,0.44966,0.33922,0.61914,0.58039
7.296,0.72825,0.4477,0.3451,0.63477,0.57451
7.304,0.739,0.44673,0.36471,0.62891,0.56471
7.312,0.74878,0.44477,0.37451,0.62891,0.56471
7.32,0.76149,0.44379,0.36471,0.62891,0.56471
7.328,0.77419,0.44282,0.37059,0.63477,0.56471
7.336,0.78886,0.44086,0.37059,0.61914,0.56471
7.344,0.80352,0.43988,0.36471,0.62891,0.57059
7.352,0.82111,0.43793,0.38431,0.625,0.55098
7.36,0.83773,0.43695,0.4,0.63477,0.5451
7.368,0.85728,0.43597,0.42549,0.60938,0.53922
7.376,0.87586,0.435,0.43529,0.61914,0.52549
7.384,0.89345,0.43402,0.44902,0.61523,0.51961
7.392,0.91105,0.43206,0.4549,0.62891,0.5098
7.4,0.92864,0.43109,0.46078,0.61523,0.50588
7.408,0.94624,0.43109,0.48431,0.58984,0.5098
7.416,0.96676,0.43304,0.50588,0.58398,0.48431
7.424,0.98729,0.43695,0.5,0.57422,0.50588
7.432,0.99413,0.44379,0.46471,0.58008,0.5
7.44,1,0.45357,0.4098,0.59961,0.53922
7.448,1,0.4653,0.4098,0.60547,0.55098
7.456,1,0.47996,0.38431,0.60547,0.56078
7.464,1,0.49365,0.3549,0.61523,0.57451
7.472,1,0.50733,0.33922,0.61914,0.58039
7.48,1,0.52199,0.33922,0.60938,0.5902
7.488,1,0.53763,0.33922,0.61523,0.58431
7.496,1,0.5523,0.32941,0.61914,0.59608
7.504,1,0.56598,0.33529,0.61523,0.5902
7.512,1,0.57674,0.32941,0.60938,0.58431
7.52,1,0.58553,0.3098,0.625,0.6
7.528,1,0.59238,0.2902,0.66992,0.6098
7.536,1,0.59726,0.32941,0.67578,0.58039
7.544,1,0.6002,0.5549,0.58008,0.46078
7.552,1,0.60215,0.7451,0.38477,0.35882
7.56,1,0.60215,0.8451,0.23047,0.33922
7.568,1,0.60117,0.71569,0.17969,0.44902
7.576,1,0.59922,0.4549,0.32422,0.6098
7.584,1,0.59726,0.37059,0.45508,0.62941
7.592,1,0.59433,0.33922,0.55469,0.6098
7.6,1,0.5914,0.3,0.61523,0.60588
7.608,1,0.58847,0.26863,0.64062,0.62549
7.616,1,0.58553,0.2902,0.62891,0.60588
7.624,1,0.5826,0.3,0.63477,0.60588
7.632,1,0.57869,0.2902,0.64453,0.6098
7.64,1,0.57478,0.3098,0.64062,0.6
7.648,1,0.56989,0.27451,0.6543,0.61961
7.656,1,0.565,0.3,0.64453,0.6098
7.664,1,0.56109,0.2902,0.64453,0.60588
7.672,1,0.55718,0.3098,0.65039,0.6
7.68,1,0.55327,0.29412,0.63477,0.6098
7.688,1,0.54936,0.2902,0.62891,0.61569
7.696,1,0.54545,0.3098,0.62891,0.60588
7.704,1,0.54154,0.3,0.62891,0.60588
7.712,1,0.53763,0.31373,0.62891,0.60588
7.72,1,0.53275,0.30392,0.63477,0.60588
7.728,1,0.52786,0.3098,0.62891,0.60588
7.736,1,0.52297,0.2902,0.62891,0.6098
7.744,1,0.51906,0.28431,0.62891,0.60588
7.752,1,0.51613,0.27843,0.625,0.6
7.76,1,0.5132,0.33529,0.625,0.58039
7.768,1,0.51026,0.31961,0.625,0.5902
7.776,1,0.50733,0.35882,0.60938,0.57059
7.784,1,0.50538,0.33922,0.61914,0.58039
7.792,1,0.50244,0.37451,0.60547,0.5549
7.8,1,0.49951,0.36471,0.60938,0.56078
7.808,1,0.49756,0.4098,0.58984,0.52941
7.816,1,0.49658,0.4098,0.5957,0.52941
7.824,1,0.49658,0.41961,0.58008,0.52549
7.832,1,0.4956,0.43529,0.58984,0.51569
7.84,1,0.4956,0.41961,0.5957,0.52941
7.848,1,0.49462,0.4,0.60547,0.53529
7.856,1,0.49267,0.38039,0.59961,0.55098
7.864,1,0.49071,0.36471,0.625,0.5549
7.872,1,0.48876,0.37451,0.62891,0.5549
7.88,1,0.4868,0.3549,0.63477,0.57059
7.888,1,0.48387,0.33922,0.64062,0.57451
7.896,1,0.48094,0.36471,0.62891,0.56471
7.904,1,0.47801,0.3451,0.63477,0.58039
7.912,1,0.47605,0.3549,0.62891,0.57451
7.92,1,0.4741,0.32353,0.62891,0.5902
7.928,1,0.47214,0.32353,0.62891,0.59608
7.936,1,0.47116,0.32941,0.625,0.58431
7.944,1,0.46921,0.33529,0.61523,0.59608
7.952,1,0.46628,0.31961,0.62891,0.58431
7.96,1,0.46334,0.3098,0.62891,0.60588
7.968,1,0.46041,0.31961,0.61914,0.59608
7.976,1,0.45748,0.32941,0.62891,0.5902
7.984,1,0.45357,0.32353,0.625,0.58431
7.992,1,0.44966,0.33529,0.625,0.5902
8,1,0.44575,0.31961,0.64062,0.58431
8.008,1,0.44282,0.33529,0.63477,0.59608
8.016,1,0.43891,0.34902,0.625,0.58039
8.024,1,0.43597,0.3549,0.62891,0.58039
8.032,1,0.43402,0.34902,0.62891,0.58039
8.04,1,0.43206,0.37059,0.62891,0.56471
8.048,1,0.43011,0.3549,0.63477,0.57451
8.056,1,0.42913,0.37451,0.64062,0.5549
8.064,1,0.42913,0.37451,0.62891,0.56078
8.072,0.99218,0.43011,0.40392,0.61914,0.5549
8.08,0.98436,0.43206,0.4,0.60547,0.53922
8.088,0.97556,0.43402,0.43529,0.60547,0.52941
8.096,0.96676,0.43891,0.4098,0.59961,0.53922
8.104,0.95797,0.44575,0.42549,0.60547,0.53529
8.112,0.95015,0.45455,0.35882,0.61523,0.56471
8.12,0.94037,0.46628,0.33529,0.61914,0.5902
8.128,0.9306,0.47996,0.33922,0.61914,0.58431
8.136,0.91984,0.49365,0.33529,0.61523,0.59608
8.144,0.91007,0.50733,0.3,0.625,0.6098
8.152,0.89834,0.52102,0.26863,0.63477,0.62549
8.16,0.88759,0.53177,0.26471,0.625,0.62549
8.168,0.87586,0.54154,0.25882,0.63477,0.62941
8.176,0.86413,0.55034,0.29412,0.61523,0.6098
8.184,0.85337,0.55816,0.3,0.625,0.6098
8.192,0.84164,0.565,0.2451,0.65039,0.62941
8.2,0.83187,0.57087,0.22353,0.68555,0.64118
8.208,0.82111,0.57576,0.24902,0.69531,0.62549
8.216,0.81036,0.57967,0.41961,0.61914,0.52549
8.224,0.79961,0.58162,0.68039,0.43555,0.38039
8.232,0.78983,0.5826,0.79608,0.28516,0.33922
8.24,0.77908,0.5826,0.7,0.18945,0.4451
8.248,0.76931,0.58065,0.43529,0.30469,0.6098
8.256,0.76051,0.57869,0.31373,0.46094,0.65098
8.264,0.75171,0.57576,0.28431,0.56055,0.64118
8.272,0.74291,0.57283,0.27843,0.61523,0.62549
8.28,0.73509,0.56891,0.26863,0.63477,0.62549
8.288,0.72825,0.56403,0.2451,0.6543,0.62941
8.296,0.72141,0.56012,0.23922,0.66406,0.63529
8.304,0.71554,0.55621,0.2549,0.65039,0.62549
8.312,0.71065,0.5523,0.27451,0.64453,0.61569
8.32,0.70674,0.54839,0.29412,0.62891,0.60588
8.328,0.70283,0.54448,0.2549,0.64453,0.62549
8.336,0.6999,0.54154,0.2451,0.65039,0.63529
8.344,0.69795,0.53763,0.2549,0.6543,0.62549
8.352,0.69599,0.53275,0.25882,0.65039,0.62941
8.36,0.69501,0.52884,0.26471,0.64453,0.62549
8.368,0.69404,0.52493,0.28431,0.65039,0.61569
8.376,0.69501,0.52102,0.27451,0.62891,0.61961
8.384,0.69599,0.51711,0.26471,0.65039,0.62549
8.392,0.69892,0.51222,0.2902,0.62891,0.6098
8.4,0.70186,0.50635,0.30392,0.61914,0.59608
8.408,0.70479,0.50049,0.31373,0.62891,0.6
8.416,0.7087,0.4956,0.27843,0.63477,0.6098
8.424,0.71163,0.48974,0.27451,0.64453,0.61961
8.432,0.71554,0.48387,0.30392,0.62891,0.6
8.44,0.72043,0.47898,0.33922,0.60938,0.58039
8.448,0.72434,0.4741,0.31961,0.61914,0.5902
8.456,0.73021,0.47019,0.32941,0.61914,0.58039
8.464,0.73509,0.46725,0.36471,0.59961,0.5549
8.472,0.73998,0.4653,0.37451,0.5957,0.5549
8.48,0.74487,0.46432,0.33922,0.61914,0.56471
8.488,0.74878,0.46237,0.41569,0.58398,0.52549
8.496,0.75269,0.46139,0.42549,0.5957,0.51961
8.504,0.75562,0.46041,0.4098,0.60547,0.52941
8.512,0.75758,0.46041,0.4098,0.60547,0.52941
8.52,0.75953,0.46041,0.3902,0.61914,0.53529
8.528,0.76149,0.45943,0.38431,0.61523,0.5451
8.536,0.76246,0.45943,0.39412,0.62891,0.53529
8.544,0.76246,0.45748,0.36471,0.62891,0.5549
8.552,0.76246,0.4565,0.3451,0.64453,0.57451
8.56,0.76246,0.45552,0.3549,0.62891,0.58039
8.568,0.76149,0.45455,0.3549,0.625,0.57059
8.576,0.76051,0.45357,0.33529,0.61914,0.58431
8.584,0.75855,0.45259,0.3098,0.64062,0.6
8.592,0.7566,0.45064,0.33529,0.62891,0.5902
8.6,0.75367,0.44966,0.34902,0.63477,0.57451
8.608,0.74976,0.4477,0.36471,0.61914,0.57059
8.616,0.74585,0.44575,0.33529,0.62891,0.58039
8.624,0.74194,0.44379,0.32353,0.62891,0.59608
8.632,0.73705,0.44282,0.32941,0.62891,0.6
8.64,0.73216,0.44086,0.32353,0.63477,0.58431
8.648,0.72727,0.43988,0.35882,0.60547,0.57451
8.656,0.72239,0.43793,0.37451,0.61914,0.56471
8.664,0.71652,0.43695,0.3098,0.63477,0.6
8.672,0.71163,0.43597,0.31961,0.63477,0.5902
8.68,0.70674,0.435,0.31373,0.62891,0.58039
8.688,0.70088,0.43402,0.33922,0.63477,0.58039
8.696,0.69697,0.43206,0.32353,0.61914,0.58431
8.704,0.69208,0.43109,0.3549,0.61523,0.57451
8.712,0.68915,0.42033,0.33922,0.62891,0.58039
8.72,0.68524,0.40665,0.38431,0.61914,0.5549
8.728,0.68231,0.39883,0.39412,0.62891,0.55098
8.736,0.6784,0.39589,0.38039,0.625,0.5549
8.744,0.67546,0.39492,0.4,0.61523,0.53922
8.752,0.67155,0.39785,0.42941,0.60547,0.52941
8.76,0.6696,0.40274,0.44902,0.59961,0.51569
8.768,0.66764,0.40958,0.43922,0.58398,0.52549
8.776,0.66569,0.42033,0.44902,0.58008,0.51961
8.784,0.66471,0.43402,0.37059,0.60547,0.5549
8.792,0.66373,0.45064,0.3549,0.60938,0.57059
8.8,0.66276,0.46823,0.34902,0.60547,0.58039
8.808,0.6608,0.48778,0.32353,0.61523,0.59608
8.816,0.65982,0.50538,0.30392,0.61523,0.60588
8.824,0.65885,0.52297,0.28431,0.62891,0.61569
8.832,0.65787,0.53959,0.29412,0.61914,0.6098
8.84,0.65689,0.55425,0.27451,0.61523,0.61569
8.848,0.65591,0.56696,0.26863,0.625,0.62549
8.856,0.65494,0.57771,0.29412,0.61523,0.6098
8.864,0.65396,0.58553,0.29412,0.61914,0.60588
8.872,0.65298,0.59042,0.27451,0.62891,0.61961
8.88,0.652,0.59531,0.2549,0.66992,0.62549
8.888,0.65103,0.6002,0.2902,0.67578,0.59608
8.896,0.65005,0.60411,0.50588,0.58398,0.47451
8.904,0.64907,0.60606,0.7,0.39453,0.36471
8.912,0.64809,0.60704,0.81569,0.24023,0.33922
8.92,0.64516,0.60802,0.66471,0.18555,0.47059
8.928,0.64321,0.60802,0.41961,0.32422,0.61569
8.936,0.6393,0.60704,0.32353,0.47461,0.63529
8.944,0.63539,0.60508,0.31373,0.56445,0.6098
8.952,0.63148,0.60215,0.30392,0.60547,0.6098
8.96,0.62659,0.59824,0.29412,0.62891,0.61569
8.968,0.62268,0.59531,0.28431,0.65039,0.62549
8.976,0.61779,0.5914,0.30392,0.62891,0.60588
8.984,0.6129,0.58553,0.3098,0.62891,0.60588
8.992,0.60802,0.57967,0.26863,0.64453,0.61961
9,0.60313,0.57478,0.28431,0.64062,0.61569
9.008,0.59824,0.56891,0.2902,0.62891,0.61569
9.016,0.59238,0.56305,0.3,0.63477,0.60588
9.024,0.58749,0.55718,0.29412,0.64453,0.6098
9.032,0.5826,0.5523,0.28431,0.62891,0.61961
9.04,0.57771,0.54545,0.29412,0.62891,0.60588
9.048,0.57283,0.53861,0.3,0.63477,0.60588
9.056,0.56891,0.53177,0.29412,0.62891,0.60588
9.064,0.565,0.52395,0.29412,0.62891,0.60588
9.072,0.56207,0.51808,0.3,0.63477,0.60588
9.08,0.55914,0.51222,0.2902,0.64062,0.60588
9.088,0.55621,0.50635,0.28431,0.64453,0.61569
9.096,0.55327,0.50049,0.3098,0.625,0.6
9.104,0.55034,0.4956,0.29412,0.62891,0.60588
9.112,0.54936,0.49071,0.2902,0.62891,0.6
9.12,0.54741,0.48583,0.31373,0.62891,0.58431
9.128,0.54643,0.48192,0.33529,0.625,0.57451
9.136,0.54545,0.47703,0.34902,0.61914,0.56471
9.144,0.54448,0.47312,0.3549,0.61914,0.56078
9.152,0.5435,0.46823,0.3451,0.61914,0.57451
9.16,0.54154,0.4653,0.37059,0.61523,0.5549
9.168,0.54057,0.46237,0.37451,0.61914,0.55098
9.176,0.53959,0.45943,0.38431,0.60547,0.52941
9.184,0.53763,0.45748,0.38431,0.60547,0.53922
9.192,0.53568,0.45748,0.40392,0.60938,0.52549
9.2,0.53372,0.4565,0.39412,0.61523,0.52941
9.208,0.53079,0.45552,0.38431,0.62891,0.53529
9.216,0.52884,0.45455,0.36471,0.63477,0.55098
9.224,0.5259,0.45357,0.3451,0.65039,0.56471
9.232,0.52297,0.45259,0.33529,0.64453,0.57451
9.24,0.51906,0.45161,0.33922,0.65039,0.58039
9.248,0.51515,0.45064,0.32353,0.6543,0.57451
9.256,0.51026,0.44868,0.3098,0.6543,0.5902
9.264,0.50538,0.4477,0.3,0.65039,0.60588
9.272,0.50049,0.44673,0.31373,0.64062,0.59608
9.28,0.49462,0.44477,0.3098,0.63477,0.6
9.288,0.48974,0.44379,0.30392,0.65039,0.60588
9.296,0.48485,0.44086,0.3,0.65039,0.6
9.304,0.47996,0.43891,0.31373,0.63477,0.59608
9.312,0.47507,0.43597,0.3098,0.65039,0.60588
9.32,0.47019,0.43304,0.2902,0.64453,0.61961
9.328,0.4653,0.43109,0.3,0.65039,0.6098
9.336,0.46041,0.42913,0.31373,0.64062,0.6
9.344,0.45455,0.42717,0.32941,0.64062,0.58431
9.352,0.44868,0.42424,0.32353,0.64453,0.5902
9.36,0.44379,0.42229,0.3098,0.64453,0.6
9.368,0.43891,0.41935,0.31373,0.65039,0.59608
9.376,0.43402,0.41447,0.32353,0.62891,0.6
9.384,0.43011,0.41056,0.3098,0.64062,0.60588
9.392,0.4262,0.40665,0.31373,0.64062,0.6
9.4,0.42229,0.40274,0.32941,0.64062,0.5902
9.408,0.41838,0.40078,0.34902,0.63477,0.57451
9.416,0.41349,0.3998,0.37059,0.64062,0.56471
9.424,0.4086,0.3998,0.36471,0.64062,0.56471
9.432,0.40371,0.40078,0.37059,0.62891,0.56078
9.44,0.39883,0.40469,0.3902,0.61914,0.5549
9.448,0.39296,0.41056,0.4098,0.60547,0.5451
9.456,0.3871,0.42033,0.39412,0.59961,0.55098
9.464,0.38123,0.43109,0.36471,0.60547,0.57059
9.472,0.37634,0.44282,0.33922,0.61523,0.58039
9.48,0.37146,0.45943,0.33529,0.61523,0.59608
9.488,0.36657,0.47703,0.3098,0.61914,0.6098
9.496,0.36168,0.4956,0.28431,0.625,0.62549
9.504,0.35582,0.51222,0.2549,0.62891,0.63529
9.512,0.34995,0.52884,0.2549,0.62891,0.64118
9.52,0.34409,0.54448,0.25882,0.625,0.64118
9.528,0.33822,0.55718,0.23922,0.62891,0.65098
9.536,0.33333,0.56794,0.2451,0.62891,0.65098
9.544,0.32747,0.57576,0.26471,0.62891,0.62941
9.552,0.3216,0.58162,0.23922,0.64453,0.62549
9.56,0.31672,0.58553,0.19412,0.67969,0.66078
9.568,0.31085,0.58651,0.26863,0.66406,0.61961
9.576,0.30596,0.58651,0.52549,0.59961,0.47059
9.584,0.3001,0.58553,0.68039,0.39453,0.3902
9.592,0.29619,0.5826,0.7451,0.20508,0.40392
9.6,0.29228,0.57967,0.59608,0.17969,0.53529
9.608,0.28935,0.57674,0.38431,0.3457,0.6549
9.616,0.28543,0.5738,0.31961,0.46094,0.67059
9.624,0.28348,0.57087,0.3,0.56055,0.64118
9.632,0.28055,0.56794,0.26863,0.625,0.62941
9.64,0.27957,0.565,0.2549,0.64453,0.63529
9.648,0.27761,0.56012,0.22941,0.6543,0.65098
9.656,0.27664,0.55523,0.22353,0.65039,0.64118
9.664,0.27664,0.55132,0.23922,0.6543,0.63529
9.672,0.27761,0.54643,0.23333,0.6543,0.6451
9.68,0.27859,0.54057,0.21961,0.6543,0.65098
9.688,0.27957,0.53568,0.23333,0.66016,0.64118
9.696,0.28055,0.52884,0.24902,0.64453,0.62941
9.704,0.28152,0.52199,0.26863,0.65039,0.62549
9.712,0.28348,0.51417,0.26471,0.63477,0.62941
9.72,0.28543,0.50733,0.24902,0.63477,0.64118
9.728,0.28739,0.49951,0.25882,0.62891,0.62941
9.736,0.29032,0.49169,0.26863,0.62891,0.62549
9.744,0.29326,0.48192,0.25882,0.62891,0.63529
9.752,0.29521,0.47312,0.2549,0.62891,0.62941
9.76,0.29717,0.46628,0.26471,0.62891,0.62549
9.768,0.29814,0.46041,0.26863,0.62891,0.61569
9.776,0.3001,0.45455,0.27451,0.61914,0.61961
9.784,0.3001,0.44966,0.27843,0.62891,0.62549
9.792,0.30108,0.44379,0.2902,0.61523,0.61569
9.8,0.3001,0.43988,0.29412,0.60938,0.60588
9.808,0.3001,0.43597,0.30392,0.60547,0.60588
9.816,0.29814,0.43304,0.31961,0.60547,0.5902
9.824,0.29619,0.43011,0.33922,0.58398,0.58039
9.832,0.29326,0.42717,0.3451,0.57422,0.58039
9.84,0.29032,0.42424,0.32941,0.59961,0.58431
9.848,0.28641,0.42229,0.35882,0.57422,0.57059
9.856,0.2825,0.42033,0.37059,0.57031,0.5549
9.864,0.27859,0.41935,0.36471,0.57422,0.57059
9.872,0.27468,0.4174,0.35882,0.57031,0.56471
9.88,0.26882,0.41642,0.33922,0.58984,0.58431
9.888,0.26393,0.41447,0.35882,0.59961,0.57451
9.896,0.25709,0.41251,0.33922,0.60547,0.58039
9.904,0.25122,0.41056,0.33529,0.61523,0.58431
9.912,0.24438,0.40762,0.33922,0.625,0.58039
9.92,0.23754,0.40567,0.32941,0.63477,0.58431
9.928,0.22972,0.40371,0.3098,0.63477,0.60588
9.936,0.22287,0.40176,0.2902,0.64453,0.61569
9.944,0.21603,0.40078,0.3098,0.64453,0.60588
9.952,0.21017,0.39883,0.31373,0.63477,0.6
9.96,0.2043,0.39687,0.31373,0.62891,0.59608
9.968,0.19844,0.39492,0.29412,0.63477,0.61569
9.976,0.19062,0.39198,0.3,0.62891,0.6098
9.984,0.18377,0.38905,0.30392,0.64062,0.60588
9.992,0.17498,0.38612,0.3,0.62891,0.6098
10,0.16716,0.38416,0.32353,0.62891,0.59608
10.008,0.15934,0.38319,0.33922,0.62891,0.5902
10.016,0.15249,0.38221,0.3,0.62891,0.61569
10.024,0.14663,0.38221,0.2902,0.62891,0.62549
10.032,0.13978,0.38123,0.33529,0.625,0.5902
10.04,0.13294,0.37928,0.33922,0.61914,0.59608
10.048,0.12512,0.37732,0.32941,0.62891,0.5902
10.056,0.1173,0.37634,0.31373,0.63477,0.6
10.064,0.1085,0.37537,0.31373,0.62891,0.60588
10.072,0.099707,0.37341,0.33922,0.64453,0.58431
10.08,0.090909,0.37243,0.37059,0.62891,0.57059
10.088,0.081134,0.37048,0.38039,0.64453,0.56471
10.096,0.072336,0.36852,0.38431,0.62891,0.5549
10.104,0.064516,0.36852,0.38431,0.62891,0.56078
10.112,0.056696,0.36755,0.4098,0.61523,0.55098
10.12,0.048876,0.36852,0.43922,0.59961,0.52941
10.128,0.042033,0.37146,0.42941,0.58984,0.52941
10.136,0.034213,0.3783,0.41569,0.58008,0.5451
10.144,0.026393,0.3871,0.3902,0.59961,0.5549
10.152,0.018573,0.39883,0.33529,0.61523,0.59608
10.16,0.010753,0.41153,0.31373,0.62891,0.60588
10.168,0.0048876,0.4262,0.3098,0.61914,0.60588
10.176,0,0.44282,0.27843,0.62891,0.62549
10.184,0,0.46139,0.26471,0.625,0.62941
10.192,0,0.48094,0.2549,0.63477,0.63529
10.2,0,0.49853,0.25882,0.625,0.64118
10.208,0,0.51515,0.27843,0.62891,0.63529
10.216,0,0.52981,0.31373,0.61523,0.60588
10.224,0,0.54154,0.27451,0.64453,0.62549
10.232,0,0.55132,0.21961,0.67578,0.65098
10.24,0,0.55816,0.26863,0.6543,0.61569
10.248,0,0.56403,0.48431,0.61914,0.4902
10.256,0,0.56696,0.6549,0.47461,0.4
10.264,0,0.56794,0.76667,0.26953,0.37451
10.272,0,0.56696,0.7902,0.20117,0.4451
10.28,0,0.56598,0.46471,0.30469,0.6098
10.288,0,0.56403,0.36471,0.43555,0.65098
10.296,0,0.56012,0.34902,0.51953,0.61961
10.304,0,0.55523,0.29412,0.59961,0.62549
10.312,0,0.54936,0.27451,0.62891,0.62941
10.32,0,0.5435,0.26863,0.64062,0.62549
10.328,0,0.53763,0.25882,0.65039,0.62941
10.336,0,0.53079,0.26863,0.64453,0.61961
10.344,0,0.52493,0.25882,0.64062,0.62549
10.352,0,0.51906,0.2549,0.6543,0.62941
10.36,0,0.51515,0.2451,0.65039,0.63529
10.368,0,0.51124,0.27843,0.63477,0.61569
10.376,0,0.50538,0.26863,0.62891,0.61961
10.384,0,0.49853,0.29412,0.64062,0.60588
10.392,0,0.49169,0.3,0.62891,0.60588
10.4,0,0.48387,0.2902,0.64062,0.6098
10.408,0,0.47507,0.29412,0.62891,0.60588
10.416,0,0.46628,0.26863,0.62891,0.61569
10.424,0,0.45846,0.27843,0.64062,0.61961
10.432,0,0.45064,0.28431,0.62891,0.61569
10.44,0,0.44477,0.26863,0.625,0.61961
10.448,0,0.43891,0.29412,0.62891,0.6
10.456,0,0.43402,0.2902,0.625,0.60588
10.464,0,0.42913,0.3451,0.60547,0.58039
10.472,0.0087977,0.42522,0.32941,0.60547,0.58039
10.48,0.017595,0.42229,0.3098,0.60547,0.59608
10.488,0.026393,0.42033,0.3451,0.60938,0.57451
10.496,0.035191,0.41838,0.36471,0.58398,0.58039
10.504,0.043011,0.41642,0.38431,0.58008,0.55098
10.512,0.051808,0.41447,0.40392,0.57422,0.53922
10.52,0.060606,0.41251,0.42549,0.56055,0.52941
10.528,0.070381,0.41153,0.41961,0.55469,0.52941
10.536,0.079179,0.41153,0.4098,0.56445,0.52941
10.544,0.088954,0.41153,0.40392,0.57422,0.53529
10.552,0.098729,0.41153,0.42549,0.58984,0.52549
10.56,0.10753,0.41153,0.37059,0.59961,0.5549
10.568,0.1173,0.41056,0.36471,0.60547,0.5549
10.576,0.1261,0.40958,0.37059,0.61914,0.56078
10.584,0.13392,0.4086,0.38039,0.625,0.5549
10.592,0.14174,0.40762,0.33529,0.64062,0.57451
10.6,0.14858,0.40665,0.3451,0.63477,0.56471
10.608,0.15543,0.40665,0.34902,0.62891,0.57059
10.616,0.16031,0.40567,0.33922,0.63477,0.58039
10.624,0.16618,0.40469,0.35882,0.64062,0.57059
10.632,0.17009,0.40371,0.3549,0.62891,0.57451
10.64,0.17498,0.40274,0.3451,0.62891,0.57451
10.648,0.17791,0.40274,0.3451,0.625,0.57451
10.656,0.18182,0.40176,0.3549,0.61914,0.57451
10.664,0.18377,0.40176,0.33529,0.62891,0.58039
10.672,0.18671,0.40078,0.3451,0.63477,0.58039
10.68,0.18866,0.40078,0.33529,0.62891,0.5902
10.688,0.19062,0.40078,0.34902,0.62891,0.58039
10.696,0.19159,0.40078,0.36471,0.60938,0.56471
10.704,0.19355,0.40078,0.33922,0.625,0.58431
10.712,0.19453,0.40078,0.35882,0.61523,0.58039
10.72,0.1955,0.3998,0.37451,0.61523,0.56471
10.728,0.19746,0.39883,0.36471,0.60547,0.57451
10.736,0.19941,0.39785,0.3451,0.625,0.58431
10.744,0.20137,0.39589,0.39412,0.62891,0.55098
10.752,0.20332,0.39394,0.40392,0.61914,0.5549
10.76,0.20626,0.39492,0.42941,0.61523,0.52941
10.768,0.20919,0.39785,0.41961,0.62891,0.53529
10.776,0.2131,0.39883,0.43529,0.61523,0.52941
10.784,0.21799,0.3998,0.44902,0.61914,0.51961
10.792,0.22385,0.40078,0.49412,0.58398,0.4902
10.8,0.23069,0.40371,0.5,0.58008,0.50588
10.808,0.23656,0.4086,0.43922,0.5957,0.52549
10.816,0.2434,0.4174,0.4,0.5957,0.53922
10.824,0.25024,0.42913,0.37451,0.61523,0.5549
10.832,0.25709,0.44379,0.35882,0.60938,0.58039
10.84,0.26686,0.46139,0.33529,0.60938,0.58431
10.848,0.27566,0.47996,0.31373,0.61914,0.60588
10.856,0.28739,0.49756,0.33922,0.60547,0.58431
10.864,0.29814,0.5132,0.31373,0.61914,0.6
10.872,0.31085,0.52981,0.31373,0.60547,0.6
10.88,0.32454,0.54643,0.31373,0.62891,0.60588
10.888,0.33822,0.56207,0.33529,0.60938,0.5902
10.896,0.35288,0.57576,0.3098,0.625,0.60588
10.904,0.36657,0.58553,0.26471,0.6543,0.62549
10.912,0.37928,0.59238,0.2549,0.66992,0.6098
10.92,0.39198,0.59824,0.4098,0.63477,0.52941
10.928,0.40567,0.60117,0.68627,0.48047,0.38431
10.936,0.41935,0.60215,0.83529,0.2793,0.33529
10.944,0.43304,0.60215,0.86667,0.16602,0.38431
10.952,0.44868,0.60117,0.53922,0.25977,0.56471
10.96,0.46334,0.59922,0.39412,0.4043,0.62549
10.968,0.47703,0.59531,0.38431,0.5,0.60588
10.976,0.49071,0.59238,0.3098,0.5957,0.6098
10.984,0.5044,0.58847,0.2902,0.62891,0.61569
10.992,0.51711,0.58358,0.29412,0.64062,0.60588
11,0.53275,0.57771,0.28431,0.65039,0.61569
11.008,0.54839,0.57185,0.30392,0.62891,0.60588
11.016,0.56598,0.56696,0.29412,0.64062,0.60588
11.024,0.58358,0.56109,0.30392,0.65039,0.59608
11.032,0.60215,0.55523,0.2902,0.64453,0.61961
11.04,0.62072,0.54936,0.2902,0.63477,0.6098
11.048,0.64027,0.5435,0.29412,0.64062,0.60588
11.056,0.6608,0.53861,0.27843,0.65039,0.61569
11.064,0.6784,0.53372,0.31961,0.62891,0.59608
11.072,0.69697,0.52981,0.3,0.61914,0.6098
11.08,0.71359,0.52493,0.29412,0.62891,0.61569
11.088,0.73021,0.52004,0.30392,0.63477,0.60588
11.096,0.74878,0.5132,0.2902,0.62891,0.61961
11.104,0.76735,0.50635,0.31373,0.625,0.6
11.112,0.78788,0.49951,0.31373,0.625,0.59608
11.12,0.80743,0.49267,0.33529,0.60547,0.5902
11.128,0.826,0.48583,0.32941,0.61523,0.58431
11.136,0.84457,0.47996,0.33922,0.60547,0.58431
11.144,0.86119,0.47507,0.32941,0.61523,0.59608
11.152,0.87781,0.47116,0.31373,0.625,0.5902
11.16,0.89638,0.46921,0.35882,0.59961,0.56471
11.168,0.91496,0.46725,0.4,0.58398,0.55098
11.176,0.93548,0.46628,0.4098,0.58984,0.5451
11.184,0.95601,0.4653,0.40392,0.58008,0.5549
11.192,0.97654,0.4653,0.4098,0.58984,0.5451
11.2,0.99804,0.4653,0.38431,0.59961,0.5549
11.208,0.99902,0.46628,0.43529,0.55469,0.52941
11.216,1,0.46725,0.43922,0.57031,0.52549
11.224,1,0.46823,0.39412,0.59961,0.5549
11.232,1,0.46823,0.3902,0.60547,0.5549
11.24,1,0.46823,0.4,0.59961,0.55098
11.248,1,0.46725,0.37059,0.61914,0.56078
11.256,1,0.46725,0.38039,0.625,0.5549
11.264,1,0.46628,0.33922,0.61914,0.58039
11.272,1,0.4653,0.36471,0.62891,0.57059
11.28,1,0.46334,0.38039,0.60547,0.57059
11.288,1,0.46139,0.36471,0.61914,0.57451
11.296,1,0.46041,0.37451,0.625,0.56471
11.304,1,0.45943,0.33529,0.62891,0.58431
11.312,1,0.45748,0.3451,0.625,0.5902
11.32,1,0.45552,0.33922,0.62891,0.58431
11.328,1,0.45357,0.34902,0.60938,0.5902
11.336,1,0.45064,0.30392,0.62891,0.60588
11.344,1,0.4477,0.2902,0.64453,0.6
11.352,1,0.44477,0.33529,0.625,0.59608
11.36,1,0.44379,0.3451,0.61523,0.58039
11.368,1,0.44184,0.32941,0.62891,0.5902
11.376,1,0.44086,0.33529,0.625,0.58431
11.384,1,0.43793,0.36471,0.60938,0.56471
11.392,1,0.435,0.36471,0.60938,0.56471
11.4,1,0.43109,0.31961,0.62891,0.59608
11.408,1,0.42717,0.3098,0.64062,0.6
11.416,1,0.42326,0.37059,0.61523,0.56471
11.424,1,0.41935,0.38431,0.60938,0.57451
11.432,1,0.41544,0.36471,0.62891,0.5549
11.44,1,0.41251,0.41569,0.60547,0.5451
11.448,1,0.41153,0.38039,0.62891,0.56078
11.456,1,0.41056,0.37059,0.63477,0.56471
11.464,1,0.41153,0.44902,0.58008,0.52549
11.472,1,0.41544,0.43922,0.59961,0.52549
11.48,1,0.42229,0.4451,0.58984,0.52941
11.488,1,0.43402,0.4098,0.5957,0.53922
11.496,1,0.4477,0.41569,0.58398,0.5451
11.504,1,0.4653,0.38039,0.5957,0.57451
11.512,1,0.48387,0.33529,0.60547,0.59608
11.52,1,0.50342,0.29412,0.61914,0.61569
11.528,1,0.52199,0.27843,0.62891,0.62549
11.536,1,0.53959,0.26863,0.625,0.62941
11.544,1,0.55621,0.26863,0.64062,0.62549
11.552,1,0.56989,0.29412,0.60938,0.61569
11.56,1,0.58065,0.3,0.61914,0.61569
11.568,1,0.59042,0.2902,0.625,0.61569
11.576,1,0.59824,0.25882,0.64453,0.62549
11.584,1,0.60508,0.22941,0.67969,0.63529
11.592,1,0.60997,0.27451,0.66016,0.6098
11.6,1,0.6129,0.49412,0.60938,0.4902
11.608,1,0.61388,0.73529,0.40039,0.3549
11.616,1,0.61486,0.8451,0.24609,0.32353
11.624,1,0.61388,0.7,0.17969,0.4451
11.632,1,0.61193,0.42941,0.32031,0.60588
11.64,1,0.60899,0.2902,0.47461,0.6549
11.648,1,0.60508,0.28431,0.55078,0.63529
11.656,1,0.60215,0.29412,0.61523,0.62549
11.664,1,0.59726,0.24902,0.64453,0.62941
11.672,1,0.5914,0.2451,0.65039,0.62549
11.68,1,0.58651,0.22941,0.65039,0.63529
11.688,1,0.58162,0.2451,0.65039,0.64118
11.696,1,0.57674,0.27451,0.64453,0.61569
11.704,1,0.57185,0.2549,0.64453,0.62549
11.712,1,0.56598,0.27843,0.65039,0.61961
11.72,1,0.56109,0.28431,0.65039,0.62549
11.728,1,0.55523,0.2451,0.64453,0.63529
11.736,1,0.54936,0.23333,0.65039,0.64118
11.744,1,0.54154,0.23333,0.64453,0.6451
11.752,1,0.5347,0.26471,0.6543,0.62549
11.76,1,0.52786,0.26471,0.64062,0.62549
11.768,1,0.52102,0.27843,0.63477,0.61569
11.776,1,0.51417,0.25882,0.65039,0.62549
11.784,1,0.50831,0.2902,0.63477,0.60588
11.792,1,0.50244,0.3,0.63477,0.6
11.8,1,0.49658,0.27451,0.65039,0.6098
11.808,1,0.49071,0.26863,0.63477,0.61569
11.816,1,0.48583,0.31961,0.625,0.59608
11.824,1,0.48192,0.28431,0.64453,0.60588
11.832,1,0.47801,0.2902,0.65039,0.6
11.84,1,0.4741,0.31961,0.625,0.58039
11.848,1,0.47116,0.32353,0.63477,0.58431
11.856,1,0.47019,0.3549,0.61914,0.56471
11.864,1,0.46823,0.37451,0.61523,0.5549
11.872,1,0.46725,0.35882,0.61523,0.56078
11.88,1,0.4653,0.38039,0.61523,0.53922
11.888,1,0.46334,0.4098,0.60938,0.52549
11.896,1,0.46237,0.38039,0.60547,0.5451
11.904,1,0.46237,0.36471,0.63477,0.5549
11.912,1,0.46237,0.42549,0.60938,0.52549
11.92,1,0.46237,0.32941,0.66016,0.57451
11.928,1,0.46237,0.36471,0.65039,0.5549
11.936,1,0.46237,0.35882,0.64062,0.56078
11.944,1,0.46139,0.37059,0.64453,0.5549
11.952,1,0.46041,0.32941,0.65039,0.58039
11.96,1,0.46041,0.33529,0.65039,0.6
11.968,1,0.46041,0.2902,0.62891,0.6098
11.976,1,0.46041,0.31373,0.62891,0.6
11.984,1,0.45943,0.3,0.64062,0.60588
11.992,1,0.45748,0.3451,0.625,0.58039
12,1,0.45552,0.31373,0.625,0.6
12.008,1,0.45455,0.34902,0.61523,0.58039
12.016,1,0.45259,0.29412,0.64062,0.60588
12.024,1,0.45064,0.32353,0.62891,0.58431
12.032,1,0.44868,0.30392,0.63477,0.60588
12.04,1,0.44673,0.3098,0.62891,0.60588
12.048,1,0.44477,0.3,0.63477,0.5902
12.056,0.99413,0.44282,0.33922,0.62891,0.58039
12.064,0.98827,0.44184,0.3549,0.62891,0.58039
12.072,0.97654,0.44086,0.33529,0.62891,0.58431
12.08,0.96579,0.43891,0.31373,0.64062,0.59608
12.088,0.95601,0.43695,0.3451,0.62891,0.58039
12.096,0.94624,0.435,0.32941,0.63477,0.58431
12.104,0.93646,0.43304,0.35882,0.62891,0.57059
12.112,0.92766,0.43109,0.37059,0.63477,0.56078
12.12,0.91887,0.43011,0.36471,0.61523,0.57059
12.128,0.91105,0.43206,0.4098,0.625,0.53922
12.136,0.90225,0.43597,0.42941,0.60938,0.52549
12.144,0.89443,0.44477,0.4451,0.5957,0.51569
12.152,0.88759,0.45357,0.44902,0.57031,0.5098
12.16,0.87977,0.4653,0.4098,0.59961,0.53529
12.168,0.87292,0.47996,0.41569,0.60547,0.52941
12.176,0.86608,0.49756,0.3451,0.59961,0.57059
12.184,0.86022,0.51711,0.32941,0.625,0.58039
12.192,0.85435,0.53666,0.31961,0.62891,0.5902
12.2,0.84946,0.55718,0.30392,0.625,0.60588
12.208,0.84457,0.57576,0.29412,0.61523,0.6
12.216,0.84066,0.59238,0.30392,0.61914,0.60588
12.224,0.83578,0.60802,0.2902,0.60547,0.60588
12.232,0.83187,0.62072,0.28431,0.63477,0.6098
12.24,0.82796,0.63148,0.29412,0.625,0.60588
12.248,0.82405,0.6393,0.26863,0.63477,0.6098
12.256,0.82014,0.64418,0.2549,0.65039,0.62549
12.264,0.8172,0.64614,0.23333,0.68555,0.60588
12.272,0.81427,0.64809,0.2902,0.66992,0.6098
12.28,0.81134,0.64712,0.52549,0.55469,0.46471
12.288,0.80841,0.64614,0.72157,0.36523,0.3549
12.296,0.8045,0.64614,0.80588,0.20117,0.33922
12.304,0.80156,0.64516,0.64118,0.15039,0.4902
12.312,0.79765,0.64418,0.34902,0.3457,0.65098
12.32,0.79374,0.64223,0.28431,0.49414,0.66078
12.328,0.78983,0.6393,0.26471,0.58008,0.63529
12.336,0.78592,0.63636,0.24902,0.63477,0.62941
12.344,0.78104,0.63245,0.23333,0.65039,0.63529
12.352,0.77713,0.62854,0.22353,0.64453,0.6451
12.36,0.77322,0.62366,0.28431,0.64453,0.61569
12.368,0.76931,0.61779,0.2451,0.65039,0.63529
12.376,0.76442,0.6129,0.23333,0.65039,0.62549
12.384,0.76051,0.60704,0.26863,0.6543,0.61569
12.392,0.75562,0.6002,0.29412,0.63477,0.60588
12.4,0.75073,0.59433,0.2549,0.64453,0.62549
12.408,0.74682,0.58847,0.25882,0.64453,0.61961
12.416,0.74291,0.5826,0.23333,0.64062,0.6451
12.424,0.73998,0.57674,0.22353,0.66016,0.61961
12.432,0.73705,0.57087,0.2902,0.63477,0.60588
12.44,0.73314,0.565,0.2451,0.64062,0.62549
12.448,0.73021,0.55914,0.27843,0.62891,0.6098
12.456,0.72727,0.55327,0.25882,0.64453,0.62549
12.464,0.72434,0.54643,0.26863,0.63477,0.61569
12.472,0.72141,0.53959,0.26471,0.63477,0.6098
12.48,0.71848,0.53275,0.27843,0.64453,0.60588
12.488,0.71554,0.5259,0.30392,0.625,0.5902
12.496,0.71359,0.51906,0.31961,0.61523,0.58431
12.504,0.71163,0.51417,0.30392,0.63477,0.59608
12.512,0.70968,0.50929,0.3,0.63477,0.58039
12.52,0.70772,0.50538,0.31373,0.64453,0.58431
12.528,0.70674,0.50147,0.33529,0.625,0.57059
12.536,0.70479,0.49756,0.35882,0.60938,0.5549
12.544,0.70381,0.49462,0.38431,0.60547,0.53922
12.552,0.70186,0.49267,0.38431,0.61523,0.53922
12.56,0.70088,0.49169,0.4,0.60547,0.52941
12.568,0.69892,0.49169,0.3902,0.60547,0.52941
12.576,0.69795,0.49169,0.4,0.625,0.53529
12.584,0.69697,0.49071,0.38431,0.61914,0.53529
12.592,0.69599,0.48876,0.39412,0.61523,0.52941
12.6,0.69404,0.4868,0.4,0.62891,0.53529
12.608,0.69208,0.48289,0.38431,0.625,0.52941
12.616,0.69013,0.47996,0.38431,0.62891,0.55098
12.624,0.68817,0.47605,0.37451,0.62891,0.56078
12.632,0.68622,0.47214,0.36471,0.64062,0.5549
12.64,0.68328,0.47019,0.35882,0.62891,0.57059
12.648,0.68133,0.46823,0.3549,0.61914,0.58039
12.656,0.6784,0.46628,0.38039,0.60547,0.56078
12.664,0.67546,0.4653,0.3549,0.60938,0.58039
12.672,0.67253,0.46334,0.34902,0.61523,0.58039
12.68,0.6696,0.46139,0.35882,0.61914,0.57451
12.688,0.66667,0.45943,0.33922,0.61523,0.58039
12.696,0.66373,0.45846,0.3549,0.60547,0.58039
12.704,0.65982,0.4565,0.35882,0.61914,0.57451
12.712,0.65591,0.45455,0.34902,0.60547,0.58039
12.72,0.652,0.45259,0.37451,0.60938,0.56471
12.728,0.64712,0.45064,0.3549,0.61523,0.57451
12.736,0.64321,0.4477,0.35882,0.625,0.57059
12.744,0.63832,0.44477,0.3451,0.61914,0.57451
12.752,0.63343,0.44282,0.34902,0.61914,0.57059
12.76,0.62757,0.44086,0.33529,0.625,0.58039
12.768,0.62268,0.43793,0.32353,0.62891,0.57451
12.776,0.61681,0.43597,0.33922,0.61523,0.57451
12.784,0.60997,0.43402,0.37059,0.61523,0.56078
12.792,0.60411,0.43206,0.38431,0.60938,0.55098
12.8,0.59824,0.43206,0.4,0.60547,0.5549
12.808,0.59238,0.42717,0.4098,0.625,0.53529
12.816,0.58651,0.42229,0.40392,0.60938,0.5451
12.824,0.58162,0.4262,0.4098,0.60547,0.53529
12.832,0.57674,0.435,0.46078,0.58984,0.5098
12.84,0.57185,0.4477,0.47059,0.58008,0.5098
12.848,0.56696,0.46334,0.41961,0.58984,0.53529
12.856,0.56207,0.47898,0.37059,0.60547,0.5549
12.864,0.55718,0.49365,0.34902,0.61914,0.56471
12.872,0.55132,0.51026,0.33922,0.62891,0.58039
12.88,0.54643,0.52688,0.30392,0.625,0.60588
12.888,0.54252,0.5435,0.27451,0.62891,0.62549
12.896,0.53861,0.55914,0.26863,0.61914,0.61961
12.904,0.5347,0.57283,0.26863,0.62891,0.62549
12.912,0.53177,0.58456,0.23333,0.625,0.6451
12.92,0.52786,0.59531,0.2451,0.62891,0.63529
12.928,0.52395,0.60411,0.24902,0.62891,0.64118
12.936,0.51906,0.61095,0.26863,0.62891,0.62549
12.944,0.51515,0.61486,0.22353,0.66992,0.65098
12.952,0.51124,0.61779,0.2,0.68555,0.6451
12.96,0.50733,0.61877,0.35882,0.6543,0.56078
12.968,0.5044,0.61877,0.58039,0.50586,0.43529
12.976,0.50147,0.61877,0.7,0.29102,0.39412
12.984,0.49853,0.61779,0.74118,0.15625,0.44902
12.992,0.49658,0.61681,0.46471,0.23047,0.61569
13,0.49462,0.61486,0.31373,0.39453,0.68039
13.008,0.49267,0.61193,0.30392,0.51953,0.65098
13.016,0.49169,0.60899,0.26471,0.5957,0.65098
13.024,0.49071,0.60411,0.2451,0.64453,0.6451
13.032,0.49169,0.59824,0.23922,0.65039,0.6451
13.04,0.49169,0.5914,0.23922,0.65039,0.64118
13.048,0.49169,0.58358,0.2451,0.65039,0.65098
13.056,0.49169,0.57576,0.2451,0.65039,0.64118
13.064,0.49169,0.56696,0.21961,0.66016,0.65098
13.072,0.49169,0.55816,0.2451,0.66406,0.63529
13.08,0.49169,0.54839,0.23333,0.65039,0.64118
13.088,0.49169,0.53763,0.2451,0.65039,0.63529
13.096,0.49267,0.52688,0.22353,0.6543,0.65098
13.104,0.49267,0.51711,0.2451,0.65039,0.6451
13.112,0.49267,0.50635,0.2451,0.64453,0.6451
13.12,0.49169,0.49658,0.2451,0.64453,0.65098
13.128,0.49071,0.48778,0.2451,0.63477,0.64118
13.136,0.48974,0.47898,0.2451,0.64062,0.6451
13.144,0.48778,0.46823,0.2549,0.64453,0.64118
13.152,0.4868,0.45943,0.24902,0.65039,0.6451
13.16,0.48387,0.45259,0.26471,0.64062,0.62941
13.168,0.48192,0.44575,0.27451,0.62891,0.62549
13.176,0.47801,0.43793,0.26863,0.625,0.62941
13.184,0.4741,0.43206,0.27451,0.62891,0.62549
13.192,0.46823,0.4262,0.2902,0.61523,0.61569
13.2,0.46237,0.42033,0.3098,0.61914,0.60588
13.208,0.4565,0.41447,0.32353,0.59961,0.5902
13.216,0.44966,0.4086,0.32353,0.60547,0.5902
13.224,0.44282,0.40274,0.33529,0.5957,0.58039
13.232,0.43597,0.39589,0.33922,0.58398,0.58039
13.24,0.42717,0.38905,0.37059,0.58398,0.57059
13.248,0.4174,0.38416,0.38431,0.58984,0.56078
13.256,0.40665,0.38025,0.36471,0.58008,0.57451
13.264,0.39492,0.37732,0.35882,0.60547,0.57451
13.272,0.38221,0.37439,0.37059,0.60938,0.56471
13.28,0.37048,0.37243,0.34902,0.61523,0.58039
13.288,0.35679,0.37048,0.33922,0.63477,0.58039
13.296,0.34311,0.36755,0.33922,0.65039,0.58039
13.304,0.3304,0.36461,0.32353,0.65039,0.59608
13.312,0.31867,0.36168,0.3098,0.64453,0.6
13.32,0.30694,0.35777,0.30392,0.65039,0.60588
13.328,0.29521,0.35386,0.33529,0.6543,0.58431
13.336,0.2825,0.35191,0.31961,0.64453,0.6
13.344,0.26979,0.34995,0.30392,0.63477,0.61569
13.352,0.25611,0.34897,0.32353,0.64453,0.59608
13.36,0.24242,0.34897,0.31373,0.64062,0.6
13.368,0.22972,0.34702,0.3098,0.62891,0.6098
13.376,0.21799,0.34604,0.31373,0.64453,0.60588
13.384,0.20723,0.34409,0.3098,0.65039,0.6098
13.392,0.19648,0.34213,0.31961,0.64453,0.60588
13.4,0.18573,0.34018,0.32353,0.65039,0.6
13.408,0.17498,0.33822,0.29412,0.65039,0.6098
13.416,0.16325,0.33627,0.31961,0.64453,0.6
13.424,0.15249,0.33333,0.33922,0.64453,0.58431
13.432,0.14174,0.3304,0.32353,0.65039,0.6
13.44,0.13099,0.32747,0.31961,0.65039,0.59608
13.448,0.12121,0.32551,0.31373,0.6543,0.6
13.456,0.11144,0.32551,0.32353,0.66016,0.5902
13.464,0.10264,0.32454,0.35882,0.65039,0.57451
13.472,0.094819,0.32356,0.37059,0.64453,0.56471
13.48,0.087977,0.32258,0.36471,0.65039,0.58039
13.488,0.081134,0.32356,0.38039,0.65039,0.56078
13.496,0.074291,0.32356,0.39412,0.62891,0.56078
13.504,0.068426,0.32454,0.41569,0.61523,0.55098
13.512,0.061584,0.32747,0.42549,0.59961,0.53922
13.52,0.055718,0.33236,0.40392,0.60547,0.5451
13.528,0.050831,0.34115,0.35882,0.59961,0.56471
13.536,0.045943,0.35288,0.33922,0.62891,0.58431
13.544,0.041056,0.36852,0.31961,0.62891,0.6
13.552,0.037146,0.38416,0.28431,0.62891,0.61961
13.56,0.031281,0.3998,0.26863,0.625,0.64118
13.568,0.025415,0.41838,0.27843,0.62891,0.63529
13.576,0.01955,0.43891,0.25882,0.62891,0.64118
13.584,0.012708,0.45846,0.2451,0.62891,0.65098
13.592,0.0058651,0.47703,0.26863,0.61914,0.64118
13.6,0,0.49267,0.2451,0.61914,0.65098
13.608,0,0.50538,0.23333,0.62891,0.65098
13.616,0,0.51613,0.20392,0.65039,0.67059
13.624,0,0.52297,0.17451,0.68555,0.67647
13.632,0,0.52786,0.24902,0.66992,0.63529
13.64,0,0.53079,0.51569,0.59961,0.48039
13.648,0,0.53275,0.67647,0.38477,0.40392
13.656,0,0.53275,0.7451,0.20117,0.39412
13.664,0,0.53177,0.58039,0.17969,0.55098
13.672,0,0.52884,0.37451,0.3457,0.67647
13.68,0,0.52493,0.30392,0.47461,0.68039
13.688,0,0.52004,0.27451,0.56445,0.66078
13.696,0,0.51515,0.24902,0.60938,0.65098
13.704,0,0.51026,0.21961,0.62891,0.66471
13.712,0,0.50635,0.21373,0.65039,0.67059
13.72,0,0.5044,0.21961,0.6543,0.6549
13.728,0,0.50147,0.20392,0.65039,0.67647
13.736,0,0.49853,0.23922,0.62891,0.65098
13.744,0,0.49462,0.21373,0.6543,0.66471
13.752,0,0.48974,0.22353,0.66406,0.66078
13.76,0,0.48485,0.23333,0.62891,0.6549
13.768,0,0.47801,0.21373,0.65039,0.66471
13.776,0,0.47019,0.24902,0.64062,0.64118
13.784,0,0.46041,0.21961,0.63477,0.66078
13.792,0,0.45064,0.21961,0.64453,0.66471
13.8,0,0.44086,0.24902,0.62891,0.65098
13.808,0,0.43206,0.21961,0.625,0.66471
13.816,0,0.42424,0.21373,0.62891,0.67059
13.824,0,0.4174,0.3,0.60547,0.62549
13.832,0,0.41056,0.30392,0.61523,0.63529
13.84,0,0.40469,0.21961,0.61914,0.66471
13.848,0,0.3998,0.2549,0.625,0.6451
13.856,0,0.39589,0.26863,0.60938,0.62941
13.864,0,0.39198,0.24902,0.61523,0.65098
13.872,0,0.38905,0.2451,0.60547,0.64118
13.88,0,0.38612,0.27843,0.60547,0.62941
13.888,0,0.38514,0.28431,0.59961,0.61961
13.896,0,0.38514,0.33529,0.55469,0.60588
13.904,0,0.38514,0.36471,0.54492,0.58039
13.912,0,0.38416,0.30392,0.56445,0.6098
13.92,0,0.38416,0.2902,0.57422,0.62549
13.928,0,0.38416,0.36471,0.57031,0.58431
13.936,0,0.38416,0.40392,0.56055,0.56471
13.944,0,0.38416,0.34902,0.55469,0.6
13.952,0,0.38416,0.28431,0.5957,0.62941
13.96,0,0.38416,0.26863,0.61914,0.64118
13.968,0,0.38416,0.30392,0.62891,0.61961
13.976,0,0.38514,0.32941,0.60547,0.61569
13.984,0,0.38514,0.30392,0.59961,0.61961
13.992,0.001955,0.38514,0.24902,0.625,0.6451
14,0.0048876,0.38514,0.2451,0.62891,0.66471
14.008,0.0087977,0.38514,0.27843,0.61914,0.6451
14.016,0.01173,0.38416,0.31373,0.61914,0.61961
14.024,0.01564,0.38416,0.27451,0.62891,0.6451
14.032,0.01955,0.38416,0.21961,0.63477,0.68627
14.04,0.024438,0.38416,0.21373,0.625,0.6902
14.048,0.029326,0.38416,0.2902,0.61523,0.64118
14.056,0.034213,0.38416,0.3,0.60547,0.65098
14.064,0.040078,0.38416,0.26863,0.61523,0.66078
14.072,0.045943,0.38319,0.27451,0.63477,0.65098
14.08,0.051808,0.38221,0.27843,0.61523,0.6549
14.088,0.057674,0.38025,0.2451,0.60938,0.67059
14.096,0.063539,0.3783,0.26863,0.625,0.65098
14.104,0.069404,0.37634,0.26863,0.60938,0.65098
14.112,0.075269,0.37537,0.27843,0.60547,0.6549
14.12,0.081134,0.37537,0.26471,0.60938,0.66471
14.128,0.086999,0.37537,0.25882,0.60547,0.6549
14.136,0.093842,0.37537,0.27843,0.62891,0.6451
14.144,0.10068,0.37537,0.32353,0.60938,0.62549
14.152,0.1085,0.37537,0.33922,0.60547,0.61569
14.16,0.11632,0.37634,0.3098,0.63477,0.63529
14.168,0.12317,0.37634,0.34902,0.64062,0.6098
14.176,0.13099,0.37634,0.38431,0.58008,0.59608
14.184,0.13881,0.37732,0.3902,0.57422,0.59608
14.192,0.14565,0.37928,0.37451,0.58008,0.60588
14.2,0.15445,0.38416,0.32941,0.60547,0.6
14.208,0.16227,0.39101,0.27451,0.58984,0.6549
14.216,0.17204,0.40078,0.29412,0.60547,0.6451
14.224,0.18182,0.41447,0.27843,0.57422,0.66078
14.232,0.19159,0.43109,0.2451,0.59961,0.68627
14.24,0.20235,0.44868,0.21373,0.60938,0.68039
14.248,0.2131,0.46432,0.22353,0.59961,0.6902
14.256,0.22483,0.47898,0.21961,0.60547,0.69608
14.264,0.2346,0.4956,0.18824,0.59961,0.72157
14.272,0.24536,0.51124,0.20392,0.62891,0.7
14.28,0.25513,0.52688,0.23333,0.60547,0.6902
14.288,0.26491,0.53959,0.2451,0.625,0.67647
14.296,0.27468,0.55034,0.15882,0.64453,0.71569
14.304,0.28446,0.55816,0.14314,0.65039,0.72549
14.312,0.29326,0.56305,0.38431,0.59961,0.6
14.32,0.30303,0.56403,0.60588,0.44922,0.47059
14.328,0.31281,0.56305,0.68627,0.23438,0.46078
14.336,0.3216,0.56012,0.6902,0.17969,0.53529
14.344,0.3304,0.55621,0.40392,0.27539,0.68627
14.352,0.3392,0.5523,0.3,0.41602,0.72157
14.36,0.34897,0.54839,0.23922,0.5293,0.7098
14.368,0.35777,0.54448,0.2,0.58008,0.72549
14.376,0.36852,0.54057,0.2098,0.61523,0.70588
14.384,0.3783,0.53666,0.16863,0.62891,0.72157
14.392,0.38807,0.53177,0.14902,0.60938,0.72549
14.4,0.39883,0.5259,0.14314,0.65039,0.73529
14.408,0.40958,0.52004,0.16471,0.65039,0.72157
14.416,0.42033,0.51515,0.14902,0.64062,0.73137
14.424,0.43109,0.50929,0.18824,0.60938,0.7098
14.432,0.44184,0.5044,0.2,0.62891,0.69608
14.44,0.45161,0.49756,0.15882,0.64062,0.73529
14.448,0.46237,0.49169,0.14902,0.61523,0.7451
14.456,0.47507,0.48583,0.17451,0.62891,0.71569
14.464,0.48876,0.47898,0.17451,0.61914,0.70588
14.472,0.50342,0.47116,0.2,0.64062,0.7
14.48,0.51808,0.46334,0.16863,0.61523,0.71569
14.488,0.53177,0.45552,0.16471,0.60547,0.7098
14.496,0.54643,0.4477,0.18431,0.62891,0.72549
14.504,0.56012,0.44184,0.17843,0.61523,0.7
14.512,0.57478,0.43597,0.2,0.60547,0.70588
14.52,0.5914,0.43206,0.17843,0.61914,0.69608
14.528,0.60899,0.42815,0.21373,0.60547,0.68627
14.536,0.62854,0.4262,0.2,0.59961,0.7
14.544,0.64809,0.42522,0.21961,0.58398,0.68627
14.552,0.67058,0.42522,0.22353,0.5957,0.68627
14.56,0.69208,0.4262,0.26471,0.57422,0.67059
14.568,0.71554,0.42815,0.26863,0.58008,0.66078
14.576,0.73803,0.43011,0.25882,0.58008,0.6451
14.584,0.75855,0.43206,0.3098,0.57031,0.61961
14.592,0.78006,0.435,0.31961,0.54492,0.62549
14.6,0.79863,0.43695,0.33922,0.56055,0.61961
14.608,0.8172,0.43891,0.3098,0.57422,0.63529
14.616,0.83578,0.43988,0.3,0.58984,0.62941
14.624,0.85533,0.44184,0.29412,0.57031,0.62549
14.632,0.8739,0.44184,0.27843,0.60938,0.66078
14.64,0.89345,0.44184,0.26863,0.60547,0.65098
14.648,0.91007,0.44086,0.2549,0.60938,0.65098
14.656,0.92669,0.43988,0.27843,0.60938,0.6549
14.664,0.94233,0.43793,0.24902,0.60547,0.67059
14.672,0.95699,0.43695,0.25882,0.61523,0.6549
14.68,0.97165,0.435,0.26471,0.62891,0.66471
14.688,0.98631,0.435,0.2451,0.60547,0.67647
14.696,0.99316,0.43695,0.25882,0.62891,0.66078
14.704,1,0.43793,0.2549,0.64062,0.66471
14.712,1,0.43891,0.26863,0.61914,0.6549
14.72,1,0.43793,0.24902,0.62891,0.68039
14.728,1,0.43597,0.26471,0.625,0.6549
14.736,1,0.435,0.2549,0.60547,0.66078
14.744,1,0.43304,0.24902,0.62891,0.66078
14.752,1,0.43206,0.23333,0.625,0.67647
14.76,1,0.43109,0.22353,0.61523,0.68039
14.768,1,0.43109,0.26471,0.62891,0.6451
14.776,1,0.43206,0.26863,0.63477,0.6549
14.784,1,0.43304,0.2549,0.61914,0.65098
14.792,1,0.43206,0.27843,0.625,0.65098
14.8,1,0.43206,0.30392,0.60547,0.62941
14.808,1,0.43109,0.33922,0.59961,0.6098
14.816,1,0.42913,0.3549,0.60547,0.60588
14.824,1,0.42717,0.31373,0.62891,0.61961
14.832,1,0.4262,0.33922,0.62891,0.60588
14.84,1,0.42522,0.36471,0.61523,0.59608
14.848,1,0.4262,0.3902,0.59961,0.5902
14.856,1,0.43597,0.39412,0.60547,0.58039
14.864,1,0.45161,0.35882,0.57422,0.59608
14.872,1,0.46334,0.3549,0.59961,0.6
14.88,1,0.4741,0.3098,0.60547,0.61569
14.888,1,0.48583,0.2902,0.59961,0.62941
14.896,1,0.50049,0.31961,0.60938,0.6098
14.904,1,0.51711,0.25882,0.60547,0.6549
14.912,1,0.53568,0.2451,0.61523,0.66471
14.92,1,0.55425,0.23333,0.61914,0.67647
14.928,1,0.57478,0.23922,0.60938,0.67059
14.936,1,0.59433,0.22353,0.61914,0.66078
14.944,1,0.6129,0.23333,0.60547,0.68627
14.952,1,0.62659,0.21961,0.625,0.67059
14.96,1,0.63636,0.2451,0.60938,0.66471
14.968,1,0.64516,0.20392,0.66406,0.67647
14.976,1,0.652,0.19412,0.64062,0.67647
14.984,1,0.65591,0.37059,0.61914,0.58039
14.992,1,0.65787,0.6,0.43555,0.4549
15,1,0.65787,0.72549,0.25,0.41961
15.008,1,0.65591,0.76667,0.15625,0.46471
15.016,1,0.65298,0.47451,0.25586,0.61961
15.024,1,0.64907,0.30392,0.41992,0.68039
15.032,1,0.64516,0.2549,0.52539,0.67647
15.04,1,0.64125,0.2451,0.58984,0.67647
15.048,1,0.63734,0.23333,0.64062,0.66078
15.056,1,0.63343,0.21373,0.66016,0.67059
15.064,1,0.62952,0.2098,0.64453,0.67647
15.072,1,0.62463,0.22353,0.63477,0.66078
15.08,1,0.62072,0.21961,0.65039,0.6549
15.088,1,0.61486,0.24902,0.64453,0.6451
15.096,1,0.60899,0.2451,0.63477,0.65098
15.104,1,0.60215,0.22353,0.65039,0.6549
15.112,1,0.59531,0.20392,0.64453,0.66471
15.12,1,0.58847,0.23922,0.63477,0.65098
15.128,1,0.5826,0.22353,0.64453,0.6549
15.136,1,0.57674,0.26471,0.62891,0.62941
15.144,1,0.57087,0.25882,0.625,0.64118
15.152,1,0.56403,0.26863,0.64062,0.63529
15.16,1,0.55621,0.23922,0.62891,0.65098
15.168,1,0.54936,0.2451,0.63477,0.64118
15.176,1,0.54252,0.23922,0.62891,0.6451
15.184,1,0.53666,0.26471,0.62891,0.64118
15.192,1,0.53177,0.28431,0.61914,0.62549
15.2,1,0.52786,0.26471,0.62891,0.62941
15.208,1,0.52395,0.30392,0.625,0.6098
15.216,1,0.52004,0.2902,0.61523,0.6098
15.224,1,0.51711,0.27843,0.60547,0.61569
15.232,1,0.51515,0.3451,0.61523,0.58039
15.24,1,0.5132,0.37451,0.58984,0.56471
15.248,1,0.51222,0.3549,0.58398,0.57059
15.256,1,0.51222,0.34902,0.58984,0.56078
15.264,1,0.51124,0.38431,0.57422,0.5549
15.272,1,0.51026,0.4,0.5957,0.5451
15.28,1,0.50831,0.38431,0.60547,0.53529
15.288,1,0.50733,0.33922,0.61914,0.57059
15.296,1,0.5044,0.31373,0.62891,0.58431
15.304,1,0.50244,0.36471,0.61523,0.56078
15.312,1,0.50049,0.3451,0.60938,0.58039
15.32,1,0.49853,0.32941,0.61914,0.59608
15.328,1,0.49658,0.36471,0.61523,0.57059
15.336,1,0.4956,0.3098,0.64453,0.6
15.344,1,0.49365,0.32941,0.64062,0.5902
15.352,1,0.49169,0.33529,0.625,0.58431
15.36,1,0.48876,0.3451,0.62891,0.58039
15.368,1,0.4868,0.33922,0.63477,0.59608
15.376,1,0.48387,0.30392,0.62891,0.60588
15.384,1,0.48094,0.33529,0.61523,0.58431
15.392,1,0.47898,0.3098,0.625,0.6
15.4,1,0.47703,0.31373,0.62891,0.59608
15.408,1,0.47507,0.32941,0.62891,0.58431
15.416,1,0.4741,0.33529,0.63477,0.58431
15.424,1,0.47214,0.31961,0.62891,0.5902
15.432,1,0.47116,0.33529,0.62891,0.58039
15.44,1,0.46921,0.36471,0.62891,0.56471
15.448,1,0.46823,0.32353,0.62891,0.58039
15.456,1,0.46725,0.34902,0.62891,0.58039
15.464,1,0.4653,0.32941,0.62891,0.58431
15.472,1,0.46334,0.31373,0.64062,0.57451
15.48,1,0.46237,0.36471,0.63477,0.56078
15.488,1,0.46041,0.38431,0.62891,0.55098
15.496,1,0.45846,0.3902,0.65039,0.53922
15.504,1,0.4565,0.41569,0.65039,0.52549
15.512,1,0.45552,0.44902,0.625,0.50588
15.52,1,0.45552,0.46471,0.61914,0.49412
15.528,1,0.45748,0.44902,0.60938,0.50588
15.536,1,0.46237,0.42941,0.60547,0.51569
15.544,0.99804,0.46823,0.41961,0.61523,0.51569
15.552,0.99511,0.47605,0.42941,0.60547,0.5098
15.56,0.98534,0.4868,0.3902,0.62891,0.52941
15.568,0.97556,0.50049,0.38431,0.61523,0.53922
15.576,0.96579,0.51613,0.32941,0.64062,0.57059
15.584,0.95601,0.53275,0.31961,0.64453,0.57451
15.592,0.94721,0.54839,0.32353,0.62891,0.58431
15.6,0.93744,0.56305,0.28431,0.65039,0.59608
15.608,0.92962,0.57674,0.31961,0.64062,0.57451
15.616,0.9218,0.58847,0.32941,0.62891,0.56471
15.624,0.91398,0.59922,0.30392,0.625,0.5902
15.632,0.90714,0.60802,0.31373,0.64062,0.58039
15.64,0.90029,0.61388,0.29412,0.68555,0.57451
15.648,0.89345,0.61877,0.2902,0.69922,0.58039
15.656,0.88661,0.62072,0.3902,0.66406,0.51569
15.664,0.87977,0.6217,0.65098,0.5,0.38039
15.672,0.87292,0.6217,0.83529,0.33008,0.2902
15.68,0.86608,0.61975,0.88039,0.19531,0.28431
15.688,0.85826,0.61779,0.57059,0.26953,0.5098
15.696,0.85142,0.61584,0.37451,0.43945,0.60588
15.704,0.8436,0.6129,0.32941,0.55078,0.5902
15.712,0.83675,0.60997,0.33529,0.61523,0.57451
15.72,0.82991,0.60411,0.3098,0.64453,0.58039
15.728,0.82307,0.59824,0.28431,0.6543,0.5902
15.736,0.81329,0.59335,0.2902,0.66992,0.58431
15.744,0.8045,0.58847,0.27451,0.67969,0.5902
15.752,0.79374,0.58358,0.33529,0.66016,0.56078
15.76,0.78397,0.57869,0.2902,0.67578,0.58039
15.768,0.77322,0.57283,0.31373,0.66406,0.56471
15.776,0.76344,0.56794,0.32941,0.65039,0.5549
15.784,0.75367,0.56207,0.31373,0.67578,0.56471
15.792,0.74389,0.55718,0.3,0.66016,0.58039
15.8,0.73314,0.55132,0.3098,0.66992,0.57059
15.808,0.72336,0.54643,0.31961,0.66016,0.56471
15.816,0.71163,0.53959,0.2902,0.67969,0.57059
15.824,0.70088,0.53275,0.33529,0.66406,0.5549
15.832,0.69013,0.5259,0.33922,0.6543,0.55098
15.84,0.67937,0.51906,0.31961,0.66406,0.5549
15.848,0.66862,0.51417,0.33922,0.6543,0.55098
15.856,0.65787,0.51026,0.32941,0.66406,0.5451
15.864,0.64809,0.50635,0.34902,0.6543,0.5549
15.872,0.63832,0.50244,0.36471,0.66016,0.52941
15.88,0.62854,0.49853,0.38039,0.65039,0.52549
15.888,0.61975,0.4956,0.3451,0.66016,0.53922
15.896,0.61193,0.49169,0.38431,0.65039,0.51961
15.904,0.60313,0.48778,0.3902,0.65039,0.5098
15.912,0.59433,0.48485,0.38431,0.64062,0.50588
15.92,0.58651,0.48094,0.41961,0.64453,0.4902
15.928,0.57967,0.47801,0.4451,0.63477,0.47451
15.936,0.57185,0.47507,0.47059,0.62891,0.46471
15.944,0.56598,0.4741,0.46078,0.63477,0.46471
15.952,0.55914,0.4741,0.4549,0.64062,0.47451
15.96,0.55327,0.4741,0.44902,0.64453,0.46078
15.968,0.54643,0.4741,0.48039,0.63477,0.46471
15.976,0.53959,0.4741,0.44902,0.6543,0.47451
15.984,0.53275,0.4741,0.4549,0.66016,0.47451
15.992,0.52493,0.4741,0.4,0.66992,0.49412
16,0.51711,0.47312,0.38039,0.67578,0.5098
16.008,0.50831,0.47312,0.4098,0.65039,0.50588
16.016,0.50049,0.47214,0.38431,0.67578,0.51569
16.024,0.49169,0.47214,0.37451,0.66406,0.52549
16.032,0.48387,0.47116,0.4,0.6543,0.51569
16.04,0.47507,0.47019,0.4098,0.64453,0.5098
16.048,0.46725,0.46921,0.38431,0.65039,0.52549
16.056,0.45846,0.46823,0.4,0.64062,0.5098
16.064,0.44868,0.46725,0.37059,0.65039,0.52941
16.072,0.43891,0.4653,0.38431,0.66016,0.52549
16.08,0.42913,0.46432,0.39412,0.6543,0.51961
16.088,0.41935,0.46237,0.42549,0.64453,0.50588
16.096,0.4086,0.46041,0.4098,0.63477,0.5098
16.104,0.39883,0.45846,0.41569,0.65039,0.5098
16.112,0.38905,0.45748,0.39412,0.66406,0.51569
16.12,0.3783,0.45748,0.40392,0.66016,0.5098
16.128,0.36755,0.4565,0.41961,0.6543,0.50588
16.136,0.35582,0.45455,0.42549,0.65039,0.49412
16.144,0.34506,0.45357,0.40392,0.65039,0.5098
16.152,0.33333,0.45161,0.4098,0.65039,0.5098
16.16,0.3216,0.44868,0.4098,0.65039,0.5
16.168,0.3089,0.44575,0.43922,0.65039,0.4902
16.176,0.29717,0.44282,0.47059,0.64062,0.48039
16.184,0.28641,0.44184,0.42941,0.66016,0.49412
16.192,0.27664,0.44282,0.4902,0.63477,0.46471
16.2,0.26784,0.44575,0.50588,0.61914,0.4549
16.208,0.26002,0.45259,0.53529,0.60938,0.43529
16.216,0.2522,0.46237,0.55098,0.60547,0.42941
16.224,0.24438,0.4741,0.5098,0.60547,0.4451
16.232,0.23754,0.48876,0.47059,0.61523,0.46471
16.24,0.22972,0.50538,0.42549,0.64453,0.5
16.248,0.22385,0.52199,0.4098,0.64453,0.5098
16.256,0.21799,0.53666,0.38039,0.64453,0.51961
16.264,0.2131,0.55425,0.37451,0.64062,0.52549
16.272,0.20821,0.57087,0.36471,0.64453,0.52941
16.28,0.20332,0.58651,0.37059,0.64062,0.53529
16.288,0.19941,0.60117,0.35882,0.64062,0.53529
16.296,0.19453,0.6129,0.38039,0.63477,0.53922
16.304,0.19062,0.6217,0.38431,0.64062,0.52941
16.312,0.18671,0.62854,0.3549,0.6543,0.53922
16.32,0.1828,0.63343,0.33922,0.68555,0.53922
16.328,0.17889,0.63734,0.32353,0.70508,0.55098
16.336,0.17498,0.6393,0.5,0.64062,0.4451
16.344,0.17204,0.6393,0.73529,0.48047,0.31961
16.352,0.16911,0.6393,0.88039,0.31445,0.2451
16.36,0.16618,0.6393,0.90588,0.20117,0.31961
16.368,0.16325,0.63832,0.59608,0.27539,0.4902
16.376,0.16031,0.63539,0.4549,0.43555,0.55098
16.384,0.15836,0.63245,0.39412,0.55469,0.55098
16.392,0.15543,0.62854,0.37451,0.61914,0.53529
16.4,0.15249,0.62366,0.37451,0.65039,0.52941
16.408,0.14956,0.61877,0.36471,0.66406,0.53922
16.416,0.14761,0.61388,0.37059,0.66016,0.53529
16.424,0.14467,0.60899,0.37059,0.66016,0.52941
16.432,0.14174,0.60411,0.35882,0.66406,0.53922
16.44,0.13881,0.6002,0.36471,0.66016,0.53922
16.448,0.13685,0.59531,0.3549,0.66992,0.55098
16.456,0.13392,0.59042,0.35882,0.66406,0.53529
16.464,0.13099,0.58553,0.33922,0.67578,0.55098
16.472,0.12903,0.58065,0.35882,0.66016,0.53529
16.48,0.12708,0.57478,0.35882,0.66406,0.53922
16.488,0.12512,0.56989,0.36471,0.65039,0.52941
16.496,0.12414,0.56403,0.35882,0.66016,0.53529
16.504,0.12317,0.55718,0.36471,0.66016,0.52941
16.512,0.12219,0.55034,0.37059,0.6543,0.52941
16.52,0.12219,0.5435,0.37451,0.65039,0.52941
16.528,0.12219,0.53763,0.38039,0.64453,0.52941
16.536,0.12121,0.53275,0.37451,0.65039,0.52549
16.544,0.12121,0.52884,0.38431,0.65039,0.51961
16.552,0.12121,0.52493,0.38039,0.65039,0.51569
16.56,0.12121,0.52199,0.37059,0.64062,0.52941
16.568,0.12121,0.51808,0.4,0.64062,0.5098
16.576,0.12219,0.51515,0.4098,0.63477,0.50588
16.584,0.12219,0.51124,0.41961,0.62891,0.4902
16.592,0.12317,0.50733,0.42549,0.625,0.49412
16.6,0.12414,0.5044,0.43922,0.61523,0.48039
16.608,0.12414,0.50049,0.4451,0.625,0.48431
16.616,0.12414,0.49658,0.4549,0.61914,0.48039
16.624,0.12414,0.49462,0.47059,0.61914,0.46078
16.632,0.12317,0.49169,0.46078,0.62891,0.46471
16.64,0.12219,0.48974,0.4451,0.64062,0.48039
16.648,0.12121,0.48876,0.43529,0.65039,0.48431
16.656,0.11926,0.4868,0.4451,0.64453,0.48431
16.664,0.1173,0.48485,0.42549,0.65039,0.4902
16.672,0.11632,0.48192,0.4,0.66992,0.5098
16.68,0.11535,0.47996,0.38431,0.66992,0.51961
16.688,0.11339,0.47801,0.37451,0.67969,0.52941
16.696,0.11241,0.47605,0.38431,0.66406,0.52941
16.704,0.11046,0.4741,0.38039,0.66016,0.52941
16.712,0.10948,0.47312,0.37059,0.66016,0.53922
16.72,0.10753,0.47116,0.37451,0.6543,0.53529
16.728,0.10655,0.47019,0.34902,0.66016,0.55098
16.736,0.10459,0.46921,0.37059,0.65039,0.5451
16.744,0.10362,0.46725,0.38431,0.65039,0.53529
16.752,0.10264,0.46628,0.37451,0.65039,0.53922
16.76,0.10068,0.4653,0.36471,0.64453,0.5451
16.768,0.099707,0.46334,0.36471,0.6543,0.5451
16.776,0.096774,0.46237,0.37451,0.6543,0.53922
16.784,0.094819,0.46041,0.38039,0.6543,0.53529
16.792,0.090909,0.45846,0.38039,0.65039,0.53922
16.8,0.087977,0.4565,0.38039,0.65039,0.5451
16.808,0.083089,0.45357,0.38039,0.65039,0.52941
16.816,0.079179,0.44966,0.38431,0.66016,0.53529
16.824,0.075269,0.44575,0.38039,0.65039,0.53922
16.832,0.071359,0.44086,0.3902,0.65039,0.52941
16.84,0.066471,0.435,0.4,0.64453,0.52941
16.848,0.062561,0.43109,0.41569,0.6543,0.51961
16.856,0.055718,0.42717,0.42941,0.65039,0.5098
16.864,0.048876,0.42424,0.42549,0.65039,0.51961
16.872,0.040078,0.42229,0.42941,0.65039,0.5098
16.88,0.032258,0.42131,0.46471,0.62891,0.48431
16.888,0.024438,0.42326,0.48431,0.61914,0.47451
16.896,0.016618,0.42717,0.47059,0.60938,0.4902
16.904,0.0087977,0.42131,0.41569,0.61523,0.52549
16.912,0.00097752,0.41153,0.39412,0.62891,0.52941
16.92,0,0.41544,0.3902,0.62891,0.5451
16.928,0,0.4262,0.37451,0.63477,0.5549
16.936,0,0.43988,0.34902,0.64062,0.57059
16.944,0,0.45259,0.32941,0.62891,0.58039
16.952,0,0.4653,0.31961,0.63477,0.58431
16.96,0,0.47801,0.3098,0.64453,0.59608
16.968,0,0.48876,0.31373,0.64062,0.5902
16.976,0,0.49756,0.31961,0.63477,0.58431
16.984,0,0.50538,0.32353,0.62891,0.58431
16.992,0,0.51124,0.2902,0.66016,0.6
17,0,0.51515,0.2451,0.69531,0.61569
17.008,0,0.51808,0.27843,0.69922,0.59608
17.016,0,0.51906,0.48431,0.66016,0.47451
17.024,0,0.51808,0.6902,0.48438,0.36471
17.032,0,0.51711,0.78039,0.26953,0.3451
17.04,0,0.51515,0.78627,0.18945,0.42941
17.048,0,0.51222,0.4902,0.30078,0.58431
17.056,0,0.50733,0.3549,0.44922,0.63529
17.064,0,0.50244,0.32941,0.55469,0.6098
17.072,0,0.49658,0.3098,0.63477,0.6
17.08,0,0.49071,0.3,0.66016,0.5902
17.088,0,0.4868,0.28431,0.66406,0.60588
17.096,0,0.48289,0.27843,0.67578,0.60588
17.104,0,0.47898,0.28431,0.67969,0.60588
17.112,0,0.4741,0.27451,0.67578,0.60588
17.12,0,0.46921,0.27843,0.66992,0.60588
17.128,0,0.46237,0.27843,0.66992,0.6098
17.136,0,0.45455,0.27451,0.66406,0.60588
17.144,0,0.4477,0.2902,0.66992,0.60588
17.152,0,0.44086,0.2902,0.66016,0.6
17.16,0,0.43402,0.27843,0.6543,0.60588
17.168,0,0.4262,0.28431,0.66406,0.6
17.176,0,0.41935,0.2902,0.65039,0.6
17.184,0,0.41251,0.2902,0.6543,0.59608
17.192,0,0.40665,0.2902,0.65039,0.6
17.2,0,0.3998,0.28431,0.6543,0.60588
17.208,0,0.39394,0.28431,0.65039,0.6098
17.216,0,0.3871,0.3,0.65039,0.59608
17.224,0,0.38123,0.31961,0.64062,0.58039
17.232,0,0.37634,0.31373,0.63477,0.58039
17.24,0,0.37243,0.31373,0.63477,0.58431
17.248,0,0.36852,0.33922,0.62891,0.57059
17.256,0,0.36559,0.3451,0.625,0.57059
17.264,0,0.36266,0.34902,0.61523,0.57059
17.272,0,0.35973,0.36471,0.61523,0.5549
17.28,0,0.35875,0.36471,0.60938,0.55098
17.288,0,0.35777,0.38039,0.60547,0.53922
17.296,0,0.35777,0.4,0.59961,0.52941
17.304,0,0.35679,0.4098,0.58398,0.52941
17.312,0,0.35679,0.39412,0.58984,0.53529
17.32,0,0.35679,0.38431,0.60547,0.52941
17.328,0,0.35679,0.38039,0.625,0.53922
17.336,0,0.35679,0.3549,0.63477,0.56078
17.344,0,0.35679,0.3451,0.65039,0.56471
17.352,0,0.35679,0.3549,0.65039,0.5549
17.36,0,0.35679,0.3451,0.65039,0.57059
17.368,0,0.35582,0.36471,0.6543,0.5549
17.376,0,0.35484,0.36471,0.64062,0.56078
17.384,0,0.35288,0.3451,0.65039,0.56471
17.392,0,0.35191,0.31373,0.66016,0.58431
17.4,0,0.35093,0.32941,0.65039,0.58039
17.408,0,0.34897,0.33529,0.64453,0.58039
17.416,0,0.348,0.31961,0.65039,0.58431
17.424,0,0.34702,0.3451,0.64062,0.57451
17.432,0,0.34506,0.33529,0.64062,0.58039
17.44,0,0.34409,0.33529,0.64453,0.58039
17.448,0,0.34311,0.32941,0.64453,0.58039
17.456,0,0.34213,0.3451,0.64062,0.57451
17.464,0,0.34018,0.34902,0.63477,0.57059
17.472,0,0.3392,0.33922,0.65039,0.57451
17.48,0,0.3392,0.33529,0.65039,0.58039
17.488,0,0.33822,0.3451,0.64062,0.57451
17.496,0,0.33822,0.36471,0.64062,0.56471
17.504,0,0.33724,0.3451,0.64453,0.57451
17.512,0,0.33431,0.36471,0.64062,0.56471
17.52,0,0.33138,0.37451,0.63477,0.5549
17.528,0,0.32747,0.4,0.65039,0.53922
17.536,0,0.32454,0.4098,0.64453,0.53529
17.544,0,0.32258,0.4098,0.62891,0.52941
17.552,0,0.3216,0.43529,0.625,0.51961
17.56,0,0.32258,0.4549,0.60938,0.5098
17.568,0,0.32454,0.4451,0.60547,0.51569
17.576,0,0.32942,0.40392,0.60938,0.53529
17.584,0,0.33724,0.37451,0.625,0.5549
17.592,0,0.34897,0.38431,0.61914,0.56078
17.6,0,0.36266,0.34902,0.625,0.58431
17.608,0,0.38025,0.3098,0.63477,0.60588
17.616,0,0.3998,0.2902,0.63477,0.6098
17.624,0,0.42033,0.2902,0.62891,0.61961
17.632,0,0.44086,0.28431,0.64062,0.61569
17.64,0,0.45943,0.26863,0.63477,0.6098
17.648,0,0.47605,0.27451,0.62891,0.62549
17.656,0,0.49267,0.2902,0.625,0.61569
17.664,0,0.50733,0.27451,0.64062,0.6098
17.672,0,0.51906,0.22941,0.67969,0.63529
17.68,0,0.52884,0.22353,0.68945,0.61961
17.688,0,0.53568,0.4549,0.64062,0.50588
17.696,0,0.54057,0.68039,0.46094,0.38431
17.704,0,0.5435,0.78039,0.25,0.37059
17.712,0,0.5435,0.69608,0.20117,0.46078
17.72,0,0.5435,0.43922,0.32422,0.61569
17.728,0,0.54154,0.3451,0.44922,0.65098
17.736,0,0.53959,0.31961,0.54492,0.62941
17.744,0,0.5347,0.28431,0.61914,0.63529
17.752,0,0.53079,0.25882,0.64453,0.62549
17.76,0,0.52493,0.2451,0.6543,0.64118
17.768,0,0.51711,0.23922,0.6543,0.6451
17.776,0,0.51026,0.2549,0.6543,0.62549
17.784,0,0.50538,0.2451,0.66016,0.62941
17.792,0,0.49951,0.22941,0.66016,0.6451
17.8,0,0.49267,0.24902,0.65039,0.62941
17.808,0,0.48485,0.26863,0.65039,0.61961
17.816,0,0.47605,0.24902,0.6543,0.62941
17.824,0,0.46823,0.2451,0.65039,0.62549
17.832,0,0.45943,0.2549,0.63477,0.62941
17.84,0,0.45259,0.26863,0.63477,0.62549
17.848,0,0.44575,0.27451,0.64062,0.61961
17.856,0.00097752,0.43793,0.25882,0.63477,0.61569
17.864,0.0048876,0.43011,0.23922,0.65039,0.63529
17.872,0.0097752,0.42326,0.2549,0.64453,0.62549
17.88,0.014663,0.4174,0.26863,0.63477,0.61961
17.888,0.01955,0.41056,0.28431,0.62891,0.61569
17.896,0.024438,0.40469,0.2902,0.625,0.60588
17.904,0.029326,0.39785,0.31373,0.61523,0.59608
17.912,0.034213,0.39198,0.3098,0.60547,0.6
17.92,0.039101,0.38612,0.31961,0.60938,0.5902
17.928,0.043988,0.38319,0.31373,0.60547,0.59608
17.936,0.048876,0.38025,0.3098,0.5957,0.6
17.944,0.053763,0.3783,0.31373,0.60547,0.58431
17.952,0.058651,0.37732,0.32941,0.58398,0.58039
17.96,0.062561,0.37732,0.38039,0.58008,0.5549
17.968,0.066471,0.37732,0.40392,0.58008,0.53922
17.976,0.070381,0.37732,0.41961,0.57031,0.52941
17.984,0.073314,0.37732,0.37451,0.58398,0.5549
17.992,0.077224,0.37634,0.34902,0.60547,0.56471
18,0.080156,0.37439,0.33922,0.60547,0.57451
18.008,0.084066,0.37243,0.3549,0.625,0.56471
18.016,0.086999,0.37048,0.3451,0.62891,0.58039
18.024,0.089932,0.36852,0.34902,0.62891,0.57059
18.032,0.092864,0.36657,0.3549,0.63477,0.57451
18.04,0.093842,0.36461,0.31373,0.64062,0.58431
18.048,0.095797,0.36364,0.31373,0.65039,0.59608
18.056,0.096774,0.36168,0.33529,0.63477,0.58039
18.064,0.097752,0.3607,0.33529,0.64062,0.58431
18.072,0.097752,0.35973,0.33922,0.64062,0.58039
18.08,0.097752,0.35777,0.33922,0.63477,0.58431
18.088,0.096774,0.35777,0.32353,0.63477,0.58039
18.096,0.096774,0.35777,0.3098,0.63477,0.6
18.104,0.095797,0.35679,0.31373,0.64453,0.59608
18.112,0.095797,0.35679,0.31373,0.63477,0.6
18.12,0.095797,0.35679,0.31373,0.62891,0.6
18.128,0.094819,0.35679,0.32353,0.62891,0.59608
18.136,0.094819,0.35679,0.31961,0.64062,0.5902
18.144,0.094819,0.35679,0.33922,0.62891,0.58431
18.152,0.094819,0.35679,0.35882,0.62891,0.57451
18.16,0.094819,0.35679,0.3549,0.62891,0.58039
18.168,0.094819,0.35679,0.34902,0.62891,0.57451
18.176,0.095797,0.35679,0.33922,0.64453,0.58431
18.184,0.096774,0.35679,0.37451,0.63477,0.56471
18.192,0.097752,0.35679,0.4,0.62891,0.55098
18.2,0.10068,0.35679,0.4098,0.625,0.53529
18.208,0.10264,0.35484,0.40392,0.63477,0.53922
18.216,0.10655,0.35191,0.43922,0.625,0.52549
18.224,0.10948,0.34897,0.4549,0.60938,0.5098
18.232,0.11535,0.348,0.46078,0.60547,0.5098
18.24,0.12023,0.348,0.4451,0.5957,0.51961
18.248,0.12708,0.34995,0.41569,0.60547,0.53922
18.256,0.13392,0.35484,0.38431,0.61523,0.5549
18.264,0.14076,0.36364,0.35882,0.62891,0.57059
18.272,0.14761,0.37634,0.3451,0.625,0.58039
18.28,0.15543,0.39394,0.31373,0.62891,0.60588
18.288,0.16325,0.41447,0.32353,0.625,0.6
18.296,0.17204,0.43695,0.29412,0.62891,0.61569
18.304,0.18084,0.46041,0.30392,0.61914,0.60588
18.312,0.19159,0.48289,0.3,0.625,0.61569
18.32,0.20137,0.5044,0.29412,0.625,0.6098
18.328,0.21114,0.52395,0.30392,0.625,0.60588
18.336,0.22092,0.54154,0.2902,0.63477,0.61569
18.344,0.22972,0.55327,0.24902,0.66016,0.62941
18.352,0.23949,0.56109,0.27843,0.66406,0.6098
18.36,0.24927,0.56696,0.47451,0.61523,0.5
18.368,0.26002,0.56989,0.70588,0.42578,0.38039
18.376,0.27175,0.56989,0.81176,0.24609,0.36471
18.384,0.28348,0.56891,0.82157,0.18945,0.43922
18.392,0.29619,0.56598,0.47451,0.30078,0.60588
18.4,0.3089,0.56207,0.36471,0.44531,0.64118
18.408,0.3216,0.55816,0.35882,0.53906,0.6
18.416,0.33529,0.55523,0.31961,0.59961,0.60588
18.424,0.34702,0.55327,0.28431,0.63477,0.61961
18.432,0.35973,0.55132,0.27843,0.64453,0.61961
18.44,0.37146,0.54936,0.26471,0.65039,0.62549
18.448,0.38221,0.54545,0.27843,0.65039,0.61569
18.456,0.39589,0.54154,0.2902,0.65039,0.6098
18.464,0.40958,0.53568,0.2902,0.65039,0.61569
18.472,0.42424,0.52981,0.27843,0.64453,0.61569
18.48,0.43988,0.52395,0.2902,0.64453,0.6098
18.488,0.45357,0.51711,0.2902,0.64062,0.6098
18.496,0.46823,0.51124,0.2902,0.63477,0.6098
18.504,0.48094,0.5044,0.2902,0.64062,0.61569
18.512,0.49462,0.49756,0.3,0.62891,0.60588
18.52,0.50831,0.49071,0.3,0.64062,0.6098
18.528,0.52297,0.48387,0.2902,0.63477,0.61569
18.536,0.53861,0.47605,0.28431,0.63477,0.60588
18.544,0.55425,0.46921,0.29412,0.625,0.6098
18.552,0.57087,0.46237,0.3098,0.61523,0.6
18.56,0.58749,0.45455,0.31373,0.61914,0.6
18.568,0.60508,0.44673,0.30392,0.61523,0.60588
18.576,0.62268,0.43891,0.31373,0.60938,0.6
18.584,0.63832,0.43109,0.3,0.60938,0.60588
18.592,0.65494,0.4262,0.33922,0.61523,0.58431
18.6,0.66862,0.42326,0.35882,0.60547,0.57059
18.608,0.68328,0.42326,0.36471,0.5957,0.56471
18.616,0.69795,0.42229,0.38431,0.58984,0.55098
18.624,0.71359,0.42229,0.3902,0.58398,0.5549
18.632,0.72825,0.42229,0.41569,0.58008,0.53529
18.64,0.74291,0.42229,0.41961,0.58008,0.52941
18.648,0.7566,0.42326,0.41569,0.58008,0.53529
18.656,0.77028,0.42326,0.42549,0.58398,0.52941
18.664,0.78299,0.42424,0.40392,0.58984,0.53922
18.672,0.7957,0.42424,0.38039,0.60547,0.55098
18.68,0.80841,0.42424,0.4098,0.60547,0.53922
18.688,0.82209,0.42424,0.3902,0.60938,0.55098
18.696,0.83578,0.42326,0.36471,0.62891,0.56471
18.704,0.84946,0.42229,0.3549,0.62891,0.56471
18.712,0.86413,0.42229,0.36471,0.62891,0.57451
18.72,0.87781,0.42131,0.33922,0.62891,0.58039
18.728,0.89247,0.42131,0.35882,0.625,0.57059
18.736,0.90714,0.42033,0.34902,0.625,0.58039
18.744,0.91984,0.42033,0.32353,0.62891,0.58431
18.752,0.93255,0.42033,0.31961,0.60938,0.5902
18.76,0.9433,0.41935,0.36471,0.60547,0.57451
18.768,0.95503,0.41838,0.33922,0.625,0.58431
18.776,0.96676,0.41838,0.35882,0.61523,0.58039
18.784,0.97849,0.4174,0.34902,0.62891,0.58039
18.792,0.98925,0.41544,0.35882,0.62891,0.58039
18.8,1,0.41349,0.36471,0.62891,0.58039
18.808,1,0.41251,0.3549,0.62891,0.58039
18.816,1,0.41056,0.37451,0.625,0.56471
18.824,1,0.4086,0.36471,0.625,0.57451
18.832,1,0.40665,0.35882,0.61914,0.57059
18.84,1,0.40469,0.3451,0.625,0.58039
18.848,1,0.40371,0.35882,0.61914,0.56471
18.856,1,0.40371,0.38431,0.62891,0.5549
18.864,1,0.40274,0.41961,0.61523,0.53922
18.872,1,0.40176,0.4098,0.62891,0.53922
18.88,1,0.40078,0.38431,0.62891,0.5549
18.888,1,0.40078,0.43922,0.60938,0.52549
18.896,1,0.40176,0.4549,0.60938,0.51961
18.904,1,0.40371,0.4549,0.5957,0.51569
18.912,1,0.40958,0.46471,0.58008,0.5098
18.92,1,0.4174,0.48039,0.58008,0.50588
18.928,1,0.42913,0.3902,0.59961,0.55098
18.936,1,0.43988,0.38431,0.60547,0.5549
18.944,1,0.45259,0.40392,0.58984,0.55098
18.952,1,0.48289,0.33922,0.61914,0.58431
18.96,1,0.52102,0.30392,0.62891,0.60588
18.968,1,0.55034,0.3098,0.61914,0.60588
18.976,1,0.57478,0.30392,0.61914,0.60588
18.984,1,0.59531,0.27451,0.62891,0.62549
18.992,1,0.61388,0.26863,0.61523,0.6
19,1,0.62952,0.3098,0.60938,0.60588
19.008,1,0.64321,0.24902,0.63477,0.62549
19.016,1,0.65298,0.23922,0.66016,0.63529
19.024,1,0.6608,0.21373,0.67578,0.6451
19.032,1,0.66471,0.37059,0.64062,0.56078
19.04,1,0.66569,0.6549,0.48047,0.40392
19.048,1,0.66667,0.79608,0.31055,0.33922
19.056,1,0.66569,0.83529,0.17969,0.38431
19.064,1,0.66276,0.5451,0.25,0.55098
19.072,1,0.65885,0.33529,0.41016,0.6549
19.08,1,0.65494,0.3098,0.51562,0.62941
19.088,1,0.64809,0.29412,0.58984,0.61961
19.096,1,0.64223,0.25882,0.61914,0.62941
19.104,1,0.63441,0.2451,0.64453,0.62941
19.112,1,0.62854,0.23333,0.64062,0.64118
19.12,1,0.6217,0.2451,0.6543,0.62941
19.128,1,0.61486,0.2549,0.65039,0.64118
19.136,1,0.60802,0.23333,0.6543,0.62549
19.144,1,0.60215,0.25882,0.65039,0.62549
19.152,1,0.59629,0.2451,0.65039,0.62549
19.16,1,0.59042,0.24902,0.64453,0.62941
19.168,1,0.5826,0.26863,0.65039,0.61961
19.176,1,0.57478,0.28431,0.64062,0.60588
19.184,1,0.56696,0.26471,0.64453,0.61961
19.192,1,0.55816,0.25882,0.64062,0.62549
19.2,1,0.55034,0.26471,0.64062,0.61961
19.208,1,0.54252,0.23333,0.65039,0.62941
19.216,1,0.53568,0.27451,0.64062,0.61961
19.224,1,0.52884,0.23333,0.65039,0.64118
19.232,1,0.52199,0.24902,0.64453,0.62549
19.24,1,0.51515,0.26863,0.64062,0.61569
19.248,1,0.50831,0.26471,0.64062,0.61961
19.256,1,0.50147,0.27843,0.63477,0.6098
19.264,1,0.49462,0.26471,0.64453,0.61569
19.272,1,0.48876,0.31961,0.625,0.5902
19.28,1,0.48289,0.3098,0.625,0.59608
19.288,1,0.47898,0.32941,0.625,0.57451
19.296,1,0.47507,0.3451,0.61914,0.56471
19.304,1,0.47214,0.37451,0.60547,0.5549
19.312,1,0.47019,0.3902,0.59961,0.5451
19.32,1,0.46921,0.35882,0.61523,0.5549
19.328,1,0.46921,0.34902,0.625,0.56078
19.336,1,0.46921,0.3902,0.60938,0.5451
19.344,1,0.47019,0.36471,0.625,0.56078
19.352,1,0.47214,0.33529,0.62891,0.58039
19.36,1,0.47214,0.31961,0.64453,0.58431
19.368,1,0.47214,0.32941,0.64453,0.58431
19.376,1,0.47116,0.3451,0.64062,0.58039
19.384,1,0.46921,0.31961,0.64062,0.5902
19.392,1,0.46725,0.31373,0.64453,0.6
19.4,1,0.4653,0.3098,0.63477,0.59608
19.408,1,0.46334,0.3,0.64453,0.60588
19.416,1,0.46139,0.31961,0.62891,0.5902
19.424,1,0.45943,0.33922,0.61914,0.58431
19.432,1,0.45748,0.3,0.62891,0.60588
19.44,1,0.45552,0.31961,0.62891,0.5902
19.448,1,0.45455,0.29412,0.63477,0.60588
19.456,1,0.45259,0.31373,0.62891,0.59608
19.464,1,0.45064,0.3,0.64062,0.60588
19.472,1,0.44868,0.3098,0.63477,0.60588
19.48,1,0.44673,0.30392,0.62891,0.60588
19.488,1,0.44379,0.31961,0.62891,0.59608
19.496,1,0.44086,0.31373,0.62891,0.59608
19.504,1,0.43793,0.32353,0.63477,0.5902
19.512,1,0.435,0.31961,0.62891,0.6
19.52,1,0.43109,0.33922,0.62891,0.58431
19.528,1,0.42815,0.32353,0.63477,0.58039
19.536,1,0.42717,0.3549,0.64062,0.56471
19.544,1,0.42522,0.3451,0.62891,0.57059
19.552,1,0.42424,0.39412,0.62891,0.55098
19.56,1,0.42424,0.4,0.61914,0.5549
19.568,1,0.42522,0.39412,0.61523,0.5451
19.576,1,0.42913,0.42549,0.60547,0.52549
19.584,1,0.43597,0.40392,0.61523,0.52941
19.592,1,0.44575,0.41961,0.59961,0.52941
19.6,1,0.45943,0.4,0.5957,0.5451
19.608,0.99511,0.47507,0.37451,0.60547,0.55098
19.616,0.98925,0.49462,0.36471,0.61523,0.57451
19.624,0.98534,0.51515,0.3098,0.62891,0.6
19.632,0.98045,0.53666,0.32353,0.61523,0.5902
19.64,0.97556,0.55523,0.3,0.625,0.6098
19.648,0.97165,0.57185,0.2902,0.61523,0.61569
19.656,0.96676,0.58847,0.29412,0.61523,0.6098
19.664,0.96285,0.60508,0.27451,0.63477,0.62549
19.672,0.95894,0.61975,0.2902,0.62891,0.6098
19.68,0.95503,0.63245,0.2902,0.62891,0.60588
19.688,0.95015,0.64321,0.24902,0.64453,0.62941
19.696,0.94624,0.652,0.21961,0.67969,0.6451
19.704,0.9433,0.65787,0.2098,0.69922,0.62549
19.712,0.94037,0.66276,0.48431,0.5957,0.48431
19.72,0.93646,0.66569,0.72157,0.39062,0.3549
19.728,0.93353,0.66764,0.83529,0.24023,0.32353
19.736,0.92962,0.66764,0.71569,0.17578,0.43922
19.744,0.92669,0.66667,0.41961,0.31445,0.61569
19.752,0.9218,0.66667,0.3,0.47461,0.65098
19.76,0.91789,0.66569,0.25882,0.57422,0.6451
19.768,0.913,0.66373,0.2549,0.61914,0.62549
19.776,0.90811,0.6608,0.26863,0.63477,0.62549
19.784,0.90323,0.65689,0.2549,0.64453,0.62549
19.792,0.89834,0.65103,0.2451,0.65039,0.62941
19.8,0.89247,0.64516,0.2451,0.65039,0.63529
19.808,0.88661,0.63832,0.27843,0.63477,0.6098
19.816,0.87977,0.6305,0.29412,0.63477,0.60588
19.824,0.87292,0.62366,0.23333,0.65039,0.6451
19.832,0.86706,0.61877,0.24902,0.64453,0.62549
19.84,0.86022,0.61388,0.2451,0.6543,0.62941
19.848,0.85435,0.60802,0.27451,0.64453,0.61961
19.856,0.84848,0.60215,0.26471,0.65039,0.6098
19.864,0.84262,0.59629,0.24902,0.64453,0.62549
19.872,0.83675,0.59042,0.27843,0.64062,0.61569
19.88,0.83089,0.58456,0.26471,0.65039,0.61961
19.888,0.826,0.57771,0.30392,0.62891,0.6
19.896,0.82111,0.57185,0.2902,0.63477,0.60588
19.904,0.81623,0.565,0.3098,0.62891,0.59608
19.912,0.81232,0.55914,0.28431,0.64453,0.60588
19.92,0.80743,0.55327,0.26863,0.63477,0.61569
19.928,0.8045,0.54741,0.27843,0.62891,0.60588
19.936,0.80059,0.54252,0.3,0.62891,0.5902
19.944,0.79765,0.53861,0.2902,0.63477,0.6
19.952,0.79472,0.5347,0.30392,0.62891,0.5902
19.96,0.79179,0.53079,0.35882,0.61523,0.56471
19.968,0.78886,0.52786,0.32941,0.62891,0.57451
19.976,0.7869,0.5259,0.38039,0.60547,0.53922
19.984,0.78397,0.5259,0.37451,0.60547,0.5451
19.992,0.78104,0.52493,0.41961,0.60938,0.51961
20,0.7781,0.52493,0.42549,0.60547,0.52549
20.008,0.77419,0.52493,0.4098,0.61523,0.52941
20.016,0.77126,0.52395,0.41961,0.61523,0.51961
20.024,0.76735,0.52297,0.35882,0.63477,0.5549
20.032,0.76344,0.52102,0.36471,0.64453,0.55098
20.04,0.75953,0.51906,0.34902,0.65039,0.56471
20.048,0.75562,0.51808,0.36471,0.64062,0.5549
20.056,0.75073,0.51613,0.34902,0.64453,0.56471
20.064,0.74682,0.51417,0.32353,0.65039,0.58431
20.072,0.74096,0.51222,0.31373,0.64453,0.5902
20.08,0.73607,0.50929,0.33922,0.62891,0.58039
20.088,0.73021,0.50635,0.35882,0.61914,0.57059
20.096,0.72532,0.50342,0.31373,0.62891,0.5902
20.104,0.72043,0.49951,0.35882,0.61523,0.58039
20.112,0.71554,0.4956,0.32941,0.625,0.58431
20.12,0.70968,0.49071,0.33922,0.61523,0.58039
20.128,0.70381,0.48778,0.32941,0.62891,0.58431
20.136,0.69599,0.48583,0.33529,0.61914,0.5902
20.144,0.68915,0.48387,0.3451,0.61523,0.58431
20.152,0.68133,0.48192,0.32941,0.61914,0.5902
20.16,0.67351,0.47996,0.31373,0.62891,0.59608
20.168,0.66471,0.47801,0.33922,0.62891,0.58039
20.176,0.65591,0.47605,0.32941,0.62891,0.58431
20.184,0.64809,0.4741,0.34902,0.61914,0.58039
20.192,0.64027,0.47116,0.36471,0.61523,0.57059
20.2,0.63245,0.46725,0.33529,0.625,0.58039
20.208,0.62561,0.46432,0.32941,0.62891,0.58431
20.216,0.61779,0.46139,0.36471,0.61523,0.56471
20.224,0.60997,0.45943,0.4,0.60938,0.55098
20.232,0.60215,0.45846,0.4,0.625,0.55098
20.24,0.59531,0.45846,0.39412,0.62891,0.5549
20.248,0.58944,0.46139,0.42941,0.61914,0.52941
20.256,0.58358,0.46628,0.42549,0.60547,0.52549
20.264,0.57869,0.47312,0.4451,0.58984,0.52941
20.272,0.5738,0.48485,0.44902,0.58398,0.5098
20.28,0.56891,0.50049,0.43529,0.58984,0.51961
20.288,0.565,0.51906,0.4,0.59961,0.53922
20.296,0.56109,0.53861,0.4098,0.58984,0.52941
20.304,0.55718,0.56012,0.40392,0.59961,0.53922
20.312,0.55327,0.5826,0.3549,0.61523,0.57451
20.32,0.54936,0.60313,0.27843,0.63477,0.6098
20.328,0.54545,0.62268,0.3098,0.625,0.59608
20.336,0.54252,0.63734,0.2902,0.61914,0.60588
20.344,0.53959,0.65005,0.28431,0.625,0.6098
20.352,0.53666,0.66178,0.30392,0.61914,0.59608
20.36,0.53372,0.67253,0.31373,0.60938,0.6
20.368,0.53177,0.68133,0.2902,0.61523,0.6098
20.376,0.52884,0.68915,0.3098,0.625,0.6
20.384,0.52688,0.69501,0.2549,0.67578,0.61961
20.392,0.52395,0.69892,0.30392,0.67578,0.58431
20.4,0.52102,0.70186,0.53529,0.57031,0.4549
20.408,0.51808,0.70186,0.71569,0.375,0.3549
20.416,0.51515,0.70088,0.78627,0.21094,0.3451
20.424,0.51222,0.69795,0.64118,0.16992,0.4902
20.432,0.50929,0.69306,0.3902,0.33594,0.62941
20.44,0.50635,0.68719,0.32353,0.48438,0.63529
20.448,0.50342,0.68133,0.3,0.56445,0.61961
20.456,0.50049,0.67644,0.27843,0.61914,0.62549
20.464,0.49756,0.67155,0.29412,0.62891,0.60588
20.472,0.49365,0.66667,0.29412,0.63477,0.60588
20.48,0.48974,0.66276,0.31373,0.62891,0.59608
20.488,0.48583,0.65787,0.29412,0.63477,0.60588
20.496,0.48094,0.65396,0.30392,0.64062,0.60588
20.504,0.47703,0.64907,0.29412,0.62891,0.60588
20.512,0.47312,0.64321,0.2902,0.63477,0.60588
20.52,0.46921,0.63636,0.30392,0.64062,0.59608
20.528,0.4653,0.62757,0.3098,0.63477,0.6
20.536,0.46237,0.61975,0.31373,0.62891,0.59608
20.544,0.45846,0.61193,0.31373,0.62891,0.5902
20.552,0.45455,0.60215,0.31373,0.625,0.5902
20.56,0.45161,0.59531,0.31373,0.62891,0.58431
20.568,0.44868,0.58944,0.3098,0.625,0.59608
20.576,0.44575,0.58358,0.30392,0.62891,0.5902
20.584,0.44282,0.57771,0.31961,0.625,0.5902
20.592,0.44086,0.57185,0.3098,0.625,0.6
20.6,0.43988,0.565,0.3,0.62891,0.60588
20.608,0.43793,0.55718,0.33922,0.61914,0.58039
20.616,0.43695,0.55034,0.3451,0.625,0.56471
20.624,0.43695,0.5435,0.33922,0.62891,0.57059
20.632,0.43597,0.53861,0.3549,0.61914,0.56471
20.64,0.43597,0.5347,0.36471,0.61914,0.5549
20.648,0.43695,0.53079,0.36471,0.60938,0.55098
20.656,0.43695,0.52688,0.38431,0.60547,0.53922
20.664,0.43695,0.52297,0.38431,0.59961,0.53922
20.672,0.43695,0.52004,0.40392,0.5957,0.52941
20.68,0.43597,0.51808,0.41961,0.58984,0.52549
20.688,0.43597,0.51515,0.43529,0.58984,0.51569
20.696,0.435,0.51124,0.43529,0.5957,0.51961
20.704,0.43304,0.50831,0.41569,0.60938,0.51569
20.712,0.43109,0.50538,0.3902,0.62891,0.53529
20.72,0.42815,0.50147,0.37451,0.62891,0.5549
20.728,0.42522,0.49853,0.38039,0.63477,0.5549
20.736,0.42229,0.4956,0.37451,0.64062,0.56078
20.744,0.41838,0.49267,0.35882,0.62891,0.57059
20.752,0.41447,0.48876,0.32941,0.64062,0.58431
20.76,0.4086,0.48583,0.32353,0.64453,0.5902
20.768,0.40371,0.48387,0.31373,0.62891,0.59608
20.776,0.39785,0.48094,0.31961,0.62891,0.59608
20.784,0.39101,0.47801,0.32353,0.625,0.59608
20.792,0.38416,0.47605,0.31373,0.61914,0.60588
20.8,0.37634,0.4741,0.3098,0.63477,0.60588
20.808,0.36852,0.47214,0.30392,0.62891,0.6098
20.816,0.3607,0.46921,0.31961,0.61914,0.60588
20.824,0.35288,0.46725,0.32353,0.62891,0.6
20.832,0.34604,0.46628,0.3098,0.64453,0.60588
20.84,0.3392,0.46432,0.3,0.65039,0.61569
20.848,0.33236,0.46237,0.3098,0.64453,0.60588
20.856,0.32747,0.46041,0.31373,0.62891,0.60588
20.864,0.32258,0.45943,0.3,0.64453,0.60588
20.872,0.31769,0.45748,0.30392,0.64062,0.6098
20.88,0.31378,0.45552,0.31373,0.64453,0.60588
20.888,0.31183,0.45161,0.30392,0.63477,0.6
20.896,0.30987,0.44868,0.31373,0.62891,0.60588
20.904,0.30987,0.44575,0.31373,0.63477,0.59608
20.912,0.3089,0.44282,0.33529,0.64062,0.58431
20.92,0.31085,0.44086,0.3451,0.64062,0.58039
20.928,0.31183,0.43988,0.34902,0.63477,0.58431
20.936,0.31378,0.44184,0.35882,0.64453,0.57451
20.944,0.31672,0.44477,0.3902,0.625,0.55098
20.952,0.31769,0.44868,0.4098,0.60938,0.5451
20.96,0.31867,0.45552,0.41961,0.59961,0.55098
20.968,0.31769,0.4653,0.4,0.60547,0.55098
20.976,0.31672,0.47703,0.3549,0.59961,0.57451
20.984,0.31476,0.49169,0.32353,0.60938,0.59608
20.992,0.31281,0.50733,0.32941,0.61523,0.5902
21,0.30792,0.50733,0.2902,0.61914,0.61961
21.008,0.30401,0.49951,0.26863,0.625,0.62941
21.016,0.29521,0.50244,0.26863,0.625,0.63529
21.024,0.28641,0.50929,0.24902,0.625,0.65098
21.032,0.27273,0.51613,0.25882,0.62891,0.64118
21.04,0.26002,0.52199,0.2549,0.625,0.64118
21.048,0.24633,0.52688,0.2549,0.61914,0.6451
21.056,0.23265,0.53177,0.25882,0.625,0.6451
21.064,0.21799,0.53372,0.23922,0.64062,0.65098
21.072,0.20332,0.53372,0.2098,0.67969,0.66078
21.08,0.18573,0.53275,0.2902,0.66016,0.60588
21.088,0.16813,0.52884,0.52941,0.5957,0.46078
21.096,0.14663,0.52493,0.68039,0.375,0.3902
21.104,0.1261,0.51906,0.74118,0.20508,0.4098
21.112,0.10557,0.51222,0.5549,0.18555,0.56078
21.12,0.084066,0.50538,0.34902,0.34961,0.68039
21.128,0.063539,0.49756,0.3,0.4707,0.6902
21.136,0.043011,0.49071,0.28431,0.56445,0.6451
21.144,0.025415,0.48583,0.24902,0.625,0.64118
21.152,0.0087977,0.48094,0.23333,0.64453,0.6451
21.16,0.0039101,0.47507,0.22353,0.65039,0.65098
21.168,0,0.46823,0.23333,0.65039,0.6451
21.176,0,0.46139,0.2451,0.6543,0.64118
21.184,0,0.45455,0.23333,0.65039,0.64118
21.192,0,0.44379,0.22941,0.65039,0.6451
21.2,0,0.43304,0.22941,0.65039,0.65098
21.208,0,0.4262,0.23922,0.6543,0.6451
21.216,0,0.41935,0.2451,0.64453,0.6451
21.224,0,0.41251,0.22353,0.65039,0.64118
21.232,0,0.40762,0.2098,0.6543,0.6549
21.24,0,0.40176,0.2098,0.65039,0.66078
21.248,0,0.39492,0.23922,0.64062,0.6451
21.256,0,0.3871,0.25882,0.62891,0.62941
21.264,0,0.38025,0.26471,0.62891,0.62941
21.272,0,0.37341,0.24902,0.62891,0.63529
21.28,0,0.36755,0.2451,0.625,0.63529
21.288,0,0.36266,0.25882,0.625,0.62549
21.296,0,0.35875,0.3,0.60938,0.6098
21.304,0,0.35484,0.3098,0.60547,0.60588
21.312,0,0.35093,0.26471,0.60938,0.62549
21.32,0,0.34897,0.25882,0.60547,0.62941
21.328,0,0.34897,0.31373,0.59961,0.58431
21.336,0,0.34897,0.31961,0.58398,0.58039
21.344,0,0.34897,0.31373,0.58008,0.5902
21.352,0,0.34897,0.32353,0.58008,0.58431
21.36,0,0.34897,0.3451,0.57422,0.57059
21.368,0,0.34897,0.36471,0.57031,0.56078
21.376,0,0.34897,0.37059,0.57422,0.56078
21.384,0,0.34897,0.3549,0.58008,0.57059
21.392,0,0.34897,0.34902,0.58984,0.57451
21.4,0,0.348,0.34902,0.59961,0.58039
21.408,0,0.348,0.33529,0.60547,0.57451
21.416,0,0.34702,0.31373,0.61914,0.6
21.424,0,0.34604,0.3098,0.63477,0.6
21.432,0,0.34702,0.30392,0.62891,0.60588
21.44,0,0.34604,0.31373,0.63477,0.60588
21.448,0,0.34604,0.33529,0.64062,0.58431
21.456,0,0.34506,0.32353,0.63477,0.58039
21.464,0,0.34409,0.2902,0.64062,0.6098
21.472,0,0.34311,0.29412,0.63477,0.61569
21.48,0,0.34018,0.32353,0.625,0.60588
21.488,0,0.33822,0.31961,0.625,0.6
21.496,0,0.33627,0.31373,0.62891,0.60588
21.504,0,0.33333,0.31373,0.62891,0.60588
21.512,0,0.33236,0.3098,0.62891,0.6098
21.52,0,0.33138,0.30392,0.63477,0.6
21.528,0,0.33138,0.33529,0.62891,0.5902
21.536,0,0.3304,0.32941,0.62891,0.58431
21.544,0,0.32845,0.33922,0.62891,0.5902
21.552,0,0.32551,0.33922,0.62891,0.58039
21.56,0,0.32258,0.31373,0.625,0.60588
21.568,0,0.31867,0.32941,0.62891,0.5902
21.576,0,0.31574,0.32353,0.62891,0.58039
21.584,0,0.31183,0.3451,0.62891,0.58039
21.592,0,0.3089,0.36471,0.62891,0.56471
21.6,0,0.30694,0.38431,0.63477,0.5549
21.608,0,0.30596,0.38039,0.62891,0.56471
21.616,0,0.30596,0.4,0.61914,0.55098
21.624,0,0.30694,0.42941,0.60547,0.52941
21.632,0,0.30792,0.43529,0.5957,0.52941
21.64,0,0.31183,0.42549,0.58984,0.53922
21.648,0,0.31867,0.4098,0.59961,0.5451
21.656,0,0.32845,0.37059,0.60547,0.57059
21.664,0,0.34213,0.35882,0.60547,0.58039
21.672,0,0.35875,0.3451,0.60938,0.6
21.68,0,0.3783,0.3098,0.61523,0.61569
21.688,0,0.3998,0.29412,0.61523,0.61961
21.696,0,0.42131,0.27843,0.625,0.62549
21.704,0,0.44282,0.27451,0.61914,0.62549
21.712,0,0.46334,0.26863,0.62891,0.63529
21.72,0,0.47996,0.26863,0.61523,0.62941
21.728,0,0.49365,0.27451,0.62891,0.64118
21.736,0,0.5044,0.26471,0.62891,0.62941
21.744,0,0.5132,0.22941,0.66406,0.65098
21.752,0,0.52102,0.21373,0.67969,0.65098
21.76,0,0.52688,0.38039,0.64062,0.5549
21.768,0,0.53079,0.64118,0.50586,0.4098
21.776,0,0.53275,0.7,0.30469,0.39412
21.784,0,0.53275,0.72549,0.17578,0.47059
21.792,0,0.53177,0.50588,0.24609,0.6
21.8,0,0.52981,0.35882,0.39062,0.67059
21.808,0,0.52786,0.30392,0.5,0.66471
21.816,0,0.52493,0.26471,0.58398,0.65098
21.824,0,0.52199,0.2451,0.625,0.6549
21.832,0,0.51808,0.23922,0.64062,0.65098
21.84,0,0.5132,0.26471,0.64453,0.63529
21.848,0,0.50831,0.2451,0.64453,0.6451
21.856,0,0.50342,0.23333,0.66016,0.6549
21.864,0.0048876,0.49658,0.2451,0.64453,0.6451
21.872,0.0097752,0.48974,0.22353,0.65039,0.6549
21.88,0.01564,0.48192,0.23333,0.64453,0.65098
21.888,0.020528,0.47507,0.2451,0.64453,0.65098
21.896,0.026393,0.46725,0.2549,0.64062,0.64118
21.904,0.031281,0.45943,0.2451,0.63477,0.65098
21.912,0.037146,0.45064,0.23922,0.64062,0.6549
21.92,0.042033,0.43988,0.2451,0.63477,0.6451
21.928,0.046921,0.43109,0.24902,0.64062,0.64118
21.936,0.052786,0.42424,0.2549,0.62891,0.65098
21.944,0.057674,0.41642,0.23922,0.63477,0.6549
21.952,0.062561,0.40958,0.26863,0.61914,0.62941
21.96,0.066471,0.40371,0.2549,0.62891,0.64118
21.968,0.071359,0.39785,0.24902,0.61914,0.65098
21.976,0.075269,0.39296,0.26863,0.625,0.63529
21.984,0.080156,0.38807,0.27451,0.61523,0.62549
21.992,0.086022,0.38416,0.2902,0.60938,0.62549
22,0.090909,0.38221,0.3,0.5957,0.61569
22.008,0.095797,0.38025,0.3098,0.59961,0.6098
22.016,0.10166,0.3783,0.31373,0.58984,0.60588
22.024,0.10655,0.37732,0.31373,0.58398,0.60588
22.032,0.11144,0.37732,0.3451,0.58008,0.58039
22.04,0.11535,0.37732,0.38039,0.57031,0.56078
22.048,0.12023,0.37732,0.36471,0.56445,0.57059
22.056,0.12512,0.37732,0.35882,0.57422,0.57451
22.064,0.12903,0.37732,0.3451,0.58008,0.5902
22.072,0.13392,0.37634,0.34902,0.59961,0.58039
22.08,0.13783,0.37537,0.33922,0.60938,0.5902
22.088,0.14174,0.37341,0.32353,0.62891,0.6
22.096,0.14565,0.37146,0.32941,0.62891,0.6
22.104,0.14956,0.3695,0.33529,0.63477,0.60588
22.112,0.15347,0.36559,0.3098,0.63477,0.6098
22.12,0.1564,0.36266,0.31373,0.64062,0.60588
22.128,0.15934,0.36168,0.30392,0.63477,0.6098
22.136,0.16129,0.3607,0.31373,0.62891,0.6098
22.144,0.16325,0.3607,0.3098,0.63477,0.6098
22.152,0.16422,0.35973,0.26863,0.65039,0.62549
22.16,0.1652,0.35973,0.28431,0.65039,0.61961
22.168,0.16618,0.35875,0.31373,0.625,0.6098
22.176,0.16716,0.35777,0.33529,0.62891,0.6
22.184,0.16716,0.35582,0.32941,0.63477,0.59608
22.192,0.16716,0.35386,0.3,0.64062,0.61569
22.2,0.16618,0.35288,0.28431,0.64062,0.61961
22.208,0.1652,0.35093,0.30392,0.64453,0.62549
22.216,0.16325,0.34995,0.33922,0.625,0.59608
22.224,0.16129,0.34995,0.32353,0.62891,0.60588
22.232,0.15934,0.34897,0.32941,0.61914,0.60588
22.24,0.15738,0.34897,0.3098,0.62891,0.60588
22.248,0.15543,0.34702,0.32941,0.61914,0.59608
22.256,0.15445,0.34506,0.33922,0.62891,0.5902
22.264,0.15249,0.34213,0.34902,0.64062,0.58039
22.272,0.15152,0.3392,0.37451,0.63477,0.56078
22.28,0.15054,0.33627,0.4098,0.63477,0.55098
22.288,0.14956,0.33333,0.40392,0.625,0.5549
