Time [s], RESP, ABP, PLETH, II, V, AVR, CVP
0,0.65298,98.37,0.43109,0.39412,0.37059,0.51961,16.78
0.008,0.66276,97.979,0.42913,0.3902,0.37059,0.52549,17.327
0.016,0.67253,97.393,0.42717,0.3902,0.37451,0.51961,17.757
0.024,0.68133,96.806,0.42717,0.3902,0.37451,0.52941,18.149
0.032,0.69013,96.415,0.4262,0.3902,0.38039,0.51961,18.383
0.04,0.69795,95.632,0.42326,0.38431,0.38039,0.52941,18.579
0.048,0.70577,94.85,0.42131,0.38431,0.38431,0.52549,18.774
0.056,0.71457,93.872,0.41838,0.3902,0.38039,0.52941,18.892
0.064,0.72239,92.894,0.41642,0.38431,0.38431,0.51961,19.009
0.072,0.73216,91.525,0.4174,0.3902,0.38039,0.51961,19.205
0.08,0.74096,90.157,0.41935,0.38431,0.38431,0.51961,19.4
0.088,0.75171,88.396,0.42229,0.38431,0.38039,0.51961,19.596
0.096,0.76149,86.245,0.42717,0.3902,0.38431,0.51569,19.713
0.104,0.77224,83.898,0.435,0.38431,0.38431,0.51569,19.713
0.112,0.78397,81.16,0.44477,0.38431,0.3902,0.51961,19.635
0.12,0.79374,78.422,0.45846,0.3902,0.3902,0.51569,19.518
0.128,0.8045,75.293,0.47703,0.39412,0.3902,0.51961,19.4
0.136,0.81427,72.164,0.49853,0.4,0.39412,0.5098,19.126
0.144,0.82502,69.231,0.52199,0.41569,0.40392,0.50588,18.814
0.152,0.83675,66.688,0.54545,0.42549,0.41569,0.5,18.462
0.16,0.84946,64.733,0.565,0.43922,0.40392,0.49412,18.031
0.168,0.86217,63.168,0.58162,0.43922,0.35882,0.4902,17.562
0.176,0.87586,62.19,0.59531,0.4451,0.33922,0.49412,17.132
0.184,0.88759,61.604,0.60508,0.43922,0.32941,0.4902,16.78
0.192,0.89932,61.213,0.61095,0.42549,0.33529,0.5,16.31
0.2,0.91007,61.017,0.61486,0.4098,0.32941,0.4902,15.958
0.208,0.92082,61.017,0.61681,0.4,0.33922,0.49412,15.528
0.216,0.93353,61.408,0.61779,0.4,0.36471,0.50588,15.137
0.224,0.94526,61.995,0.61779,0.38431,0.38039,0.51961,14.824
0.232,0.95894,62.777,0.61584,0.37451,0.3902,0.52941,14.589
0.24,0.97263,63.559,0.6129,0.35882,0.3902,0.53529,14.433
0.248,0.98631,64.537,0.60997,0.3549,0.39412,0.53922,14.315
0.256,1,65.319,0.60606,0.35882,0.39412,0.53922,14.276
0.264,1,65.906,0.60215,0.3549,0.40392,0.53922,14.198
0.272,1,66.493,0.59824,0.32353,0.46471,0.5549,14.198
0.28,1,66.884,0.59433,0.29412,0.56471,0.57059,14.276
0.288,1,66.884,0.5914,0.40392,0.51961,0.48431,14.433
0.296,1,66.884,0.58749,0.71569,0.062745,0.29412,14.824
0.304,1,66.493,0.58456,0.93725,-0.40196,0.15882,15.372
0.312,1,66.102,0.58162,1.0216,-0.50196,0.12941,16.154
0.32,1,65.515,0.57674,0.72549,-0.42745,0.38039,16.936
0.328,1,64.733,0.57087,0.50588,-0.096078,0.51961,17.64
0.336,1,63.95,0.565,0.4098,0.17843,0.5451,18.149
0.344,1,63.168,0.55816,0.35882,0.34902,0.5549,18.344
0.352,1,62.386,0.55425,0.33529,0.42941,0.5549,18.344
0.36,1,61.604,0.55132,0.32353,0.46078,0.5549,18.266
0.368,1,60.821,0.54839,0.32353,0.47059,0.5549,18.149
0.376,1,60.039,0.54448,0.31961,0.47451,0.56471,18.07
0.384,1,59.257,0.53959,0.31961,0.47451,0.56078,18.07
0.392,1,58.475,0.53372,0.31373,0.47451,0.56471,18.07
0.4,1,57.888,0.52688,0.31373,0.47059,0.56471,18.188
0.408,1,57.301,0.52004,0.31961,0.47451,0.57059,18.344
0.416,1,56.715,0.51124,0.32353,0.47059,0.5549,18.383
0.424,1,56.128,0.50244,0.32353,0.47059,0.5549,18.383
0.432,1,55.737,0.49267,0.31961,0.46471,0.56078,18.344
0.44,1,55.346,0.48387,0.32353,0.46078,0.56078,18.266
0.448,1,54.954,0.47605,0.32941,0.46078,0.56078,18.383
0.456,1,54.563,0.46921,0.32941,0.4549,0.56078,18.579
0.464,1,54.172,0.46334,0.33529,0.44902,0.5549,18.892
0.472,1,53.781,0.45748,0.33922,0.4451,0.5549,19.322
0.48,1,53.39,0.45259,0.3451,0.44902,0.55098,19.752
0.488,1,53.194,0.44966,0.34902,0.43529,0.55098,20.026
0.496,1,52.803,0.44868,0.34902,0.43922,0.5451,20.026
0.504,1,52.608,0.44868,0.34902,0.43529,0.5451,19.713
0.512,1,52.216,0.44868,0.34902,0.43529,0.53922,19.087
0.52,1,51.825,0.44868,0.3549,0.43529,0.53922,18.344
0.528,1,51.63,0.44868,0.3549,0.43529,0.53529,17.562
0.536,1,51.434,0.44868,0.36471,0.43529,0.52941,17.014
0.544,1,51.825,0.44868,0.36471,0.43529,0.53529,16.506
0.552,1,53.585,0.44868,0.37451,0.42941,0.52941,16.193
0.56,1,57.888,0.44868,0.37451,0.42941,0.52941,15.88
0.568,1,65.906,0.44868,0.38431,0.41961,0.51569,15.528
0.576,1,77.249,0.44868,0.4,0.41961,0.5098,15.137
0.584,1,90.157,0.44868,0.4098,0.4098,0.50588,14.824
0.592,1,102.09,0.44868,0.41961,0.4098,0.50588,14.511
0.6,1,112.06,0.44868,0.43529,0.4,0.4902,14.276
0.608,1,119.69,0.44868,0.4451,0.38431,0.4902,14.003
0.616,1,124.97,0.44868,0.4451,0.38039,0.48039,13.807
0.624,1,127.9,0.44673,0.4549,0.38431,0.48039,13.69
0.632,1,128.1,0.44673,0.4451,0.3902,0.48039,13.651
0.64,1,126.34,0.44575,0.43922,0.3902,0.4902,13.572
0.648,1,123.01,0.44379,0.42549,0.39412,0.5,13.494
0.656,1,118.9,0.44379,0.41569,0.39412,0.50588,13.455
0.664,1,114.6,0.44379,0.4,0.39412,0.51569,13.338
0.672,1,110.69,0.44379,0.3902,0.3902,0.52549,13.338
0.68,1,107.56,0.44379,0.38039,0.38431,0.52941,13.338
0.688,1,104.82,0.44379,0.37451,0.38039,0.52941,13.494
0.696,1,102.67,0.44379,0.37451,0.37451,0.53529,13.885
0.704,1,101.11,0.44282,0.37451,0.37451,0.53529,14.394
0.712,1,100.13,0.44379,0.37059,0.37451,0.5451,15.059
0.72,1,99.544,0.44477,0.36471,0.37059,0.53922,15.88
0.728,1,98.957,0.44575,0.35882,0.36471,0.55098,16.623
0.736,1,98.37,0.44673,0.36471,0.36471,0.55098,17.249
0.744,1,97.979,0.44673,0.35882,0.37059,0.5549,17.757
0.752,1,97.588,0.44673,0.3549,0.36471,0.5549,18.149
0.76,1,97.001,0.44575,0.3549,0.37451,0.5549,18.383
0.768,1,96.415,0.44477,0.34902,0.38039,0.5549,18.501
0.776,0.99511,95.437,0.44282,0.3451,0.38039,0.56078,18.657
0.784,0.98925,94.655,0.44184,0.3451,0.37451,0.5549,18.774
0.792,0.96676,93.481,0.44282,0.3451,0.38039,0.5549,18.892
0.8,0.94428,92.308,0.44575,0.34902,0.38431,0.5549,19.087
0.808,0.92082,90.743,0.4477,0.3451,0.38431,0.56078,19.322
0.816,0.89834,89.179,0.44868,0.3451,0.3902,0.56078,19.518
0.824,0.87683,87.223,0.45259,0.33922,0.3902,0.56471,19.635
0.832,0.8563,84.876,0.45846,0.33922,0.3902,0.56078,19.635
0.84,0.83773,82.138,0.46921,0.33529,0.3902,0.56078,19.518
0.848,0.82014,79.205,0.48387,0.33922,0.3902,0.5549,19.322
0.856,0.80254,76.076,0.50244,0.3451,0.3902,0.56078,19.087
0.864,0.78592,72.947,0.52102,0.33922,0.39412,0.56471,18.774
0.872,0.76931,69.818,0.53959,0.34902,0.39412,0.5549,18.344
0.88,0.75367,67.08,0.56012,0.35882,0.4098,0.55098,17.757
0.888,0.73803,64.928,0.57869,0.37451,0.41961,0.5451,17.132
0.896,0.72336,63.168,0.59629,0.38039,0.40392,0.53529,16.584
0.904,0.70968,61.995,0.61193,0.3902,0.35882,0.52941,16.154
0.912,0.69599,61.213,0.62366,0.3902,0.33529,0.53529,15.763
0.92,0.68328,60.821,0.63148,0.39412,0.32353,0.52941,15.332
0.928,0.67155,60.626,0.63734,0.37451,0.32941,0.53529,14.941
0.936,0.6608,60.626,0.63832,0.37059,0.32353,0.52941,14.628
0.944,0.65005,60.821,0.63832,0.34902,0.33922,0.53922,14.315
0.952,0.64027,61.408,0.63832,0.34902,0.34902,0.5451,14.081
0.96,0.62952,62.19,0.63734,0.3451,0.37451,0.5549,13.807
0.968,0.61877,62.973,0.63734,0.33529,0.38431,0.57059,13.651
0.976,0.60899,63.95,0.63832,0.31961,0.38431,0.57451,13.455
0.984,0.59922,64.733,0.63832,0.31373,0.38039,0.57451,13.377
0.992,0.59042,65.515,0.63734,0.3098,0.38431,0.58039,13.259
1,0.58162,66.102,0.63539,0.3098,0.3902,0.58039,13.259
1.008,0.57283,66.493,0.63245,0.29412,0.43922,0.5902,13.259
1.016,0.56305,66.493,0.62952,0.2549,0.56078,0.60588,13.377
1.024,0.55327,66.493,0.62659,0.31961,0.56471,0.5549,13.69
1.032,0.5435,66.102,0.62268,0.6,0.19412,0.37451,14.198
1.04,0.53275,65.711,0.61877,0.84118,-0.32157,0.21961,14.902
1.048,0.52199,64.928,0.61486,0.98235,-0.50196,0.17451,15.841
1.056,0.51124,64.342,0.61095,0.74118,-0.50196,0.37451,16.701
1.064,0.49951,63.559,0.60802,0.47451,-0.18235,0.5451,17.405
1.072,0.48876,62.777,0.60313,0.37059,0.10392,0.58431,17.718
1.08,0.47801,61.799,0.59726,0.31961,0.3098,0.59608,17.718
1.088,0.46725,61.017,0.59238,0.29412,0.41569,0.6,17.562
1.096,0.45748,60.235,0.58847,0.28431,0.4549,0.6,17.405
1.104,0.4477,59.452,0.58456,0.27843,0.46471,0.6,17.249
1.112,0.43793,58.67,0.57967,0.27451,0.48039,0.6,17.249
1.12,0.42815,57.888,0.57283,0.26863,0.48039,0.6,17.327
1.128,0.4174,57.106,0.56598,0.27451,0.48039,0.6,17.405
1.136,0.40762,56.519,0.55816,0.27451,0.47451,0.6,17.523
1.144,0.39883,55.932,0.55132,0.27843,0.48039,0.6,17.562
1.152,0.39003,55.346,0.54448,0.27843,0.47059,0.59608,17.562
1.16,0.38221,54.954,0.53861,0.28431,0.47451,0.59608,17.64
1.168,0.37439,54.563,0.53177,0.28431,0.46078,0.59608,17.718
1.176,0.36657,54.172,0.52493,0.29412,0.46078,0.59608,17.836
1.184,0.35875,53.781,0.51808,0.30392,0.46078,0.58039,18.031
1.192,0.35093,53.585,0.51124,0.30392,0.46078,0.58431,18.266
1.2,0.34311,53.194,0.5044,0.30392,0.4549,0.57451,18.657
1.208,0.33529,52.803,0.49756,0.3098,0.44902,0.58039,19.126
1.216,0.32747,52.608,0.49169,0.31373,0.4549,0.57451,19.635
1.224,0.31965,52.216,0.48583,0.32353,0.4451,0.57451,19.909
1.232,0.31183,52.021,0.48192,0.32353,0.43922,0.57059,19.713
1.24,0.30596,51.825,0.47996,0.32353,0.43529,0.56471,19.087
1.248,0.29912,51.63,0.47898,0.32353,0.43529,0.56471,18.188
1.256,0.29326,51.239,0.47898,0.33922,0.42941,0.56471,17.249
1.264,0.28739,50.847,0.47898,0.3451,0.43529,0.5549,16.506
1.272,0.28152,50.652,0.47898,0.34902,0.42941,0.5549,15.997
1.28,0.27566,50.652,0.47898,0.34902,0.42941,0.5451,15.645
1.288,0.26979,51.63,0.47898,0.3549,0.41961,0.53922,15.372
1.296,0.26393,54.563,0.47898,0.36471,0.41961,0.52941,15.059
1.304,0.25806,60.626,0.47801,0.37451,0.4098,0.52549,14.707
1.312,0.25318,70.404,0.47507,0.38431,0.4098,0.51961,14.315
1.32,0.24829,82.334,0.47019,0.4,0.4,0.51569,13.963
1.328,0.24438,94.655,0.46432,0.4098,0.39412,0.50588,13.651
1.336,0.23949,105.61,0.45846,0.41961,0.3902,0.5,13.455
1.344,0.23558,114.6,0.45357,0.43529,0.38431,0.49412,13.338
1.352,0.23069,121.06,0.45064,0.4451,0.37451,0.48039,13.181
1.36,0.22581,125.16,0.44868,0.4451,0.37451,0.48039,13.142
1.368,0.22092,126.92,0.44673,0.4451,0.38039,0.48431,13.064
1.376,0.21603,126.14,0.44575,0.42941,0.3902,0.5,13.025
1.384,0.20919,123.6,0.44477,0.41961,0.39412,0.50588,13.025
1.392,0.20332,119.69,0.44477,0.4098,0.4,0.51569,13.064
1.4,0.19746,115.58,0.44477,0.4,0.3902,0.51961,13.142
1.408,0.19159,111.67,0.44477,0.3902,0.3902,0.52941,13.377
1.416,0.18573,108.15,0.44575,0.38431,0.38431,0.52941,13.69
1.424,0.17986,105.22,0.44673,0.37451,0.38431,0.53529,14.12
1.432,0.17204,102.67,0.44673,0.37451,0.38039,0.53922,14.707
1.44,0.1652,100.72,0.44575,0.37059,0.37451,0.5451,15.254
1.448,0.1564,99.153,0.44379,0.36471,0.37059,0.53922,15.88
1.456,0.14858,97.979,0.44086,0.36471,0.37451,0.5451,16.467
1.464,0.13978,97.197,0.43793,0.36471,0.37059,0.55098,16.936
1.472,0.13196,96.415,0.43597,0.3549,0.37059,0.5549,17.327
1.48,0.12414,96.024,0.43402,0.3549,0.37059,0.5549,17.718
1.488,0.11535,95.437,0.43109,0.3549,0.37059,0.5549,18.07
1.496,0.10655,95.046,0.42815,0.3549,0.38039,0.5549,18.462
1.504,0.097752,94.655,0.42424,0.34902,0.37451,0.5549,18.696
1.512,0.086999,94.263,0.42131,0.34902,0.38039,0.5549,18.814
1.52,0.077224,93.481,0.41838,0.34902,0.38039,0.55098,18.97
1.528,0.066471,92.894,0.41544,0.34902,0.38431,0.5549,19.009
1.536,0.056696,91.917,0.41544,0.3451,0.38039,0.55098,19.126
1.544,0.046921,90.548,0.41642,0.34902,0.38431,0.5549,19.322
1.552,0.037146,88.983,0.42033,0.34902,0.38039,0.55098,19.596
1.56,0.029326,87.223,0.42717,0.34902,0.38431,0.5549,19.635
1.568,0.021505,84.876,0.435,0.3549,0.38039,0.5451,19.635
1.576,0.014663,82.334,0.44575,0.34902,0.38431,0.5549,19.596
1.584,0.0087977,79.4,0.46041,0.34902,0.38039,0.55098,19.4
1.592,0.0039101,76.271,0.47801,0.34902,0.38431,0.5549,19.205
1.6,0,73.142,0.4956,0.3549,0.3902,0.53922,18.814
1.608,0,70.013,0.51613,0.36471,0.3902,0.53922,18.266
1.616,0,67.275,0.53861,0.38039,0.3902,0.52941,17.562
1.624,0,65.124,0.55816,0.39412,0.4098,0.52941,16.936
1.632,0,63.364,0.57576,0.4,0.41569,0.52549,16.389
1.64,0,62.19,0.59335,0.40392,0.36471,0.51961,15.841
1.648,0,61.408,0.60899,0.40392,0.33529,0.51569,15.372
1.656,0,60.821,0.62072,0.40392,0.32353,0.52549,14.902
1.664,0,60.43,0.62757,0.39412,0.32353,0.52549,14.433
1.672,0,60.43,0.63245,0.38431,0.32941,0.52549,14.081
1.68,0,60.43,0.63441,0.37451,0.33922,0.52549,13.768
1.688,0,60.821,0.63441,0.37059,0.34902,0.52941,13.494
1.696,0,61.408,0.63148,0.3549,0.37059,0.55098,13.259
1.704,0,61.995,0.62757,0.33922,0.38431,0.5549,13.142
1.712,0,62.777,0.62366,0.32353,0.3902,0.57059,13.025
1.72,0.0029325,63.559,0.62072,0.32353,0.3902,0.57451,12.947
1.728,0.0058651,64.342,0.61779,0.32353,0.3902,0.57451,12.907
1.736,0.0087977,64.733,0.61388,0.31961,0.38431,0.57451,12.907
1.744,0.012708,65.319,0.61095,0.30392,0.41569,0.57451,13.025
1.752,0.01564,65.515,0.60704,0.25882,0.53922,0.6,13.259
1.76,0.01955,65.515,0.60411,0.29412,0.56471,0.57059,13.572
1.768,0.024438,65.319,0.60117,0.53529,0.31373,0.41569,14.081
1.776,0.028348,64.928,0.59726,0.80588,-0.26667,0.23333,14.707
1.784,0.032258,64.537,0.59433,0.98235,-0.50196,0.1549,15.528
1.792,0.036168,63.95,0.5914,0.81569,-0.50196,0.3098,16.31
1.8,0.040078,63.168,0.58065,0.51569,-0.26667,0.51961,17.014
1.808,0.043988,62.582,0.56598,0.38431,0.043137,0.57451,17.405
1.816,0.046921,61.799,0.55621,0.32353,0.27843,0.58431,17.523
1.824,0.050831,61.017,0.54839,0.30392,0.4,0.5902,17.405
1.832,0.053763,60.039,0.54154,0.29412,0.4451,0.59608,17.249
1.84,0.057674,59.452,0.53372,0.27843,0.46471,0.5902,17.132
1.848,0.060606,58.67,0.5259,0.27843,0.47451,0.59608,17.132
1.856,0.062561,57.888,0.52004,0.27843,0.48039,0.6,17.21
1.864,0.064516,57.301,0.51417,0.27843,0.48039,0.6,17.327
1.872,0.067449,56.715,0.50831,0.27843,0.48039,0.6,17.405
1.88,0.068426,56.128,0.50244,0.2902,0.47451,0.59608,17.445
1.888,0.070381,55.737,0.49658,0.2902,0.46471,0.59608,17.562
1.896,0.072336,55.346,0.48974,0.2902,0.46078,0.5902,17.64
1.904,0.073314,54.759,0.48289,0.3,0.46078,0.5902,17.757
1.912,0.075269,54.368,0.47605,0.29412,0.46078,0.58431,17.953
1.92,0.076246,53.781,0.46921,0.3,0.46078,0.58431,18.149
1.928,0.077224,53.585,0.46237,0.30392,0.46078,0.58039,18.462
1.936,0.078201,53.194,0.4565,0.30392,0.4549,0.57451,18.814
1.944,0.079179,52.803,0.45161,0.30392,0.44902,0.58039,19.322
1.952,0.081134,52.608,0.4477,0.3098,0.44902,0.57451,19.713
1.96,0.082111,52.216,0.44575,0.3098,0.44902,0.57451,19.948
1.968,0.084066,52.021,0.44477,0.32353,0.4451,0.57059,19.83
1.976,0.085044,51.63,0.44379,0.32353,0.4451,0.56471,19.205
1.984,0.086999,51.239,0.44379,0.32353,0.43529,0.56078,18.344
1.992,0.087977,51.043,0.44379,0.32353,0.43922,0.56078,17.405
2,0.088954,50.652,0.44379,0.33922,0.42941,0.5549,16.584
2.008,0.090909,50.456,0.44379,0.3451,0.42941,0.5549,15.997
2.016,0.092864,50.261,0.44184,0.34902,0.43529,0.5549,15.567
2.024,0.094819,50.847,0.43793,0.3549,0.42941,0.55098,15.215
2.032,0.097752,53.39,0.43304,0.36471,0.42549,0.53922,14.902
2.04,0.099707,58.67,0.43011,0.37451,0.41961,0.53529,14.511
2.048,0.10264,67.666,0.42717,0.38431,0.41569,0.52549,14.12
2.056,0.10459,79.4,0.4262,0.4,0.4098,0.51569,13.69
2.064,0.10753,91.721,0.42522,0.40392,0.40392,0.50588,13.338
2.072,0.10948,102.87,0.42424,0.41961,0.4,0.5,13.025
2.08,0.11144,112.06,0.42326,0.42941,0.38431,0.48431,12.829
2.088,0.11339,119.1,0.42131,0.4451,0.38039,0.48039,12.712
2.096,0.11632,123.6,0.41935,0.4451,0.38039,0.48039,12.712
2.104,0.1173,125.75,0.41642,0.44902,0.38431,0.48431,12.712
2.112,0.11926,125.75,0.41349,0.43529,0.3902,0.49412,12.751
2.12,0.12023,123.6,0.41056,0.41961,0.4,0.5,12.829
2.128,0.12121,120.08,0.40762,0.4098,0.4,0.50588,12.907
2.136,0.12121,115.97,0.40567,0.4,0.39412,0.51569,13.064
2.144,0.12219,111.86,0.40371,0.39412,0.39412,0.52549,13.338
2.152,0.12121,108.34,0.40371,0.38431,0.3902,0.52549,13.651
2.16,0.12121,105.22,0.40371,0.37451,0.38431,0.52941,14.12
2.168,0.11926,102.67,0.40567,0.37451,0.38039,0.52941,14.628
2.176,0.11828,100.72,0.40665,0.37451,0.37451,0.52941,15.215
2.184,0.11535,99.153,0.40665,0.37451,0.37451,0.53529,15.763
2.192,0.11339,98.175,0.40567,0.37451,0.38039,0.5451,16.271
2.2,0.11144,97.393,0.40371,0.37059,0.37451,0.5451,16.78
2.208,0.10948,96.806,0.40078,0.35882,0.37451,0.5549,17.249
2.216,0.10655,96.415,0.39785,0.35882,0.37451,0.55098,17.757
2.224,0.10459,96.024,0.39492,0.3549,0.37451,0.5549,18.149
2.232,0.10166,95.632,0.39198,0.34902,0.38039,0.5549,18.383
2.24,0.098729,95.241,0.38905,0.34902,0.38039,0.5549,18.579
2.248,0.095797,94.85,0.38514,0.34902,0.38431,0.5549,18.657
2.256,0.092864,94.263,0.38319,0.34902,0.38431,0.5549,18.696
2.264,0.090909,93.481,0.38123,0.34902,0.38431,0.55098,18.774
2.272,0.088954,92.308,0.38025,0.34902,0.38039,0.55098,18.892
2.28,0.087977,90.939,0.38123,0.34902,0.38431,0.5451,19.087
2.288,0.086999,89.374,0.38319,0.3549,0.38039,0.55098,19.322
2.296,0.086022,87.419,0.3871,0.34902,0.38431,0.5549,19.439
2.304,0.085044,85.267,0.39394,0.34902,0.38039,0.55098,19.518
2.312,0.084066,82.725,0.40567,0.34902,0.38039,0.5549,19.439
2.32,0.083089,79.791,0.41935,0.34902,0.37451,0.5549,19.205
2.328,0.083089,76.467,0.43793,0.34902,0.38039,0.5549,18.892
2.336,0.082111,73.338,0.45943,0.3549,0.38039,0.55098,18.579
2.344,0.083089,70.209,0.48289,0.36471,0.3902,0.53922,18.07
2.352,0.083089,67.275,0.50635,0.38039,0.39412,0.52941,17.64
2.36,0.084066,64.928,0.52493,0.4,0.41569,0.52941,17.132
2.368,0.085044,62.973,0.53959,0.40392,0.40392,0.52549,16.623
2.376,0.086022,61.604,0.55327,0.4098,0.3549,0.51961,16.193
2.384,0.087977,60.821,0.56403,0.4098,0.32941,0.5098,15.684
2.392,0.089932,60.235,0.57185,0.4,0.32353,0.51961,15.137
2.4,0.091887,60.039,0.57674,0.3902,0.31961,0.51961,14.628
2.408,0.094819,59.844,0.58162,0.38039,0.32353,0.52549,14.198
2.416,0.097752,60.039,0.58456,0.36471,0.33529,0.52549,13.807
2.424,0.10068,60.43,0.58456,0.3549,0.3549,0.53922,13.494
2.432,0.10362,61.017,0.58358,0.34902,0.37059,0.5451,13.338
2.44,0.10655,61.799,0.58162,0.33529,0.38039,0.56078,13.142
2.448,0.11046,62.582,0.57869,0.32353,0.38431,0.57059,12.947
2.456,0.11339,63.559,0.57576,0.31961,0.38431,0.57451,12.829
2.464,0.1173,64.342,0.57478,0.31373,0.38039,0.57451,12.751
2.472,0.12121,64.928,0.5738,0.31961,0.38039,0.57451,12.829
2.48,0.12512,65.319,0.57185,0.3,0.41961,0.57451,12.947
2.488,0.12903,65.515,0.56891,0.2549,0.55098,0.6,13.181
2.496,0.13392,65.515,0.56696,0.30392,0.56078,0.55098,13.651
2.504,0.13783,65.319,0.56403,0.57059,0.24902,0.3902,14.198
2.512,0.14272,64.928,0.56012,0.83137,-0.33333,0.21373,14.941
2.52,0.14663,64.537,0.55621,0.98627,-0.50196,0.15882,15.763
2.528,0.15054,63.95,0.5523,0.77647,-0.50196,0.33529,16.506
2.536,0.15347,63.168,0.54839,0.4902,-0.22745,0.52941,17.014
2.544,0.15738,62.582,0.54545,0.38039,0.07451,0.57451,17.249
2.552,0.16031,61.799,0.54154,0.32353,0.3,0.58431,17.327
2.56,0.16325,61.017,0.53861,0.30392,0.41569,0.5902,17.21
2.568,0.1652,60.235,0.53568,0.29412,0.4549,0.58431,17.093
2.576,0.16716,59.648,0.53275,0.28431,0.47451,0.5902,17.014
2.584,0.16911,58.866,0.52884,0.28431,0.48039,0.5902,17.093
2.592,0.17204,58.279,0.52297,0.27843,0.48431,0.59608,17.21
2.6,0.17302,57.497,0.51808,0.27843,0.48039,0.5902,17.249
2.608,0.17498,56.91,0.51222,0.28431,0.48039,0.58431,17.405
2.616,0.17595,56.323,0.50538,0.2902,0.48039,0.58039,17.445
2.624,0.17595,55.932,0.49853,0.2902,0.48039,0.58431,17.562
2.632,0.17595,55.346,0.49071,0.29412,0.48039,0.57451,17.718
2.64,0.17498,54.954,0.48289,0.29412,0.47451,0.58039,17.875
2.648,0.17498,54.563,0.47507,0.3,0.47451,0.57451,18.031
2.656,0.174,53.977,0.46921,0.3,0.46471,0.57451,18.266
2.664,0.174,53.781,0.46237,0.3,0.47059,0.57059,18.579
2.672,0.17302,53.39,0.45552,0.3098,0.46471,0.57059,18.97
2.68,0.17302,52.999,0.44966,0.3098,0.46078,0.57451,19.4
2.688,0.17204,52.608,0.44282,0.31373,0.46078,0.57059,19.752
2.696,0.17204,52.412,0.43695,0.31961,0.4549,0.57451,19.948
2.704,0.17302,52.216,0.43206,0.32353,0.44902,0.56471,19.752
2.712,0.17302,51.825,0.42815,0.32941,0.4451,0.5549,19.126
2.72,0.174,51.63,0.4262,0.33529,0.4451,0.5549,18.188
2.728,0.17595,51.239,0.42522,0.33529,0.4451,0.5549,17.327
2.736,0.17693,50.847,0.42522,0.34902,0.43529,0.55098,16.506
2.744,0.17889,50.652,0.42424,0.34902,0.43922,0.5451,15.958
2.752,0.17986,50.652,0.42326,0.34902,0.43529,0.53922,15.528
2.76,0.18182,51.434,0.42424,0.35882,0.43922,0.52941,15.215
2.768,0.1828,54.172,0.42424,0.37451,0.42549,0.52549,14.902
2.776,0.18573,60.039,0.42424,0.38039,0.42549,0.51961,14.628
2.784,0.18866,69.231,0.42424,0.39412,0.41569,0.5098,14.198
2.792,0.19257,80.769,0.42424,0.4,0.4098,0.50588,13.69
2.8,0.19648,92.894,0.42424,0.41961,0.39412,0.49412,13.181
2.808,0.20039,103.65,0.42229,0.42549,0.3902,0.4902,12.829
2.816,0.2043,112.45,0.42131,0.43922,0.38039,0.48039,12.595
2.824,0.20723,118.9,0.42131,0.4451,0.37451,0.48039,12.516
2.832,0.21114,123.4,0.42131,0.4549,0.37451,0.48039,12.438
2.84,0.21408,125.36,0.42229,0.4451,0.38039,0.48431,12.516
2.848,0.21701,124.97,0.42326,0.43922,0.3902,0.48431,12.595
2.856,0.21896,123.01,0.42424,0.42941,0.3902,0.49412,12.712
2.864,0.22092,119.69,0.42326,0.41961,0.38431,0.50588,12.829
2.872,0.22092,115.78,0.42229,0.4098,0.38431,0.51569,13.025
2.88,0.2219,111.67,0.42131,0.4,0.38431,0.51569,13.259
2.888,0.22092,107.95,0.41935,0.4,0.37451,0.52549,13.572
2.896,0.22092,104.82,0.4174,0.4,0.37059,0.52941,14.003
2.904,0.21896,102.28,0.41642,0.39412,0.36471,0.52549,14.589
2.912,0.21799,100.33,0.41544,0.38431,0.36471,0.52941,15.215
2.92,0.21603,98.761,0.41447,0.38431,0.36471,0.52941,15.841
2.928,0.21408,97.588,0.41349,0.38431,0.36471,0.52941,16.389
2.936,0.21114,96.806,0.41251,0.38039,0.36471,0.52941,16.936
2.944,0.20821,96.219,0.40958,0.38039,0.36471,0.52941,17.445
2.952,0.2043,96.024,0.40762,0.38039,0.36471,0.53529,17.953
2.96,0.20039,95.632,0.40469,0.37451,0.36471,0.53922,18.344
2.968,0.19648,95.437,0.40274,0.37451,0.37059,0.52941,18.579
2.976,0.19159,95.046,0.40078,0.37451,0.38431,0.53529,18.696
2.984,0.18768,94.655,0.39785,0.37451,0.38039,0.52941,18.774
2.992,0.1828,93.872,0.39589,0.37451,0.3902,0.52941,18.774
3,0.17889,93.09,0.39589,0.37059,0.3902,0.52941,18.892
3.008,0.174,91.917,0.39687,0.35882,0.39412,0.53922,19.087
3.016,0.17009,90.548,0.39883,0.35882,0.3902,0.53529,19.322
3.024,0.16618,88.983,0.40176,0.35882,0.3902,0.53922,19.596
3.032,0.16227,87.027,0.40567,0.35882,0.3902,0.53529,19.713
3.04,0.15934,84.876,0.41153,0.35882,0.3902,0.53922,19.713
3.048,0.15543,82.334,0.41935,0.3549,0.3902,0.5451,19.635
3.056,0.15249,79.596,0.42913,0.36471,0.3902,0.5451,19.439
3.064,0.14956,76.662,0.44184,0.36471,0.3902,0.53922,19.283
3.072,0.14761,73.533,0.45943,0.37059,0.3902,0.53922,19.009
3.08,0.14663,70.6,0.48094,0.37451,0.39412,0.52941,18.696
3.088,0.14467,67.666,0.50342,0.3902,0.4,0.52941,18.266
3.096,0.14467,65.515,0.5259,0.4,0.41961,0.51961,17.836
3.104,0.14467,63.95,0.54741,0.41569,0.42549,0.51961,17.327
3.112,0.14663,62.777,0.56598,0.41569,0.38039,0.50588,16.819
3.12,0.14761,61.995,0.58065,0.41961,0.34902,0.50588,16.31
3.128,0.15152,61.408,0.5914,0.41961,0.33922,0.50588,15.763
3.136,0.15543,61.213,0.59922,0.4098,0.33922,0.50588,15.254
3.144,0.16129,61.213,0.60411,0.4,0.33922,0.51569,14.824
3.152,0.16716,61.408,0.60802,0.38431,0.33529,0.5098,14.433
3.16,0.174,61.604,0.60899,0.38039,0.3549,0.51961,14.198
3.168,0.18182,62.386,0.60802,0.37451,0.37059,0.52941,14.003
3.176,0.19062,62.973,0.60606,0.34902,0.38431,0.55098,13.807
3.184,0.20039,63.755,0.60411,0.3451,0.3902,0.5549,13.69
3.192,0.21505,64.537,0.60117,0.32941,0.3902,0.56078,13.572
3.2,0.22972,64.928,0.59824,0.32941,0.39412,0.5549,13.455
3.208,0.24829,65.515,0.59531,0.32941,0.39412,0.56078,13.377
3.216,0.26784,65.906,0.5914,0.31961,0.42549,0.56471,13.455
3.224,0.28739,65.906,0.58847,0.26863,0.55098,0.5902,13.651
3.232,0.30792,65.906,0.58553,0.31373,0.57059,0.55098,13.963
3.24,0.32845,65.711,0.5826,0.5549,0.3098,0.4,14.394
3.248,0.34995,65.319,0.57967,0.84118,-0.26275,0.21373,15.059
3.256,0.37439,64.733,0.57576,1.0118,-0.50196,0.14902,15.841
3.264,0.39883,64.146,0.57283,0.83529,-0.50196,0.3,16.701
3.272,0.42717,63.559,0.56989,0.53529,-0.21765,0.50588,17.445
3.28,0.45552,62.777,0.56696,0.41569,0.068627,0.5549,17.953
3.288,0.48485,62.19,0.56403,0.35882,0.29412,0.56078,18.188
3.296,0.51417,61.408,0.56012,0.32353,0.41569,0.56471,18.149
3.304,0.54448,60.626,0.55718,0.31373,0.4549,0.57059,17.953
3.312,0.5738,59.844,0.55327,0.31373,0.47451,0.56078,17.836
3.32,0.60117,59.257,0.54741,0.3098,0.48039,0.56471,17.718
3.328,0.62757,58.475,0.53959,0.30392,0.48431,0.57059,17.718
3.336,0.652,57.888,0.53275,0.30392,0.48431,0.56471,17.757
3.344,0.67546,57.301,0.52493,0.30392,0.48039,0.56471,17.875
3.352,0.69795,56.715,0.51906,0.3098,0.48039,0.56078,18.031
3.36,0.72043,56.323,0.5132,0.31373,0.48039,0.56471,18.07
3.368,0.74194,55.737,0.50831,0.31961,0.47059,0.5549,18.188
3.376,0.76344,55.346,0.50244,0.31961,0.47059,0.56078,18.266
3.384,0.78201,54.954,0.4956,0.32353,0.46471,0.55098,18.383
3.392,0.80059,54.563,0.48778,0.33529,0.46078,0.55098,18.657
3.4,0.81623,54.172,0.48094,0.33529,0.46078,0.55098,18.892
3.408,0.83284,53.781,0.47507,0.33922,0.46078,0.55098,19.283
3.416,0.84946,53.39,0.46823,0.33922,0.4549,0.5451,19.713
3.424,0.8651,53.194,0.46237,0.3451,0.44902,0.55098,20.222
3.432,0.88074,52.803,0.45552,0.3451,0.44902,0.5451,20.574
3.44,0.89736,52.608,0.45161,0.34902,0.4451,0.5451,20.652
3.448,0.913,52.216,0.4477,0.35882,0.43922,0.53529,20.339
3.456,0.92864,52.021,0.44379,0.36471,0.43922,0.53922,19.752
3.464,0.9433,51.825,0.44184,0.37059,0.43529,0.52941,19.009
3.472,0.95797,51.434,0.44086,0.37451,0.43922,0.52941,18.266
3.48,0.97067,51.239,0.44086,0.37451,0.43529,0.52549,17.718
3.488,0.98338,51.239,0.43988,0.38431,0.43529,0.51961,17.21
3.496,0.99218,52.021,0.43988,0.3902,0.43529,0.51569,16.819
3.504,1,54.954,0.43988,0.4,0.42941,0.50588,16.389
3.512,1,61.017,0.43891,0.4098,0.42549,0.5,15.997
3.52,1,70.6,0.43597,0.41961,0.41961,0.49412,15.567
3.528,1,82.529,0.435,0.42549,0.41961,0.48431,15.137
3.536,1,94.85,0.43304,0.4451,0.4098,0.48039,14.707
3.544,1,105.8,0.42913,0.44902,0.4,0.47059,14.394
3.552,1,114.8,0.42717,0.46078,0.3902,0.46471,14.198
3.56,1,121.45,0.4262,0.47059,0.38431,0.46078,14.003
3.568,1,125.75,0.42522,0.47451,0.38039,0.46078,13.885
3.576,1,127.71,0.42424,0.47059,0.3902,0.46078,13.807
3.584,1,127.12,0.42424,0.46471,0.39412,0.46471,13.807
3.592,1,124.58,0.42424,0.44902,0.4,0.47451,13.807
3.6,1,120.86,0.42424,0.4451,0.4,0.48039,13.807
3.608,1,116.56,0.42424,0.42941,0.40392,0.49412,13.885
3.616,1,112.26,0.42424,0.41961,0.3902,0.5,13.885
3.624,1,108.54,0.42424,0.41569,0.3902,0.50588,14.003
3.632,1,105.41,0.42229,0.41569,0.38431,0.50588,14.276
3.64,1,102.87,0.41935,0.40392,0.38431,0.5098,14.589
3.648,1,101.11,0.41642,0.40392,0.38039,0.5098,15.02
3.656,1,100.13,0.41447,0.40392,0.38039,0.51569,15.567
3.664,1,99.348,0.41251,0.4,0.38039,0.52549,16.154
3.672,1,98.761,0.41056,0.39412,0.37451,0.52549,16.78
3.68,1,98.175,0.40762,0.3902,0.38039,0.52941,17.405
3.688,1,97.979,0.40469,0.3902,0.38431,0.52549,17.953
3.696,1,97.588,0.40469,0.38431,0.3902,0.52941,18.383
3.704,1,97.001,0.40567,0.38431,0.38431,0.52941,18.696
3.712,1,96.61,0.40567,0.38431,0.3902,0.53529,18.892
3.72,1,96.024,0.40469,0.38039,0.38431,0.52941,19.087
3.728,1,95.241,0.40274,0.37451,0.3902,0.53529,19.205
3.736,1,94.263,0.40078,0.38039,0.38039,0.52941,19.322
3.744,1,93.09,0.39785,0.37451,0.38431,0.53529,19.518
3.752,1,91.721,0.39589,0.37451,0.38039,0.52941,19.713
3.76,1,90.157,0.39492,0.37451,0.37451,0.53529,19.909
3.768,1,88.201,0.39589,0.37451,0.37451,0.52941,20.065
3.776,1,86.05,0.40078,0.37451,0.38039,0.53529,20.143
3.784,1,83.507,0.41056,0.37451,0.38039,0.52941,20.065
3.792,1,80.574,0.42424,0.37059,0.38039,0.53922,20.065
3.8,1,77.445,0.44379,0.37059,0.37451,0.53922,19.948
3.808,1,74.316,0.4653,0.37059,0.38039,0.53922,19.83
3.816,1,71.186,0.48876,0.37059,0.38431,0.53529,19.635
3.824,1,68.449,0.51222,0.37451,0.38431,0.53529,19.283
3.832,1,65.906,0.5347,0.39412,0.3902,0.52941,18.892
3.84,1,63.95,0.55523,0.40392,0.4,0.52549,18.383
3.848,1,62.582,0.57283,0.41569,0.37059,0.51569,17.875
3.856,1,61.604,0.58651,0.41961,0.33922,0.51569,17.327
3.864,1,61.017,0.59531,0.42549,0.32353,0.50588,16.701
3.872,1,60.626,0.60411,0.41569,0.31961,0.5098,16.076
3.88,1,60.43,0.60899,0.4,0.32353,0.51569,15.45
3.888,1,60.43,0.61193,0.38431,0.31373,0.50588,14.902
3.896,1,60.821,0.61388,0.37451,0.32941,0.51961,14.433
3.904,1,61.408,0.61388,0.37451,0.3549,0.52941,14.12
3.912,1,62.19,0.61193,0.3549,0.37451,0.55098,13.885
3.92,1,62.973,0.60997,0.3451,0.37451,0.5549,13.69
3.928,1,63.755,0.60704,0.33529,0.38431,0.56078,13.572
3.936,1,64.537,0.60508,0.32941,0.38431,0.56471,13.455
3.944,1,65.124,0.60215,0.32353,0.3902,0.57059,13.377
3.952,1,65.515,0.59922,0.31373,0.4,0.57059,13.455
3.96,1,65.711,0.59726,0.26863,0.5098,0.59608,13.572
3.968,1,65.906,0.59629,0.2549,0.56078,0.57451,13.807
3.976,1,65.711,0.59629,0.46471,0.42549,0.4549,14.198
3.984,1,65.319,0.59726,0.77059,-0.13137,0.26471,14.824
3.992,1,64.733,0.6002,0.97059,-0.50196,0.16863,15.528
4,1,64.342,0.60117,0.99608,-0.50196,0.2549,16.31
4.008,1,63.755,0.60215,0.57059,-0.29804,0.49412,17.014
4.016,1,62.973,0.60215,0.4098,0.0078431,0.57059,17.523
4.024,1,62.386,0.6002,0.3451,0.2549,0.5902,17.836
4.032,1,61.604,0.59824,0.3098,0.3902,0.58431,17.875
4.04,1,61.017,0.59531,0.2902,0.4451,0.6,17.836
4.048,1,60.235,0.58944,0.28431,0.46471,0.6,17.757
4.056,1,59.452,0.58358,0.28431,0.47451,0.6,17.757
4.064,1,58.866,0.57674,0.28431,0.48039,0.59608,17.757
4.072,1,58.083,0.56891,0.27843,0.48039,0.6,17.836
4.08,1,57.497,0.56012,0.27843,0.48039,0.6,17.875
4.088,1,56.91,0.55034,0.27451,0.48039,0.6,17.875
4.096,1,56.519,0.54057,0.27843,0.48039,0.6,17.953
4.104,1,55.932,0.53079,0.27843,0.47451,0.6,18.031
4.112,1,55.541,0.52395,0.27843,0.47059,0.6,18.031
4.12,0.99804,55.346,0.51711,0.28431,0.46471,0.59608,18.07
4.128,0.99511,54.954,0.51124,0.28431,0.46471,0.6,18.188
4.136,0.97947,54.563,0.50635,0.2902,0.46078,0.6,18.383
4.144,0.96383,54.172,0.50147,0.2902,0.46078,0.59608,18.657
4.152,0.95015,53.781,0.49756,0.30392,0.46078,0.5902,19.009
4.16,0.93646,53.39,0.49462,0.30392,0.46078,0.59608,19.439
4.168,0.92375,52.999,0.49267,0.30392,0.46078,0.5902,19.752
4.176,0.91105,52.803,0.49071,0.3098,0.44902,0.58039,19.752
4.184,0.90127,52.412,0.48876,0.3098,0.43922,0.57451,19.4
4.192,0.8915,52.021,0.48778,0.31373,0.43922,0.58039,18.696
4.2,0.88368,51.63,0.4868,0.32353,0.4451,0.57451,17.875
4.208,0.87586,51.239,0.4868,0.32353,0.43922,0.57451,17.132
4.216,0.86999,50.847,0.4868,0.32941,0.4451,0.56471,16.584
4.224,0.8651,50.652,0.4868,0.32941,0.43529,0.57059,16.193
4.232,0.86119,51.043,0.4868,0.3451,0.43529,0.5549,15.958
4.24,0.85826,53.194,0.4868,0.34902,0.42941,0.5549,15.684
4.248,0.85533,58.083,0.4868,0.3549,0.42549,0.55098,15.372
4.256,0.85337,66.884,0.4868,0.36471,0.41961,0.5451,14.941
4.264,0.85044,78.422,0.48583,0.37451,0.4098,0.52941,14.511
4.272,0.84848,90.939,0.48289,0.38431,0.4098,0.52941,14.12
4.28,0.84653,102.67,0.48192,0.4,0.39412,0.51961,13.807
4.288,0.84457,112.06,0.48094,0.4098,0.3902,0.5098,13.572
4.296,0.84262,119.3,0.47898,0.41961,0.38039,0.50588,13.455
4.304,0.83969,123.99,0.47605,0.42549,0.38039,0.5,13.377
4.312,0.8348,126.53,0.47312,0.42549,0.38039,0.50588,13.338
4.32,0.82991,126.53,0.47019,0.41961,0.3902,0.5098,13.259
4.328,0.82209,124.38,0.46628,0.4098,0.3902,0.51961,13.181
4.336,0.81525,121.06,0.46139,0.4,0.3902,0.52549,13.181
4.344,0.80743,116.95,0.45748,0.38431,0.39412,0.52941,13.142
4.352,0.79961,112.84,0.45357,0.38039,0.3902,0.53529,13.181
4.36,0.79081,109.13,0.45064,0.37451,0.3902,0.5451,13.377
4.368,0.78201,105.8,0.4477,0.36471,0.3902,0.5451,13.651
4.376,0.77028,103.06,0.44477,0.35882,0.3902,0.5549,14.081
4.384,0.75758,100.91,0.44184,0.36471,0.38431,0.5549,14.589
4.392,0.74291,99.348,0.43988,0.3549,0.38431,0.56078,15.215
4.4,0.72727,98.175,0.43793,0.34902,0.37451,0.5549,15.88
4.408,0.70968,97.393,0.435,0.34902,0.38431,0.5549,16.584
4.416,0.69208,97.001,0.43304,0.34902,0.38039,0.56078,17.093
4.424,0.67253,96.61,0.43011,0.34902,0.38431,0.56078,17.523
4.432,0.65396,96.219,0.42522,0.34902,0.38431,0.56078,17.875
4.44,0.63539,95.828,0.42033,0.3451,0.38431,0.56471,18.149
4.448,0.61779,95.437,0.41642,0.3451,0.38431,0.57059,18.344
4.456,0.6002,95.046,0.41349,0.33529,0.38431,0.56471,18.501
4.464,0.58358,94.459,0.41153,0.33922,0.38431,0.56078,18.657
4.472,0.56598,93.677,0.40958,0.33529,0.38431,0.57059,18.814
4.48,0.54839,92.699,0.40665,0.32941,0.3902,0.56078,18.97
4.488,0.53079,91.525,0.40469,0.33922,0.3902,0.56471,19.087
4.496,0.51222,89.961,0.40371,0.33529,0.3902,0.56471,19.283
4.504,0.49658,88.201,0.40567,0.33922,0.3902,0.57059,19.4
4.512,0.48094,86.05,0.41153,0.33529,0.38431,0.57451,19.439
4.52,0.46628,83.507,0.42033,0.33529,0.3902,0.56471,19.4
4.528,0.45259,80.769,0.43402,0.33922,0.3902,0.56471,19.205
4.536,0.43891,77.64,0.45161,0.33922,0.3902,0.56471,19.009
4.544,0.42522,74.511,0.47214,0.33922,0.39412,0.57059,18.696
4.552,0.41251,71.186,0.49071,0.3451,0.4,0.56078,18.266
4.56,0.39883,68.253,0.50831,0.3549,0.4,0.5549,17.718
4.568,0.38807,65.711,0.52786,0.37451,0.4,0.55098,17.093
4.576,0.37634,63.755,0.54643,0.38039,0.41569,0.5451,16.506
4.584,0.36657,62.19,0.56403,0.3902,0.39412,0.53529,16.076
4.592,0.35679,61.213,0.57967,0.4,0.34902,0.52941,15.645
4.6,0.348,60.43,0.59238,0.4,0.32941,0.52941,15.254
4.608,0.3392,60.039,0.60215,0.39412,0.32353,0.53529,14.902
4.616,0.33138,59.844,0.60899,0.38039,0.32353,0.52941,14.433
4.624,0.32356,59.844,0.61193,0.37059,0.32941,0.52941,14.081
4.632,0.31672,60.235,0.61388,0.3549,0.33922,0.53529,13.768
4.64,0.30987,60.821,0.61388,0.34902,0.35882,0.5549,13.494
4.648,0.30401,61.604,0.61388,0.33922,0.38039,0.56471,13.338
4.656,0.29912,62.386,0.61193,0.32353,0.3902,0.57451,13.181
4.664,0.29326,63.168,0.60997,0.31961,0.3902,0.57451,13.064
4.672,0.28837,64.146,0.60704,0.31373,0.38431,0.58039,13.025
4.68,0.28446,64.733,0.60508,0.3098,0.3902,0.58431,12.947
4.688,0.28055,65.319,0.60215,0.3098,0.3902,0.58039,13.025
4.696,0.27664,65.711,0.59922,0.27843,0.4549,0.59608,13.142
4.704,0.27273,65.711,0.59726,0.24902,0.56078,0.61569,13.377
4.712,0.26882,65.711,0.59629,0.35882,0.52549,0.52941,13.807
4.72,0.26491,65.319,0.59726,0.66078,0.062745,0.33922,14.394
4.728,0.261,64.733,0.59824,0.8902,-0.44706,0.18431,15.137
4.736,0.25709,64.146,0.59824,0.97647,-0.50196,0.15882,15.958
4.744,0.25318,63.559,0.59726,0.66471,-0.46275,0.42941,16.623
4.752,0.25024,62.777,0.59531,0.43922,-0.11765,0.56471,17.132
4.76,0.24731,61.995,0.59335,0.34902,0.15882,0.5902,17.405
4.768,0.24438,61.213,0.59042,0.3098,0.33922,0.59608,17.405
4.776,0.24145,60.43,0.58651,0.2902,0.42941,0.6,17.249
4.784,0.23949,59.648,0.58162,0.27843,0.4549,0.59608,17.21
4.792,0.23558,58.866,0.5738,0.27843,0.47059,0.6,17.093
4.8,0.23265,58.083,0.56598,0.27843,0.47451,0.6,17.093
4.808,0.22874,57.301,0.55718,0.27451,0.47059,0.6,17.132
4.816,0.22483,56.715,0.54643,0.27843,0.47451,0.59608,17.21
4.824,0.2219,56.128,0.53763,0.27451,0.47451,0.6,17.249
4.832,0.21799,55.541,0.52884,0.27843,0.46471,0.5902,17.327
4.84,0.21505,54.954,0.52004,0.28431,0.46471,0.59608,17.405
4.848,0.21212,54.563,0.51222,0.2902,0.47059,0.58431,17.523
4.856,0.20821,54.172,0.50635,0.29412,0.46078,0.5902,17.757
4.864,0.20528,53.781,0.50049,0.29412,0.46078,0.58431,18.031
4.872,0.20039,53.194,0.49462,0.30392,0.46078,0.58039,18.266
4.88,0.19648,52.803,0.48974,0.30392,0.46078,0.57451,18.501
4.888,0.19257,52.608,0.48387,0.3098,0.44902,0.57451,18.696
4.896,0.18866,52.216,0.47898,0.31373,0.4549,0.57451,19.009
4.904,0.18475,52.021,0.47507,0.31961,0.4451,0.57059,19.283
4.912,0.18084,51.825,0.47214,0.31961,0.43922,0.57451,19.4
4.92,0.17791,51.434,0.46921,0.32353,0.43922,0.57059,19.087
4.928,0.17498,51.239,0.46628,0.32941,0.43529,0.56471,18.462
4.936,0.17204,50.847,0.46334,0.33922,0.43529,0.56078,17.562
4.944,0.16911,50.652,0.46139,0.33529,0.43529,0.56078,16.78
4.952,0.16618,50.261,0.45846,0.3451,0.42941,0.5549,16.076
4.96,0.16422,50.065,0.4565,0.3451,0.42941,0.55098,15.645
4.968,0.16129,50.261,0.45552,0.3549,0.42941,0.5451,15.332
4.976,0.15836,51.434,0.45455,0.35882,0.42941,0.53529,15.02
4.984,0.1564,55.15,0.45259,0.37451,0.42549,0.52941,14.746
4.992,0.15543,61.995,0.44966,0.38039,0.4098,0.51961,14.394
5,0.15347,72.164,0.44673,0.39412,0.40392,0.5098,14.003
5.008,0.15249,84.289,0.44379,0.4098,0.40392,0.50588,13.69
5.016,0.15152,96.415,0.44086,0.41961,0.39412,0.5,13.377
5.024,0.15054,106.58,0.43891,0.42941,0.39412,0.4902,13.181
5.032,0.14956,114.8,0.43695,0.4451,0.38431,0.48039,13.064
5.04,0.14956,120.67,0.43597,0.44902,0.38431,0.48039,13.025
5.048,0.14761,124.19,0.435,0.44902,0.38431,0.48039,12.947
5.056,0.14663,125.36,0.435,0.4451,0.38431,0.4902,12.907
5.064,0.14467,124.38,0.43402,0.43529,0.3902,0.4902,12.907
5.072,0.14272,121.64,0.43402,0.41961,0.3902,0.5,12.907
5.08,0.14174,117.93,0.43402,0.41569,0.3902,0.50588,12.947
5.088,0.14076,114.02,0.43304,0.4,0.38431,0.51569,13.025
5.096,0.13881,110.1,0.43206,0.39412,0.3902,0.52549,13.259
5.104,0.13783,106.58,0.43109,0.3902,0.38039,0.52549,13.572
5.112,0.1349,103.65,0.43011,0.38431,0.38039,0.52941,14.003
5.12,0.13294,101.3,0.42815,0.38431,0.37451,0.52941,14.511
5.128,0.12903,99.348,0.4262,0.38039,0.37451,0.52941,15.059
5.136,0.12512,97.979,0.42424,0.37451,0.37059,0.53529,15.645
5.144,0.12219,97.001,0.42229,0.37451,0.37059,0.53922,16.193
5.152,0.11828,96.219,0.42131,0.37059,0.36471,0.53529,16.78
5.16,0.11535,95.828,0.42131,0.36471,0.36471,0.5451,17.21
5.168,0.11144,95.437,0.42033,0.35882,0.36471,0.53922,17.64
5.176,0.10655,95.046,0.41935,0.34902,0.37059,0.55098,18.031
5.184,0.10264,94.85,0.4174,0.3549,0.37451,0.5451,18.266
5.192,0.096774,94.655,0.41544,0.34902,0.37451,0.5549,18.383
5.2,0.091887,94.068,0.41251,0.34902,0.37451,0.5549,18.462
5.208,0.086022,93.481,0.40958,0.3549,0.37451,0.5549,18.462
5.216,0.081134,92.503,0.40665,0.34902,0.38039,0.5549,18.579
5.224,0.076246,91.33,0.40469,0.34902,0.38039,0.5549,18.774
5.232,0.071359,89.961,0.40371,0.34902,0.38039,0.55098,18.97
5.24,0.067449,88.201,0.40567,0.34902,0.38431,0.55098,19.126
5.248,0.062561,86.05,0.41056,0.34902,0.38039,0.5451,19.283
5.256,0.059629,83.703,0.4174,0.34902,0.38431,0.55098,19.205
5.264,0.055718,80.965,0.4262,0.3549,0.38039,0.5451,19.087
5.272,0.053763,77.836,0.43695,0.35882,0.37451,0.55098,18.814
5.28,0.050831,74.707,0.45259,0.3549,0.38039,0.55098,18.501
5.288,0.049853,71.382,0.47116,0.35882,0.3902,0.5451,18.07
5.296,0.047898,68.449,0.49169,0.37451,0.3902,0.52941,17.562
5.304,0.046921,65.906,0.5132,0.38431,0.4,0.52941,17.014
5.312,0.045943,63.755,0.5347,0.4,0.4098,0.52549,16.506
5.32,0.045943,61.995,0.55327,0.40392,0.38431,0.51961,15.997
5.328,0.045943,61.017,0.56989,0.4098,0.33922,0.51569,15.528
5.336,0.045943,60.235,0.5826,0.40392,0.32353,0.51569,15.059
5.344,0.046921,59.844,0.59335,0.4,0.31373,0.51569,14.628
5.352,0.048876,59.452,0.6002,0.38431,0.31373,0.51961,14.276
5.36,0.050831,59.452,0.60411,0.37451,0.31961,0.51961,13.885
5.368,0.053763,59.648,0.60606,0.36471,0.32941,0.52549,13.572
5.376,0.056696,60.039,0.60508,0.35882,0.3549,0.53529,13.259
5.384,0.059629,60.821,0.60313,0.34902,0.37059,0.55098,13.025
5.392,0.063539,61.604,0.60215,0.33529,0.38039,0.56471,12.751
5.4,0.067449,62.386,0.60117,0.32353,0.38039,0.56078,12.634
5.408,0.070381,63.168,0.6002,0.32353,0.38039,0.57059,12.634
5.416,0.074291,63.755,0.59922,0.32353,0.38431,0.56471,12.634
5.424,0.078201,64.342,0.59922,0.32941,0.39412,0.57059,12.751
5.432,0.083089,64.733,0.59922,0.29412,0.47059,0.58039,12.947
5.44,0.086999,64.928,0.59922,0.26863,0.56471,0.59608,13.181
5.448,0.090909,64.928,0.59726,0.4,0.50588,0.49412,13.572
5.456,0.094819,64.733,0.59531,0.69608,0.017647,0.31373,14.12
5.464,0.097752,64.342,0.59335,0.91569,-0.49216,0.16863,14.941
5.472,0.10166,63.95,0.59042,0.99216,-0.50196,0.14902,15.841
5.48,0.10362,63.168,0.58749,0.6549,-0.45686,0.42549,16.584
5.488,0.10557,62.582,0.58456,0.43529,-0.11176,0.56078,16.936
5.496,0.10753,61.995,0.58162,0.35882,0.16863,0.57451,17.093
5.504,0.10948,61.213,0.57869,0.31961,0.34902,0.57451,17.014
5.512,0.11046,60.43,0.57478,0.30392,0.43529,0.58039,16.897
5.52,0.11241,59.844,0.56989,0.2902,0.46078,0.5902,16.819
5.528,0.11144,59.061,0.56207,0.28431,0.47451,0.58431,16.819
5.536,0.11144,58.279,0.55425,0.2902,0.47451,0.5902,16.936
5.544,0.11046,57.692,0.54448,0.2902,0.48039,0.58431,17.014
5.552,0.10948,56.91,0.53568,0.2902,0.48039,0.58431,17.132
5.56,0.1085,56.323,0.52786,0.2902,0.48039,0.58039,17.21
5.568,0.10753,55.932,0.52004,0.29412,0.48039,0.58039,17.327
5.576,0.10655,55.346,0.5132,0.29412,0.48039,0.58431,17.445
5.584,0.10557,54.954,0.50538,0.3,0.47059,0.57451,17.64
5.592,0.10557,54.368,0.49951,0.3,0.47451,0.57451,17.875
5.6,0.10459,53.977,0.49267,0.30392,0.46078,0.57451,18.149
5.608,0.10459,53.585,0.4868,0.30392,0.46078,0.57451,18.383
5.616,0.10362,53.194,0.48094,0.31373,0.4549,0.57451,18.774
5.624,0.10362,52.803,0.47507,0.31373,0.4549,0.57059,19.126
5.632,0.10459,52.412,0.46921,0.31961,0.4549,0.56078,19.596
5.64,0.10557,52.216,0.46334,0.32353,0.4451,0.56471,19.948
5.648,0.10655,52.021,0.45846,0.32353,0.4451,0.56078,19.948
5.656,0.1085,51.63,0.45357,0.32941,0.4451,0.56078,19.518
5.664,0.11046,51.434,0.44966,0.33922,0.44902,0.5549,18.696
5.672,0.11339,51.043,0.4477,0.33922,0.4451,0.5549,17.718
5.68,0.1173,50.652,0.44673,0.33922,0.43529,0.55098,16.701
5.688,0.12219,50.261,0.44575,0.3451,0.43922,0.5451,15.841
5.696,0.12708,49.87,0.44575,0.34902,0.4451,0.53922,15.254
5.704,0.13294,50.065,0.44575,0.35882,0.43529,0.53529,14.824
5.712,0.13978,51.434,0.44575,0.37059,0.43529,0.52941,14.589
5.72,0.14467,55.15,0.44575,0.37451,0.42941,0.52549,14.315
5.728,0.15054,61.995,0.44477,0.38431,0.41961,0.51569,14.12
5.736,0.1564,72.36,0.44086,0.4,0.41569,0.5098,13.807
5.744,0.16129,84.485,0.43793,0.4098,0.41569,0.5,13.494
5.752,0.16716,96.415,0.43597,0.41961,0.40392,0.4902,13.181
5.76,0.17302,106.39,0.43402,0.42549,0.4,0.48431,12.947
5.768,0.17889,114.6,0.43206,0.4451,0.39412,0.48039,12.751
5.776,0.18573,120.47,0.43109,0.44902,0.38431,0.47451,12.634
5.784,0.19062,123.99,0.43109,0.4549,0.38039,0.47059,12.634
5.792,0.1955,125.16,0.43011,0.44902,0.3902,0.48039,12.634
5.8,0.19844,124.19,0.43206,0.43922,0.39412,0.48431,12.634
5.808,0.20235,121.45,0.43206,0.41961,0.40392,0.5,12.712
5.816,0.2043,117.73,0.43206,0.41961,0.39412,0.5,12.751
5.824,0.20626,113.62,0.43109,0.4098,0.39412,0.50588,12.947
5.832,0.20723,109.71,0.42913,0.40392,0.3902,0.50588,13.142
5.84,0.20723,106.39,0.4262,0.39412,0.3902,0.51961,13.494
5.848,0.20528,103.65,0.42424,0.39412,0.38431,0.51569,14.003
5.856,0.2043,101.3,0.42326,0.3902,0.38039,0.52549,14.589
5.864,0.20137,99.544,0.42033,0.38431,0.38039,0.52941,15.254
5.872,0.19746,97.979,0.41838,0.37451,0.37451,0.53529,15.88
5.88,0.19355,97.001,0.41544,0.37451,0.38039,0.52941,16.467
5.888,0.19062,96.415,0.41349,0.37451,0.37451,0.53529,16.936
5.896,0.18573,95.828,0.41056,0.37451,0.38039,0.53529,17.405
5.904,0.18182,95.437,0.40371,0.37451,0.38431,0.53922,17.757
5.912,0.17693,95.046,0.3998,0.37059,0.38431,0.53922,18.149
5.92,0.17204,94.459,0.39589,0.37059,0.38431,0.53922,18.344
5.928,0.16716,93.872,0.39198,0.36471,0.38431,0.53922,18.383
5.936,0.16325,93.286,0.38905,0.35882,0.38431,0.5451,18.266
5.944,0.15836,92.503,0.38612,0.35882,0.3902,0.53922,18.266
5.952,0.15445,91.525,0.38416,0.35882,0.38431,0.5451,18.266
5.96,0.15054,90.352,0.38221,0.3549,0.38431,0.5451,18.383
5.968,0.14663,88.983,0.38025,0.3549,0.38039,0.5451,18.657
5.976,0.1437,87.419,0.38025,0.34902,0.38431,0.5451,18.892
5.984,0.13978,85.463,0.38221,0.35882,0.38431,0.5451,19.126
5.992,0.13783,83.312,0.38807,0.35882,0.38431,0.5451,19.126
6,0.13587,80.574,0.39883,0.3549,0.3902,0.5451,19.009
6.008,0.1349,77.64,0.41447,0.35882,0.3902,0.5451,18.814
6.016,0.13392,74.707,0.43206,0.3549,0.38431,0.5451,18.501
6.024,0.13392,71.578,0.45357,0.35882,0.3902,0.5451,18.07
6.032,0.13392,68.449,0.47605,0.37451,0.39412,0.52941,17.562
6.04,0.1349,65.906,0.49853,0.38431,0.40392,0.52941,17.014
6.048,0.13587,63.755,0.51711,0.39412,0.41961,0.52941,16.467
6.056,0.13685,62.19,0.53275,0.4,0.4098,0.51961,15.958
6.064,0.13783,61.213,0.54741,0.40392,0.35882,0.51569,15.528
6.072,0.13978,60.43,0.56109,0.4098,0.33922,0.51961,15.059
6.08,0.14076,60.039,0.57283,0.41569,0.32941,0.51569,14.707
6.088,0.1437,59.648,0.58162,0.4,0.32941,0.52549,14.276
6.096,0.14565,59.648,0.58847,0.38431,0.33529,0.51961,13.963
6.104,0.14761,59.844,0.59238,0.37059,0.32941,0.52941,13.69
6.112,0.15054,60.235,0.59238,0.37451,0.3549,0.52941,13.494
6.12,0.15347,60.821,0.5914,0.3549,0.37059,0.55098,13.377
6.128,0.1564,61.604,0.58944,0.33922,0.38039,0.56078,13.181
6.136,0.15934,62.386,0.58651,0.32941,0.38039,0.57059,13.064
6.144,0.16227,63.168,0.58358,0.32353,0.38039,0.57059,13.025
6.152,0.1652,63.95,0.58065,0.32941,0.38039,0.57059,12.947
6.16,0.16813,64.537,0.57771,0.32941,0.38431,0.57059,12.947
6.168,0.17204,64.733,0.57478,0.3098,0.4451,0.58039,13.064
6.176,0.17595,64.928,0.57185,0.26863,0.56471,0.59608,13.259
6.184,0.17986,64.928,0.56891,0.36471,0.53922,0.52549,13.69
6.192,0.18377,64.733,0.56598,0.65098,0.12941,0.3451,14.276
6.2,0.18671,64.342,0.56305,0.88627,-0.40784,0.18431,15.02
6.208,0.19062,63.755,0.56012,0.98627,-0.50196,0.14902,15.841
6.216,0.19355,63.168,0.55718,0.72549,-0.50196,0.38039,16.584
6.224,0.19648,62.386,0.55425,0.47059,-0.15686,0.5451,17.132
6.232,0.19844,61.604,0.55034,0.37059,0.13922,0.57451,17.327
6.24,0.20137,61.017,0.54545,0.32353,0.32941,0.58039,17.249
6.248,0.2043,60.235,0.53959,0.30392,0.42941,0.58431,17.132
6.256,0.20723,59.452,0.53372,0.3,0.46078,0.5902,16.936
6.264,0.20919,58.67,0.5259,0.29412,0.47451,0.58431,16.897
6.272,0.21114,58.083,0.52102,0.3,0.48039,0.5902,16.897
6.28,0.2131,57.301,0.51515,0.29412,0.48039,0.58431,16.897
6.288,0.21505,56.715,0.51026,0.3,0.48039,0.5902,17.014
6.296,0.21603,56.128,0.5044,0.30392,0.48039,0.58039,17.093
6.304,0.21799,55.541,0.49853,0.30392,0.47451,0.58039,17.249
6.312,0.21896,55.15,0.49267,0.30392,0.48039,0.57451,17.405
6.32,0.21994,54.563,0.48583,0.3098,0.47451,0.57451,17.562
6.328,0.22092,54.172,0.47801,0.3098,0.47451,0.57451,17.836
6.336,0.2219,53.781,0.47214,0.31961,0.47059,0.57451,18.031
6.344,0.22287,53.39,0.4653,0.32353,0.46471,0.57451,18.344
6.352,0.22385,52.999,0.46041,0.32353,0.46078,0.57059,18.657
6.36,0.22483,52.608,0.45552,0.32353,0.46078,0.57451,19.009
6.368,0.22581,52.216,0.44966,0.32941,0.46078,0.56471,19.439
6.376,0.22581,52.021,0.44379,0.33529,0.4549,0.57059,19.83
6.384,0.22678,51.825,0.43793,0.33922,0.4549,0.5549,19.948
6.392,0.22874,51.434,0.43304,0.33922,0.46078,0.5549,19.713
6.4,0.23167,51.239,0.43011,0.34902,0.4549,0.5549,19.087
6.408,0.2346,50.847,0.42815,0.34902,0.4549,0.55098,18.149
6.416,0.23754,50.652,0.42717,0.3549,0.43922,0.5451,17.21
6.424,0.24145,50.261,0.42717,0.35882,0.4451,0.55098,16.467
6.432,0.24536,50.065,0.4262,0.37059,0.4451,0.52941,15.88
6.44,0.25024,50.065,0.4262,0.37451,0.4451,0.52941,15.528
6.448,0.25415,51.239,0.4262,0.37451,0.43529,0.52941,15.332
6.456,0.26197,54.563,0.4262,0.38431,0.43529,0.51961,15.137
6.464,0.26979,61.213,0.42424,0.4,0.42941,0.5098,14.941
6.472,0.27957,71.382,0.42131,0.40392,0.42549,0.50588,14.628
6.48,0.29032,83.507,0.41935,0.41961,0.41961,0.49412,14.315
6.488,0.30401,95.828,0.41838,0.42941,0.4098,0.4902,14.003
6.496,0.31672,106.58,0.41838,0.4451,0.4,0.48039,13.807
6.504,0.33138,115.19,0.42033,0.46078,0.3902,0.47451,13.651
6.512,0.34702,121.45,0.42131,0.46471,0.3902,0.46078,13.494
6.52,0.36168,125.16,0.42033,0.47059,0.3902,0.46471,13.455
6.528,0.37634,126.53,0.41838,0.46471,0.3902,0.47059,13.377
6.536,0.39003,125.75,0.41544,0.4549,0.40392,0.48039,13.338
6.544,0.40371,123.01,0.41349,0.4451,0.4098,0.48039,13.338
6.552,0.41935,119.3,0.41251,0.43529,0.4098,0.49412,13.338
6.56,0.43402,114.99,0.41251,0.41961,0.40392,0.50588,13.377
6.568,0.44966,111.08,0.41349,0.41569,0.40392,0.50588,13.494
6.576,0.46628,107.56,0.41447,0.4098,0.39412,0.50588,13.651
6.584,0.47996,104.63,0.41349,0.40392,0.3902,0.5098,13.963
6.592,0.49365,102.28,0.41153,0.4,0.3902,0.51569,14.315
6.6,0.50635,100.52,0.40958,0.40392,0.38431,0.51569,14.824
6.608,0.51906,99.153,0.40665,0.4,0.38431,0.51961,15.45
6.616,0.53079,97.979,0.40371,0.4,0.38039,0.51569,16.154
6.624,0.54252,97.393,0.40078,0.4,0.38431,0.52549,16.78
6.632,0.55425,96.806,0.39785,0.39412,0.3902,0.51961,17.249
6.64,0.56696,96.415,0.39492,0.3902,0.38431,0.52941,17.718
6.648,0.57771,96.024,0.39296,0.3902,0.3902,0.52941,18.031
6.656,0.58847,95.437,0.39101,0.3902,0.3902,0.52941,18.188
6.664,0.59824,95.046,0.38807,0.39412,0.3902,0.52549,18.383
6.672,0.60802,94.459,0.38612,0.3902,0.3902,0.52549,18.501
6.68,0.61584,93.677,0.38416,0.38431,0.3902,0.51961,18.579
6.688,0.62463,92.699,0.38221,0.3902,0.3902,0.51961,18.696
6.696,0.63245,91.525,0.38025,0.39412,0.3902,0.51569,18.892
6.704,0.64027,90.157,0.38025,0.39412,0.3902,0.51569,19.126
6.712,0.64907,88.592,0.38123,0.39412,0.38431,0.51569,19.322
6.72,0.65787,86.636,0.38514,0.39412,0.38431,0.51569,19.4
6.728,0.66764,84.289,0.39198,0.39412,0.38431,0.51961,19.4
6.736,0.67742,81.943,0.40078,0.39412,0.38431,0.51569,19.322
6.744,0.68719,79.009,0.41349,0.3902,0.3902,0.51961,19.322
6.752,0.69599,76.076,0.42717,0.3902,0.38431,0.52549,19.283
6.76,0.70479,72.947,0.44379,0.3902,0.38431,0.52549,19.087
6.768,0.71457,69.818,0.46432,0.39412,0.38431,0.51961,18.814
6.776,0.72532,67.275,0.4868,0.4,0.3902,0.5098,18.383
6.784,0.73607,64.928,0.51026,0.41569,0.3902,0.50588,17.953
6.792,0.74878,63.364,0.53177,0.42549,0.4098,0.50588,17.445
6.8,0.76149,62.19,0.5523,0.42941,0.4,0.5,16.936
6.808,0.77615,61.408,0.57087,0.43529,0.36471,0.49412,16.506
6.816,0.79081,60.821,0.58358,0.43922,0.33922,0.49412,16.154
6.824,0.80645,60.626,0.59335,0.43922,0.33529,0.49412,15.841
6.832,0.82307,60.43,0.59726,0.42549,0.32941,0.49412,15.528
6.84,0.83675,60.626,0.59824,0.4098,0.33529,0.49412,15.254
6.848,0.85142,61.213,0.59726,0.4,0.33922,0.49412,15.02
6.856,0.8651,61.799,0.59531,0.39412,0.35882,0.50588,14.746
6.864,0.87879,62.582,0.59238,0.3902,0.37451,0.51961,14.589
6.872,0.89247,63.364,0.58944,0.37059,0.38431,0.52941,14.433
6.88,0.90714,64.146,0.58749,0.3549,0.3902,0.53922,14.276
6.888,0.9218,64.733,0.58749,0.34902,0.3902,0.5451,14.198
6.896,0.93646,65.319,0.58651,0.34902,0.3902,0.5451,14.12
6.904,0.95015,65.906,0.58553,0.34902,0.39412,0.55098,14.198
6.912,0.96383,66.102,0.58358,0.32353,0.44902,0.5549,14.276
6.92,0.97654,66.102,0.58162,0.28431,0.5549,0.57451,14.394
6.928,0.98925,65.906,0.58162,0.37451,0.52549,0.50588,14.707
6.936,0.99511,65.515,0.57967,0.66078,0.13333,0.33529,15.137
6.944,1,64.928,0.57674,0.91176,-0.37255,0.17451,15.684
6.952,1,64.342,0.57478,1.0314,-0.50196,0.13333,16.467
6.96,1,63.559,0.57185,0.76078,-0.46275,0.35882,17.21
6.968,1,62.777,0.56891,0.51569,-0.12745,0.51569,17.836
6.976,1,61.995,0.565,0.41569,0.1549,0.53922,18.188
6.984,1,61.213,0.56012,0.37059,0.33529,0.55098,18.383
6.992,1,60.235,0.55523,0.33922,0.42549,0.5549,18.344
7,1,59.452,0.54839,0.32353,0.4549,0.5549,18.188
7.008,1,58.67,0.54154,0.32353,0.47059,0.56078,18.07
7.016,1,57.888,0.53372,0.32353,0.47451,0.56078,18.031
7.024,1,57.301,0.52688,0.31961,0.48039,0.56471,18.031
7.032,1,56.715,0.52004,0.31961,0.48039,0.56471,18.031
7.04,1,56.128,0.5132,0.31373,0.47451,0.56471,18.07
7.048,1,55.541,0.50831,0.31961,0.47059,0.56078,18.07
7.056,1,55.15,0.50342,0.31961,0.47059,0.56471,18.149
7.064,1,54.759,0.49756,0.31961,0.46078,0.56078,18.266
7.072,1,54.368,0.49169,0.32353,0.46078,0.56078,18.344
7.08,1,53.977,0.48583,0.32941,0.46078,0.5549,18.462
7.088,1,53.585,0.47996,0.32941,0.4549,0.56078,18.657
7.096,1,53.194,0.4741,0.32941,0.44902,0.5549,18.814
7.104,1,52.999,0.46823,0.33529,0.44902,0.5549,19.126
7.112,1,52.608,0.46334,0.33922,0.4451,0.55098,19.596
7.12,1,52.216,0.45943,0.3451,0.4451,0.55098,19.948
7.128,1,52.021,0.45552,0.3451,0.43922,0.5451,20.222
7.136,1,51.825,0.45259,0.34902,0.43922,0.55098,20.222
7.144,1,51.63,0.44966,0.34902,0.43922,0.5451,19.83
7.152,1,51.239,0.44868,0.34902,0.43529,0.53922,19.283
7.16,1,51.043,0.4477,0.3549,0.43529,0.5451,18.579
7.168,1,50.652,0.4477,0.35882,0.43529,0.53922,17.875
7.176,1,50.456,0.4477,0.35882,0.43922,0.53922,17.249
7.184,1,50.652,0.4477,0.37059,0.43529,0.53529,16.78
7.192,1,52.216,0.44673,0.37451,0.43529,0.52941,16.193
7.2,1,56.128,0.44477,0.38431,0.42941,0.52549,15.684
7.208,1,63.559,0.44282,0.39412,0.42549,0.51569,15.215
7.216,1,74.316,0.44086,0.40392,0.41569,0.50588,14.824
7.224,1,86.832,0.43793,0.4098,0.41569,0.50588,14.511
7.232,1,99.153,0.435,0.41961,0.40392,0.5,14.315
7.24,1,109.71,0.43206,0.42941,0.39412,0.49412,14.081
7.248,1,117.93,0.43011,0.4451,0.38039,0.48039,13.885
7.256,1,123.79,0.42717,0.4451,0.38431,0.48431,13.768
7.264,1,127.12,0.42522,0.44902,0.3902,0.48039,13.651
7.272,1,127.71,0.42424,0.4451,0.38431,0.4902,13.455
7.28,1,126.14,0.42131,0.43922,0.39412,0.49412,13.338
7.288,1,122.82,0.41838,0.41961,0.4,0.50588,13.181
7.296,1,118.9,0.41544,0.40392,0.40392,0.5098,13.142
7.304,1,114.6,0.41349,0.4,0.39412,0.51961,13.064
7.312,1,110.5,0.41153,0.3902,0.4,0.52549,13.064
7.32,1,106.98,0.41056,0.38039,0.3902,0.52941,13.181
7.328,1,104.04,0.41056,0.37451,0.3902,0.53529,13.377
7.336,1,101.5,0.41056,0.37451,0.3902,0.52941,13.768
7.344,1,99.544,0.41056,0.37059,0.38431,0.5451,14.198
7.352,1,97.979,0.41153,0.36471,0.38039,0.53922,14.824
7.36,1,97.001,0.41056,0.35882,0.38431,0.55098,15.528
7.368,1,96.415,0.4086,0.3549,0.37451,0.55098,16.271
7.376,1,95.828,0.40665,0.3549,0.38431,0.5549,16.819
7.384,1,95.437,0.40371,0.3549,0.37451,0.5549,17.249
7.392,1,95.241,0.40078,0.3549,0.38039,0.56078,17.562
7.4,1,95.046,0.39785,0.34902,0.38431,0.5549,17.875
7.408,1,94.85,0.39492,0.34902,0.3902,0.56078,18.07
7.416,1,94.459,0.39198,0.34902,0.3902,0.5549,18.266
7.424,1,93.872,0.39101,0.3451,0.3902,0.56078,18.344
7.432,1,93.286,0.39101,0.3451,0.3902,0.56078,18.383
7.44,1,92.308,0.39296,0.33922,0.3902,0.56471,18.579
7.448,0.98631,91.134,0.39589,0.3451,0.3902,0.56078,18.814
7.456,0.97263,89.57,0.39883,0.33922,0.3902,0.56471,19.087
7.464,0.94917,87.614,0.40274,0.33529,0.3902,0.56078,19.205
7.472,0.92669,85.267,0.41056,0.33529,0.3902,0.56078,19.205
7.48,0.90616,82.529,0.42033,0.33529,0.3902,0.56078,19.087
7.488,0.88661,79.596,0.435,0.33922,0.3902,0.56471,18.892
7.496,0.86901,76.271,0.45455,0.33529,0.3902,0.56471,18.696
7.504,0.85142,73.142,0.47801,0.33529,0.3902,0.57059,18.383
7.512,0.83578,70.013,0.50342,0.33529,0.3902,0.57059,17.953
7.52,0.82014,67.275,0.52688,0.33922,0.39412,0.57059,17.445
7.528,0.80547,64.733,0.54741,0.3451,0.4,0.5549,16.819
7.536,0.79081,62.973,0.56598,0.35882,0.40392,0.5549,16.271
7.544,0.7781,61.604,0.57967,0.37059,0.41569,0.5451,15.88
7.552,0.76637,60.821,0.58944,0.38431,0.40392,0.53922,15.567
7.56,0.75464,60.235,0.59726,0.38431,0.35882,0.53529,15.332
7.568,0.74389,59.844,0.60215,0.39412,0.33922,0.52941,15.02
7.576,0.73314,59.844,0.60606,0.3902,0.32941,0.53529,14.746
7.584,0.72336,59.844,0.60704,0.37451,0.32353,0.53922,14.511
7.592,0.71359,60.43,0.60802,0.35882,0.33529,0.5451,14.276
7.6,0.70381,61.017,0.60802,0.3451,0.33922,0.53922,14.081
7.608,0.69306,61.799,0.60802,0.33922,0.35882,0.5549,13.885
7.616,0.68328,62.582,0.60606,0.32941,0.37451,0.57059,13.768
7.624,0.67351,63.364,0.60508,0.31961,0.3902,0.58431,13.572
7.632,0.66276,64.146,0.60606,0.30392,0.3902,0.58431,13.455
7.64,0.65298,64.733,0.60606,0.30392,0.3902,0.5902,13.338
7.648,0.64418,65.319,0.60508,0.30392,0.3902,0.58431,13.181
7.656,0.63441,65.515,0.60411,0.30392,0.3902,0.5902,13.181
7.664,0.62463,65.515,0.60117,0.28431,0.43922,0.59608,13.259
7.672,0.61388,65.319,0.59824,0.23922,0.5549,0.61961,13.455
7.68,0.60313,64.928,0.59531,0.31373,0.56078,0.56078,13.768
7.688,0.5914,64.342,0.59238,0.6,0.17843,0.38431,14.315
7.696,0.57967,63.755,0.58944,0.8451,-0.33725,0.22353,15.059
7.704,0.56891,62.973,0.58651,0.97647,-0.50196,0.17843,15.841
7.712,0.55914,62.19,0.58358,0.73529,-0.50196,0.38039,16.584
7.72,0.54936,61.408,0.58065,0.47059,-0.18235,0.55098,17.21
7.728,0.53959,60.626,0.57771,0.35882,0.11961,0.58431,17.523
7.736,0.52981,59.844,0.57478,0.31961,0.31373,0.59608,17.64
7.744,0.52004,59.061,0.57185,0.29412,0.41569,0.59608,17.445
7.752,0.50929,58.279,0.56794,0.27843,0.4549,0.6,17.249
7.76,0.49853,57.497,0.56207,0.27843,0.46471,0.6,17.093
7.768,0.48778,56.91,0.55523,0.27843,0.47059,0.6,17.014
7.776,0.47605,56.128,0.54741,0.27843,0.48039,0.6,17.014
7.784,0.4653,55.541,0.53861,0.27843,0.47451,0.6,17.014
7.792,0.45357,54.954,0.52981,0.27843,0.48039,0.6,17.132
7.8,0.44379,54.563,0.52102,0.27843,0.47059,0.59608,17.21
7.808,0.43304,53.977,0.5132,0.28431,0.47451,0.59608,17.327
7.816,0.42424,53.585,0.50635,0.28431,0.47059,0.5902,17.523
7.824,0.41544,53.194,0.49951,0.2902,0.46471,0.6,17.64
7.832,0.40665,52.803,0.49267,0.29412,0.46471,0.5902,17.836
7.84,0.39785,52.608,0.4868,0.29412,0.46078,0.58431,18.07
7.848,0.39003,52.216,0.48094,0.30392,0.46078,0.58431,18.383
7.856,0.38123,52.021,0.47605,0.30392,0.46078,0.58431,18.774
7.864,0.37341,51.825,0.47116,0.30392,0.44902,0.58039,19.126
7.872,0.36657,51.63,0.4653,0.3098,0.4549,0.58039,19.518
7.88,0.35875,51.239,0.46041,0.31373,0.4549,0.57451,19.713
7.888,0.35191,51.043,0.45748,0.31373,0.44902,0.57451,19.439
7.896,0.34506,50.652,0.45357,0.31961,0.44902,0.57451,18.774
7.904,0.33822,50.456,0.45161,0.32353,0.44902,0.57451,17.836
7.912,0.3304,50.261,0.45161,0.32353,0.4451,0.56471,16.819
7.92,0.32356,49.87,0.45064,0.32941,0.43922,0.56471,15.958
7.928,0.31672,49.674,0.45064,0.33922,0.43529,0.5549,15.372
7.936,0.30987,49.674,0.45064,0.3451,0.43529,0.5549,15.059
7.944,0.30401,50.456,0.45161,0.34902,0.43529,0.55098,14.941
7.952,0.29717,53.39,0.45259,0.35882,0.42941,0.5451,14.824
7.96,0.29228,59.452,0.45161,0.37059,0.42549,0.53529,14.589
7.968,0.28641,69.035,0.4477,0.38039,0.41961,0.52941,14.276
7.976,0.28152,81.16,0.44282,0.3902,0.41569,0.51961,13.963
7.984,0.27761,93.481,0.43891,0.40392,0.40392,0.51569,13.651
7.992,0.27273,104.24,0.43597,0.41961,0.4,0.50588,13.338
8,0.26784,113.04,0.43402,0.42549,0.3902,0.49412,13.142
8.008,0.26295,119.49,0.43402,0.43529,0.38431,0.4902,13.025
8.016,0.25904,123.6,0.43304,0.43922,0.38431,0.4902,12.907
8.024,0.25513,125.36,0.43304,0.43529,0.3902,0.5,12.829
8.032,0.25122,124.77,0.43304,0.42549,0.4,0.5,12.712
8.04,0.24731,122.43,0.43206,0.41569,0.40392,0.5098,12.712
8.048,0.2434,118.9,0.43109,0.4098,0.4,0.51569,12.634
8.056,0.23754,114.8,0.43109,0.39412,0.4,0.52941,12.712
8.064,0.23265,110.69,0.43011,0.38431,0.39412,0.52941,12.829
8.072,0.22581,106.98,0.42815,0.37451,0.39412,0.53529,13.064
8.08,0.21896,103.85,0.42522,0.37451,0.3902,0.53922,13.455
8.088,0.21114,101.3,0.42326,0.37451,0.3902,0.53529,13.963
8.096,0.20332,99.544,0.42131,0.37059,0.38431,0.53922,14.511
8.104,0.19355,98.175,0.41935,0.35882,0.38039,0.5549,15.215
8.112,0.18475,97.197,0.4174,0.3549,0.38431,0.5549,15.841
8.12,0.17595,96.415,0.41642,0.3549,0.38431,0.5549,16.467
8.128,0.16716,95.828,0.41447,0.3549,0.38431,0.5549,16.936
8.136,0.15836,95.437,0.41349,0.34902,0.38039,0.5549,17.327
8.144,0.14956,95.046,0.41153,0.34902,0.38431,0.5549,17.64
8.152,0.14076,94.655,0.41056,0.34902,0.38039,0.5549,17.875
8.16,0.13099,94.068,0.4086,0.3451,0.3902,0.56078,18.07
8.168,0.12219,93.481,0.40567,0.3451,0.38431,0.56078,18.188
8.176,0.11241,92.894,0.40274,0.3451,0.3902,0.56471,18.266
8.184,0.10459,91.917,0.40078,0.3451,0.3902,0.56078,18.344
8.192,0.096774,90.939,0.39785,0.33922,0.3902,0.56078,18.383
8.2,0.089932,89.57,0.39589,0.3451,0.3902,0.56078,18.579
8.208,0.084066,88.005,0.39492,0.3451,0.39412,0.5549,18.814
8.216,0.077224,86.05,0.39785,0.3451,0.3902,0.5549,18.97
8.224,0.071359,83.898,0.40371,0.34902,0.3902,0.5549,18.97
8.232,0.064516,81.16,0.41447,0.3451,0.3902,0.5549,18.892
8.24,0.058651,78.422,0.42815,0.34902,0.3902,0.5549,18.696
8.248,0.053763,75.293,0.44086,0.3451,0.3902,0.5549,18.462
8.256,0.049853,72.164,0.45357,0.3451,0.3902,0.56471,18.07
8.264,0.046921,69.231,0.47019,0.3451,0.3902,0.56078,17.523
8.272,0.043988,66.493,0.48974,0.3451,0.3902,0.5549,16.897
8.28,0.042033,64.342,0.50929,0.34902,0.3902,0.5451,16.271
8.288,0.040078,62.582,0.5259,0.35882,0.39412,0.5451,15.684
8.296,0.040078,61.408,0.54154,0.37451,0.41569,0.53529,15.254
8.304,0.040078,60.626,0.55621,0.38431,0.41961,0.53529,14.941
8.312,0.040078,60.039,0.56891,0.4,0.38039,0.52549,14.707
8.32,0.041056,59.844,0.57869,0.4,0.34902,0.52549,14.394
8.328,0.042033,59.844,0.58651,0.4,0.33529,0.51961,14.081
8.336,0.043011,59.844,0.5914,0.3902,0.32941,0.52549,13.807
8.344,0.044966,60.235,0.59335,0.37451,0.33529,0.52941,13.572
8.352,0.045943,60.821,0.59335,0.35882,0.33922,0.52549,13.377
8.36,0.047898,61.604,0.5914,0.34902,0.3549,0.52941,13.181
8.368,0.049853,62.386,0.58749,0.34902,0.36471,0.5451,13.025
8.376,0.052786,63.168,0.5826,0.32353,0.38431,0.56078,12.829
8.384,0.054741,63.95,0.57771,0.31373,0.38431,0.57059,12.751
8.392,0.056696,64.537,0.57478,0.3098,0.3902,0.57451,12.712
8.4,0.059629,64.733,0.57087,0.3098,0.3902,0.57451,12.712
8.408,0.061584,64.928,0.56794,0.30392,0.3902,0.58039,12.829
8.416,0.063539,64.928,0.56598,0.3,0.41961,0.57451,13.025
8.424,0.064516,64.733,0.565,0.2549,0.5451,0.60588,13.259
8.432,0.066471,64.342,0.56403,0.24902,0.57451,0.57059,13.651
8.44,0.068426,63.95,0.56305,0.5098,0.3549,0.43529,14.12
8.448,0.070381,63.364,0.56109,0.7902,-0.23725,0.23922,14.824
8.456,0.072336,62.582,0.55914,0.96667,-0.50196,0.16471,15.567
8.464,0.074291,61.799,0.55621,0.83137,-0.50196,0.3,16.271
8.472,0.075269,61.213,0.55327,0.51569,-0.27647,0.51961,16.897
8.48,0.076246,60.43,0.54936,0.38431,0.023529,0.58039,17.327
8.488,0.076246,59.648,0.5435,0.32353,0.26863,0.59608,17.445
8.496,0.077224,58.866,0.53568,0.3,0.4,0.5902,17.405
8.504,0.077224,58.083,0.52786,0.28431,0.4549,0.6,17.21
8.512,0.077224,57.301,0.52199,0.27843,0.47059,0.6,17.093
8.52,0.077224,56.715,0.51613,0.27843,0.48039,0.6,16.936
8.528,0.078201,56.128,0.51026,0.27843,0.48039,0.59608,16.936
8.536,0.078201,55.541,0.5044,0.27843,0.48431,0.6,16.936
8.544,0.079179,54.954,0.49853,0.27843,0.48431,0.59608,17.014
8.552,0.079179,54.563,0.49462,0.27843,0.48039,0.59608,17.093
8.56,0.079179,53.977,0.48876,0.27843,0.48039,0.5902,17.21
8.568,0.080156,53.585,0.48387,0.28431,0.47451,0.5902,17.405
8.576,0.080156,53.194,0.47801,0.2902,0.47451,0.58431,17.562
8.584,0.081134,52.803,0.47214,0.29412,0.47059,0.58039,17.875
8.592,0.081134,52.412,0.46725,0.30392,0.47059,0.57451,18.188
8.6,0.082111,52.216,0.46139,0.30392,0.46471,0.57451,18.501
8.608,0.083089,51.825,0.45552,0.3098,0.46078,0.58039,18.97
8.616,0.084066,51.63,0.44966,0.3098,0.46078,0.57451,19.4
8.624,0.086022,51.239,0.44379,0.31373,0.46078,0.57451,19.752
8.632,0.086999,51.043,0.43988,0.31373,0.46078,0.57059,20.026
8.64,0.088954,50.847,0.43793,0.31961,0.46078,0.57059,19.83
8.648,0.090909,50.652,0.43695,0.32353,0.44902,0.56471,19.283
8.656,0.091887,50.261,0.43597,0.32353,0.4451,0.57059,18.344
8.664,0.093842,50.065,0.43402,0.32941,0.4451,0.56471,17.21
8.672,0.095797,49.674,0.43402,0.33529,0.4451,0.56078,16.193
8.68,0.097752,49.283,0.43304,0.3451,0.43922,0.5549,15.45
8.688,0.10068,49.283,0.43206,0.34902,0.43529,0.5549,14.941
8.696,0.10362,49.674,0.43304,0.34902,0.43529,0.53922,14.628
8.704,0.10655,51.825,0.43304,0.3549,0.42941,0.53922,14.433
8.712,0.11046,56.519,0.43304,0.37059,0.42549,0.52941,14.198
8.72,0.11437,64.733,0.43304,0.37451,0.41961,0.52549,13.963
8.728,0.1173,75.88,0.43304,0.3902,0.41569,0.5098,13.572
8.736,0.12121,88.005,0.43206,0.4,0.4098,0.5098,13.181
8.744,0.12414,99.348,0.43206,0.41569,0.4,0.50588,12.947
8.752,0.12708,108.74,0.43206,0.42549,0.39412,0.49412,12.712
8.76,0.13001,116.17,0.43011,0.43529,0.3902,0.48431,12.595
8.768,0.13294,121.25,0.42913,0.43922,0.38431,0.48431,12.516
8.776,0.1349,124.19,0.42717,0.4451,0.3902,0.4902,12.516
8.784,0.13685,124.58,0.42522,0.43529,0.39412,0.49412,12.516
8.792,0.13783,123.01,0.42326,0.41961,0.40392,0.50588,12.516
8.8,0.13881,119.88,0.42229,0.4098,0.40392,0.5098,12.634
8.808,0.13783,115.97,0.42033,0.4,0.40392,0.51961,12.751
8.816,0.13685,111.86,0.41935,0.3902,0.4,0.52549,12.947
8.824,0.13685,107.95,0.41838,0.38039,0.40392,0.52941,13.259
8.832,0.13587,104.43,0.41642,0.37451,0.39412,0.53529,13.651
8.84,0.1349,101.69,0.41447,0.37059,0.3902,0.5451,14.12
8.848,0.13392,99.544,0.41251,0.37059,0.3902,0.53922,14.628
8.856,0.13099,97.979,0.41056,0.36471,0.38431,0.5451,15.254
8.864,0.12903,96.806,0.4086,0.35882,0.38039,0.55098,15.841
8.872,0.1261,96.024,0.40567,0.3549,0.38039,0.5549,16.31
8.88,0.12219,95.437,0.40274,0.3549,0.38039,0.5549,16.819
8.888,0.11828,95.046,0.40078,0.3549,0.38431,0.5549,17.249
8.896,0.11339,94.85,0.39785,0.34902,0.3902,0.5549,17.64
8.904,0.1085,94.459,0.39492,0.34902,0.3902,0.5549,17.875
8.912,0.10459,94.068,0.39296,0.34902,0.39412,0.5549,18.07
8.92,0.099707,93.481,0.39198,0.34902,0.3902,0.5549,18.07
8.928,0.095797,92.699,0.39101,0.34902,0.3902,0.5549,18.149
8.936,0.091887,91.721,0.39003,0.34902,0.3902,0.5549,18.149
8.944,0.088954,90.548,0.39003,0.34902,0.3902,0.5549,18.266
8.952,0.085044,89.374,0.38905,0.34902,0.3902,0.5549,18.501
8.96,0.082111,87.81,0.38905,0.34902,0.3902,0.55098,18.774
8.968,0.079179,86.05,0.39101,0.34902,0.3902,0.5549,18.97
8.976,0.076246,84.094,0.39296,0.34902,0.3902,0.5549,19.009
8.984,0.074291,81.552,0.39687,0.34902,0.3902,0.55098,18.892
8.992,0.072336,78.814,0.40567,0.34902,0.3902,0.5549,18.657
9,0.071359,75.88,0.41838,0.3451,0.3902,0.5549,18.383
9.008,0.070381,72.947,0.43597,0.3451,0.3902,0.5549,18.031
9.016,0.069404,70.013,0.45552,0.34902,0.3902,0.5549,17.562
9.024,0.069404,67.275,0.47703,0.34902,0.3902,0.55098,17.093
9.032,0.069404,64.928,0.49756,0.35882,0.39412,0.53529,16.506
9.04,0.070381,62.973,0.51515,0.37451,0.4098,0.53529,15.997
9.048,0.072336,61.604,0.52981,0.38431,0.42549,0.52941,15.684
9.056,0.074291,60.626,0.54057,0.39412,0.4098,0.52549,15.372
9.064,0.078201,60.039,0.55132,0.4,0.35882,0.51961,15.02
9.072,0.081134,59.844,0.56012,0.40392,0.33922,0.51961,14.589
9.08,0.084066,59.648,0.56696,0.4,0.32941,0.51569,14.12
9.088,0.087977,59.648,0.57087,0.38431,0.33529,0.51961,13.768
9.096,0.091887,59.844,0.57185,0.37451,0.33922,0.51569,13.455
9.104,0.095797,60.43,0.57185,0.3549,0.33529,0.52549,13.259
9.112,0.10068,61.213,0.57087,0.35882,0.36471,0.52941,13.064
9.12,0.10459,61.799,0.57087,0.34902,0.38039,0.55098,12.907
9.128,0.10948,62.777,0.56989,0.33529,0.3902,0.5549,12.751
9.136,0.11437,63.364,0.56696,0.32353,0.39412,0.57059,12.634
9.144,0.11926,64.146,0.565,0.31961,0.4,0.57059,12.595
9.152,0.12414,64.537,0.56207,0.31961,0.4,0.57451,12.634
9.16,0.12903,64.733,0.55914,0.31961,0.40392,0.57451,12.712
9.168,0.13392,64.733,0.55621,0.2902,0.47059,0.58431,12.947
9.176,0.13881,64.733,0.55327,0.2549,0.57451,0.6,13.338
9.184,0.1437,64.342,0.55132,0.36471,0.53529,0.51961,13.768
9.192,0.14858,63.95,0.54839,0.65098,0.10392,0.33922,14.315
9.2,0.15347,63.168,0.54545,0.88627,-0.42745,0.17843,15.02
9.208,0.15738,62.582,0.54252,0.97059,-0.50196,0.1549,15.684
9.216,0.16129,61.799,0.53959,0.6902,-0.49804,0.4,16.389
9.224,0.1652,61.213,0.53666,0.4549,-0.13725,0.5549,16.936
9.232,0.16813,60.43,0.53372,0.35882,0.15882,0.58039,17.21
9.24,0.17107,59.844,0.53079,0.31961,0.3549,0.58039,17.249
9.248,0.174,59.061,0.52786,0.3,0.43922,0.58431,17.132
9.256,0.17595,58.279,0.52493,0.2902,0.46471,0.5902,17.014
9.264,0.17889,57.692,0.52004,0.28431,0.48039,0.5902,16.897
9.272,0.18084,56.91,0.51515,0.27843,0.48431,0.5902,16.819
9.28,0.1828,56.323,0.50929,0.28431,0.4902,0.5902,16.819
9.288,0.18475,55.737,0.50342,0.27843,0.49412,0.5902,16.897
9.296,0.18671,55.15,0.4956,0.28431,0.4902,0.58431,17.014
9.304,0.18768,54.563,0.48778,0.2902,0.48431,0.58431,17.132
9.312,0.18964,54.172,0.47898,0.29412,0.48431,0.58039,17.327
9.32,0.19062,53.781,0.46921,0.3,0.48039,0.58039,17.523
9.328,0.19159,53.194,0.46139,0.30392,0.48039,0.58039,17.718
9.336,0.19257,52.803,0.45357,0.30392,0.48039,0.57451,17.875
9.344,0.19355,52.412,0.44868,0.3098,0.47451,0.57451,18.149
9.352,0.19355,52.216,0.44379,0.31373,0.47059,0.57451,18.462
9.36,0.19355,51.825,0.43988,0.32353,0.46471,0.57059,18.892
9.368,0.19355,51.434,0.43793,0.32353,0.46078,0.56471,19.322
9.376,0.19355,51.239,0.43695,0.32353,0.46471,0.57059,19.635
9.384,0.19257,51.043,0.43597,0.32941,0.46078,0.5549,19.713
9.392,0.19257,50.847,0.43597,0.33529,0.46078,0.5549,19.322
9.4,0.19257,50.652,0.435,0.3451,0.4549,0.5549,18.501
9.408,0.19257,50.261,0.43304,0.33922,0.46078,0.5549,17.445
9.416,0.19257,49.87,0.43109,0.34902,0.46078,0.5451,16.389
9.424,0.19257,49.479,0.42815,0.34902,0.4549,0.5451,15.528
9.432,0.19355,49.283,0.4262,0.3549,0.44902,0.53922,14.941
9.44,0.19453,49.479,0.42424,0.35882,0.44902,0.52941,14.628
9.448,0.1955,50.652,0.42229,0.37451,0.4451,0.52941,14.394
9.456,0.19648,53.977,0.42033,0.38039,0.4451,0.52549,14.198
9.464,0.19844,60.626,0.41935,0.39412,0.43529,0.50588,13.963
9.472,0.20039,70.6,0.42033,0.4,0.43529,0.50588,13.572
9.48,0.20235,82.529,0.42131,0.41569,0.42941,0.49412,13.259
9.488,0.2043,94.459,0.42424,0.42549,0.42549,0.4902,12.947
9.496,0.20723,104.82,0.4262,0.43922,0.41569,0.48039,12.634
9.504,0.20919,112.84,0.42913,0.4451,0.4098,0.48039,12.438
9.512,0.21114,118.71,0.43011,0.46078,0.4,0.46471,12.321
9.52,0.21408,122.43,0.42913,0.46471,0.4,0.47059,12.321
9.528,0.21505,123.99,0.42815,0.46078,0.40392,0.47059,12.321
9.536,0.21603,123.21,0.42522,0.4451,0.4098,0.48039,12.321
9.544,0.21701,121.06,0.42229,0.43922,0.4098,0.48431,12.399
9.552,0.21799,117.54,0.41935,0.42549,0.4098,0.50588,12.438
9.56,0.21799,113.62,0.41544,0.41961,0.40392,0.50588,12.634
9.568,0.21799,109.91,0.41251,0.40392,0.4,0.51569,12.907
9.576,0.21701,106.58,0.40958,0.4,0.4,0.51961,13.181
9.584,0.21701,104.04,0.40665,0.4,0.39412,0.51961,13.651
9.592,0.21505,101.69,0.40469,0.39412,0.39412,0.52941,14.12
9.6,0.2131,99.935,0.40371,0.39412,0.3902,0.52549,14.746
9.608,0.21017,98.566,0.40274,0.3902,0.3902,0.52941,15.45
9.616,0.20723,97.393,0.40274,0.3902,0.38431,0.52549,16.076
9.624,0.2043,96.61,0.40176,0.38431,0.38039,0.52941,16.623
9.632,0.20137,95.828,0.40274,0.38431,0.38431,0.52941,17.093
9.64,0.19746,95.046,0.40371,0.38431,0.3902,0.53529,17.523
9.648,0.19453,94.459,0.40371,0.38039,0.3902,0.53529,17.836
9.656,0.19062,93.872,0.40371,0.38039,0.3902,0.53529,18.07
9.664,0.18671,93.09,0.40274,0.37451,0.3902,0.53529,18.266
9.672,0.1828,92.308,0.40176,0.37451,0.39412,0.53529,18.344
9.68,0.17889,91.525,0.3998,0.37451,0.4,0.53922,18.344
9.688,0.17595,90.548,0.39687,0.37059,0.3902,0.5451,18.344
9.696,0.17302,89.57,0.39492,0.37059,0.3902,0.53529,18.462
9.704,0.17107,88.396,0.39394,0.37059,0.3902,0.53529,18.696
9.712,0.16911,87.027,0.39296,0.37059,0.3902,0.52941,18.97
9.72,0.16813,85.267,0.39394,0.37059,0.39412,0.53529,19.126
9.728,0.16716,83.312,0.39687,0.37059,0.4,0.53529,19.126
9.736,0.16618,81.16,0.40469,0.37059,0.39412,0.53529,19.009
9.744,0.16618,78.422,0.41447,0.37059,0.3902,0.53922,18.814
9.752,0.16911,75.489,0.4262,0.37451,0.3902,0.53529,18.696
9.76,0.17204,72.555,0.44282,0.37059,0.3902,0.53529,18.501
9.768,0.17693,69.622,0.46139,0.37451,0.3902,0.53529,18.188
9.776,0.18182,66.884,0.48289,0.37451,0.4,0.52941,17.718
9.784,0.18768,64.537,0.5044,0.3902,0.40392,0.52549,17.21
9.792,0.19355,62.973,0.52493,0.4,0.42549,0.51961,16.701
9.8,0.20039,61.604,0.5435,0.4098,0.42941,0.51569,16.271
9.808,0.20626,61.017,0.55816,0.41961,0.39412,0.50588,15.841
9.816,0.21603,60.43,0.56989,0.41961,0.3549,0.50588,15.45
9.824,0.22581,60.039,0.57674,0.41961,0.33922,0.5098,15.02
9.832,0.23754,60.039,0.57967,0.41569,0.33922,0.50588,14.628
9.84,0.25024,60.039,0.57967,0.4,0.34902,0.5098,14.315
9.848,0.26491,60.43,0.57771,0.38039,0.3451,0.5098,14.081
9.856,0.28055,61.017,0.57576,0.37451,0.35882,0.51961,13.885
9.864,0.29717,61.799,0.57283,0.37451,0.37451,0.52941,13.768
9.872,0.31476,62.582,0.57087,0.35882,0.3902,0.53922,13.651
9.88,0.3304,63.168,0.56989,0.34902,0.39412,0.5451,13.455
9.888,0.34702,63.95,0.56891,0.3451,0.39412,0.5549,13.377
9.896,0.36168,64.537,0.56891,0.3451,0.3902,0.5549,13.377
9.904,0.37732,64.928,0.56794,0.3451,0.3902,0.5549,13.377
9.912,0.39492,65.124,0.56696,0.33922,0.4098,0.5549,13.455
9.92,0.41251,65.124,0.56696,0.2902,0.51569,0.57451,13.651
9.928,0.43109,65.124,0.56598,0.27843,0.56078,0.5549,13.963
9.936,0.44966,64.733,0.56403,0.5,0.4098,0.43529,14.394
9.944,0.46628,64.342,0.56207,0.7902,-0.14118,0.2451,14.941
9.952,0.48289,63.559,0.55914,0.99216,-0.50196,0.13922,15.684
9.96,0.49756,62.973,0.55523,1.0157,-0.50196,0.23333,16.506
9.968,0.5132,62.19,0.5523,0.59608,-0.29804,0.47059,17.21
9.976,0.52884,61.408,0.54839,0.43922,0.0078431,0.5451,17.718
9.984,0.54448,60.821,0.54448,0.37059,0.2549,0.5549,18.031
9.992,0.56109,60.039,0.54252,0.33922,0.39412,0.5549,18.07
10,0.57771,59.257,0.53959,0.32353,0.44902,0.5549,17.953
10.008,0.59531,58.475,0.5347,0.31373,0.47059,0.56078,17.836
10.016,0.6129,57.692,0.52884,0.31373,0.48039,0.56078,17.64
10.024,0.62952,57.106,0.52297,0.31373,0.4902,0.56471,17.562
10.032,0.64712,56.519,0.51613,0.31961,0.48431,0.56078,17.562
10.04,0.66276,55.932,0.50831,0.31961,0.48431,0.56078,17.562
10.048,0.6784,55.346,0.50244,0.31961,0.48039,0.5549,17.64
10.056,0.69306,54.954,0.49658,0.32353,0.48039,0.5549,17.718
10.064,0.70674,54.368,0.49071,0.32353,0.47451,0.5549,17.757
10.072,0.72239,53.977,0.48485,0.32941,0.47451,0.5549,17.836
10.08,0.73803,53.585,0.47898,0.32941,0.46471,0.5549,18.031
10.088,0.75464,53.194,0.47312,0.33922,0.47059,0.55098,18.266
10.096,0.77126,52.803,0.46725,0.3451,0.46078,0.5451,18.579
10.104,0.7869,52.608,0.46041,0.34902,0.46078,0.5451,19.009
10.112,0.80254,52.216,0.45357,0.34902,0.4549,0.53922,19.439
10.12,0.8172,52.021,0.44673,0.34902,0.4549,0.53922,19.948
10.128,0.83187,51.825,0.44184,0.3549,0.4549,0.53529,20.261
10.136,0.84751,51.434,0.43793,0.35882,0.44902,0.53529,20.378
10.144,0.86315,51.239,0.43695,0.35882,0.4451,0.52941,20.222
10.152,0.87879,50.847,0.43793,0.36471,0.44902,0.52941,19.635
10.16,0.89541,50.652,0.43793,0.37059,0.4451,0.52549,18.892
10.168,0.913,50.261,0.43793,0.37451,0.43529,0.52549,18.07
10.176,0.9306,50.065,0.43793,0.37451,0.43922,0.51961,17.327
10.184,0.94819,49.87,0.43793,0.38039,0.43529,0.51569,16.701
10.192,0.96579,50.261,0.43793,0.3902,0.43529,0.50588,16.31
10.2,0.9824,52.216,0.43793,0.4,0.43529,0.5,15.997
10.208,0.99804,57.106,0.43695,0.40392,0.42549,0.4902,15.684
10.216,0.99902,65.515,0.43597,0.41961,0.41961,0.4902,15.372
10.224,1,76.858,0.435,0.42549,0.42549,0.48431,15.059
10.232,1,89.374,0.43597,0.43922,0.41569,0.47451,14.746
10.24,1,101.11,0.43695,0.4451,0.4098,0.47059,14.511
10.248,1,110.89,0.43695,0.46471,0.39412,0.46078,14.315
10.256,1,118.32,0.43695,0.47451,0.3902,0.46078,14.12
10.264,1,123.6,0.43597,0.48431,0.3902,0.4549,14.003
10.272,1,126.14,0.435,0.48039,0.3902,0.46078,13.885
10.28,1,126.34,0.435,0.47059,0.4,0.4549,13.768
10.288,1,124.38,0.435,0.46078,0.40392,0.47059,13.651
10.296,1,121.06,0.43402,0.4451,0.39412,0.48039,13.572
10.304,1,116.95,0.43304,0.43529,0.39412,0.48431,13.494
10.312,1,112.65,0.43206,0.42941,0.3902,0.4902,13.494
10.32,1,108.74,0.43011,0.41569,0.3902,0.5,13.494
10.328,1,105.41,0.42913,0.4098,0.3902,0.50588,13.651
10.336,1,102.67,0.42815,0.40392,0.38431,0.5098,13.807
10.344,1,100.72,0.42913,0.40392,0.38431,0.5098,14.198
10.352,1,99.153,0.43011,0.4,0.38039,0.51961,14.707
10.36,1,98.175,0.43109,0.4,0.38431,0.51961,15.254
10.368,1,97.588,0.43109,0.4,0.38431,0.52549,15.88
10.376,1,97.001,0.43109,0.39412,0.38039,0.51961,16.506
10.384,1,96.61,0.42913,0.3902,0.38039,0.52549,17.093
10.392,1,96.024,0.42717,0.3902,0.38431,0.52549,17.64
10.4,1,95.437,0.42424,0.3902,0.38431,0.51961,18.07
10.408,1,95.046,0.42131,0.38431,0.38431,0.52549,18.344
10.416,1,94.263,0.41838,0.38431,0.3902,0.52549,18.579
10.424,1,93.481,0.41544,0.38039,0.3902,0.52549,18.696
10.432,1,92.503,0.41251,0.38431,0.3902,0.52549,18.814
10.44,1,91.33,0.41056,0.38039,0.3902,0.52549,18.892
10.448,1,89.961,0.4086,0.38039,0.3902,0.52549,19.009
10.456,1,88.396,0.40762,0.38039,0.3902,0.52941,19.205
10.464,1,86.832,0.40958,0.38039,0.3902,0.52549,19.4
10.472,1,84.681,0.41349,0.37451,0.3902,0.52941,19.439
10.48,1,82.529,0.42229,0.37451,0.38039,0.52941,19.4
10.488,1,79.987,0.43402,0.37451,0.38431,0.52941,19.322
10.496,1,77.249,0.44966,0.37451,0.38431,0.52941,19.283
10.504,1,74.511,0.46921,0.37451,0.3902,0.53529,19.205
10.512,1,71.578,0.48974,0.37059,0.3902,0.53529,19.009
10.52,1,68.84,0.51222,0.37059,0.3902,0.5451,18.657
10.528,1,66.297,0.53275,0.37059,0.3902,0.53529,18.07
10.536,1,64.342,0.55425,0.38039,0.3902,0.52941,17.445
10.544,1,62.973,0.57087,0.4,0.40392,0.52549,16.897
10.552,1,61.799,0.58456,0.40392,0.4098,0.51961,16.467
10.56,1,61.017,0.59629,0.41569,0.38039,0.5098,16.154
10.568,1,60.626,0.60606,0.41569,0.33922,0.5098,15.841
10.576,1,60.235,0.61388,0.41569,0.32941,0.5098,15.567
10.584,1,60.235,0.61681,0.40392,0.32353,0.51961,15.332
10.592,1,60.626,0.61877,0.4,0.32941,0.52549,15.02
10.6,1,61.017,0.61779,0.37451,0.32353,0.52549,14.707
10.608,1,61.604,0.61681,0.37059,0.33922,0.52941,14.394
10.616,1,62.386,0.61681,0.36471,0.3549,0.53922,14.12
10.624,1,63.168,0.61584,0.34902,0.37059,0.5549,13.963
10.632,1,63.95,0.61584,0.33922,0.37451,0.56078,13.768
10.64,1,64.537,0.61486,0.32353,0.38039,0.56471,13.651
10.648,1,65.124,0.6129,0.32353,0.37451,0.56471,13.572
10.656,1,65.319,0.61193,0.32941,0.38431,0.57451,13.494
10.664,1,65.515,0.61095,0.31373,0.4,0.57059,13.494
10.672,1,65.319,0.60899,0.26471,0.50588,0.6,13.651
10.68,1,65.124,0.60704,0.25882,0.5451,0.57059,13.807
10.688,1,64.537,0.60411,0.49412,0.36471,0.4451,14.12
10.696,1,64.146,0.60117,0.78039,-0.18627,0.2549,14.589
10.704,1,63.364,0.59824,0.98235,-0.50196,0.15882,15.137
10.712,1,62.582,0.59531,0.87647,-0.50196,0.27451,15.841
10.72,1,61.799,0.59238,0.5451,-0.29804,0.5098,16.506
10.728,1,61.017,0.58944,0.39412,0.0078431,0.57451,17.093
10.736,1,60.235,0.58651,0.3451,0.2451,0.58431,17.445
10.744,1,59.257,0.58358,0.31373,0.37451,0.58039,17.562
10.752,1,58.475,0.58065,0.29412,0.42941,0.5902,17.445
10.76,1,57.692,0.57771,0.2902,0.4549,0.59608,17.249
10.768,1,56.91,0.57185,0.28431,0.46078,0.6,17.093
10.776,1,56.128,0.565,0.27843,0.46471,0.59608,16.936
10.784,1,55.541,0.55621,0.27843,0.47059,0.59608,16.897
10.792,1,54.954,0.54643,0.28431,0.46471,0.5902,16.897
10.8,1,54.172,0.53666,0.28431,0.46078,0.59608,16.936
10.808,1,53.781,0.52884,0.28431,0.46078,0.58431,17.014
10.816,1,53.39,0.52102,0.2902,0.46078,0.58431,17.093
10.824,0.98925,52.803,0.51515,0.2902,0.46078,0.5902,17.132
10.832,0.97752,52.412,0.50929,0.3,0.46078,0.58431,17.21
10.84,0.9609,52.216,0.50342,0.30392,0.46078,0.58039,17.405
10.848,0.94428,51.825,0.49853,0.30392,0.4549,0.58039,17.562
10.856,0.92864,51.63,0.49365,0.30392,0.4549,0.58431,17.953
10.864,0.91398,51.239,0.48778,0.30392,0.44902,0.58039,18.383
10.872,0.89834,50.847,0.48289,0.30392,0.44902,0.58431,18.892
10.88,0.88368,50.652,0.47898,0.3098,0.4451,0.58039,19.283
10.888,0.86804,50.456,0.47801,0.31373,0.43922,0.58039,19.205
10.896,0.85337,50.261,0.47703,0.3098,0.4451,0.58039,18.579
10.904,0.83871,49.87,0.47605,0.31373,0.43922,0.57451,17.64
10.912,0.82502,49.674,0.4741,0.32353,0.43922,0.57059,16.584
10.92,0.81232,49.479,0.47116,0.32353,0.43922,0.57059,15.684
10.928,0.79961,49.283,0.46823,0.32353,0.43529,0.56471,15.215
10.936,0.78592,49.087,0.46628,0.32941,0.43529,0.57059,14.941
10.944,0.77224,49.674,0.4653,0.33922,0.43529,0.56078,14.824
10.952,0.75758,51.825,0.46432,0.34902,0.43529,0.5549,14.746
10.96,0.74194,56.715,0.46432,0.3549,0.42941,0.5451,14.628
10.968,0.7263,65.124,0.46334,0.35882,0.41961,0.53922,14.433
10.976,0.70968,76.662,0.46139,0.37451,0.41569,0.52941,14.198
10.984,0.69306,89.374,0.45943,0.3902,0.4098,0.51961,13.963
10.992,0.67644,101.11,0.45552,0.4,0.4,0.51569,13.768
11,0.6608,111.08,0.45064,0.4098,0.3902,0.51569,13.651
11.008,0.64614,118.51,0.44575,0.41961,0.3902,0.50588,13.494
11.016,0.63148,123.4,0.44086,0.42549,0.38431,0.50588,13.455
11.024,0.61779,125.95,0.43695,0.42549,0.3902,0.50588,13.338
11.032,0.60411,125.95,0.43402,0.41961,0.39412,0.50588,13.181
11.04,0.59042,123.99,0.43109,0.41569,0.4,0.51569,13.064
11.048,0.57674,120.67,0.43011,0.40392,0.4,0.51961,13.064
11.056,0.56305,116.36,0.42913,0.39412,0.4,0.52941,13.064
11.064,0.55034,111.86,0.43011,0.38431,0.39412,0.53529,13.142
11.072,0.53861,107.76,0.43011,0.37451,0.3902,0.5451,13.259
11.08,0.52786,104.24,0.42913,0.36471,0.38431,0.55098,13.494
11.088,0.51711,101.5,0.42717,0.36471,0.38039,0.5549,13.885
11.096,0.50635,99.544,0.4262,0.36471,0.37451,0.5549,14.315
11.104,0.49658,97.979,0.42424,0.34902,0.38039,0.56078,14.824
11.112,0.48778,96.806,0.42326,0.34902,0.38039,0.56078,15.372
11.12,0.47801,96.024,0.42229,0.34902,0.38431,0.56471,15.958
11.128,0.46921,95.241,0.42229,0.34902,0.38039,0.5549,16.584
11.136,0.46041,94.85,0.42326,0.34902,0.38039,0.56471,17.132
11.144,0.45161,94.459,0.42326,0.34902,0.38431,0.56471,17.64
11.152,0.44282,94.068,0.42326,0.34902,0.38431,0.56471,17.875
11.16,0.435,93.481,0.42229,0.3451,0.3902,0.56471,17.953
11.168,0.42815,93.09,0.42033,0.33922,0.38431,0.57059,18.031
11.176,0.42131,92.503,0.41935,0.33922,0.38431,0.56471,18.031
11.184,0.41544,91.721,0.41935,0.33529,0.38039,0.57059,18.149
11.192,0.4086,90.743,0.41838,0.32941,0.38431,0.56471,18.266
11.2,0.40176,89.57,0.42033,0.3451,0.38039,0.56078,18.501
11.208,0.39492,88.005,0.42229,0.33529,0.38431,0.56471,18.892
11.216,0.38807,86.441,0.42522,0.33529,0.38039,0.56078,19.126
11.224,0.38221,84.485,0.42913,0.33529,0.38431,0.56471,19.283
11.232,0.37634,82.138,0.43597,0.33529,0.38431,0.56471,19.126
11.24,0.37146,79.596,0.44282,0.33922,0.38431,0.57059,18.892
11.248,0.36559,76.662,0.45064,0.33922,0.38431,0.56078,18.657
11.256,0.35973,73.729,0.46334,0.33922,0.38431,0.56471,18.266
11.264,0.35484,70.6,0.47996,0.33922,0.38431,0.56078,17.836
11.272,0.348,67.862,0.49951,0.33922,0.38431,0.5549,17.327
11.28,0.34213,65.515,0.52004,0.34902,0.3902,0.5549,16.78
11.288,0.33627,63.559,0.54154,0.37059,0.3902,0.5451,16.271
11.296,0.3304,62.19,0.56207,0.38039,0.40392,0.53922,15.763
11.304,0.32454,61.213,0.58065,0.39412,0.4098,0.53922,15.372
11.312,0.31965,60.43,0.59531,0.39412,0.36471,0.52941,15.02
11.32,0.31378,60.039,0.60606,0.4,0.33529,0.52941,14.628
11.328,0.30792,59.844,0.61193,0.4,0.32353,0.52941,14.315
11.336,0.30303,60.039,0.61388,0.38431,0.31961,0.52941,14.003
11.344,0.29717,60.235,0.61388,0.37451,0.32353,0.52941,13.768
11.352,0.29228,60.821,0.6129,0.3549,0.33529,0.53529,13.494
11.36,0.28739,61.408,0.6129,0.3549,0.34902,0.53922,13.338
11.368,0.28152,62.19,0.61193,0.3451,0.37059,0.5549,13.142
11.376,0.27664,62.973,0.60997,0.32941,0.38431,0.57059,12.947
11.384,0.27175,63.559,0.60704,0.32353,0.3902,0.57451,12.829
11.392,0.26784,64.146,0.60411,0.31961,0.3902,0.57451,12.712
11.4,0.26393,64.537,0.60117,0.31373,0.3902,0.57451,12.712
11.408,0.25904,64.733,0.59824,0.31373,0.3902,0.58039,12.712
11.416,0.25513,64.928,0.59531,0.3,0.41961,0.5902,12.829
11.424,0.25024,64.733,0.59238,0.24902,0.5451,0.6098,13.064
11.432,0.24536,64.342,0.5914,0.29412,0.56471,0.57059,13.455
11.44,0.24047,63.95,0.59042,0.53922,0.29412,0.41569,13.963
11.448,0.2346,63.364,0.58847,0.81569,-0.28235,0.23333,14.589
11.456,0.22972,62.582,0.58651,0.98235,-0.50196,0.16471,15.332
11.464,0.22385,61.995,0.58358,0.79608,-0.50196,0.32941,16.076
11.472,0.21896,61.213,0.58065,0.49412,-0.23725,0.53922,16.701
11.48,0.21408,60.235,0.57771,0.37451,0.058824,0.58039,17.093
11.488,0.20919,59.648,0.57478,0.31961,0.2902,0.59608,17.249
11.496,0.20528,58.67,0.57185,0.3,0.40392,0.59608,17.21
11.504,0.20137,58.083,0.56794,0.28431,0.4549,0.6,17.093
11.512,0.19746,57.301,0.56109,0.27843,0.47059,0.59608,17.014
11.52,0.19257,56.715,0.55327,0.27843,0.47451,0.60588,17.093
11.528,0.18866,55.932,0.54545,0.27451,0.48039,0.6,17.093
11.536,0.18377,55.346,0.53763,0.27843,0.48039,0.6,17.132
11.544,0.17986,54.954,0.53177,0.27843,0.47451,0.59608,17.21
11.552,0.17693,54.368,0.5259,0.28431,0.47059,0.6,17.249
11.56,0.17302,53.977,0.52004,0.28431,0.46471,0.59608,17.249
11.568,0.17009,53.585,0.51222,0.2902,0.46471,0.5902,17.327
11.576,0.16813,53.194,0.5044,0.29412,0.46078,0.58431,17.405
11.584,0.1652,52.608,0.4956,0.3,0.46078,0.58431,17.523
11.592,0.16325,52.216,0.4868,0.3,0.46078,0.5902,17.718
11.6,0.16129,52.021,0.47801,0.30392,0.46078,0.58039,18.031
11.608,0.15934,51.63,0.46921,0.30392,0.46078,0.58039,18.462
11.616,0.15738,51.434,0.46237,0.31373,0.44902,0.57451,18.97
11.624,0.1564,51.043,0.45552,0.31961,0.4549,0.57451,19.4
11.632,0.15445,50.847,0.45161,0.32353,0.4451,0.56471,19.635
11.64,0.15347,50.652,0.44868,0.32353,0.4451,0.56471,19.439
11.648,0.15249,50.456,0.4477,0.33529,0.43529,0.56078,18.814
11.656,0.15152,50.065,0.44673,0.33922,0.43529,0.56471,17.875
11.664,0.15054,49.87,0.44673,0.3451,0.43529,0.5549,16.897
11.672,0.14956,49.479,0.44673,0.33922,0.43529,0.56078,16.154
11.68,0.14956,49.283,0.44673,0.34902,0.43529,0.5549,15.528
11.688,0.14956,49.087,0.44673,0.3549,0.43529,0.5549,15.137
11.696,0.14956,49.674,0.44673,0.35882,0.42941,0.53922,14.824
11.704,0.14858,52.021,0.44477,0.37059,0.42549,0.53529,14.589
11.712,0.14858,57.106,0.44184,0.38039,0.41961,0.52941,14.276
11.72,0.14858,65.711,0.43891,0.3902,0.4098,0.52549,13.963
11.728,0.14858,76.858,0.43597,0.4,0.4098,0.5098,13.494
11.736,0.14761,88.983,0.43402,0.41569,0.4098,0.50588,13.142
11.744,0.14761,100.33,0.43206,0.41961,0.39412,0.49412,12.907
11.752,0.14663,109.52,0.43011,0.43922,0.3902,0.49412,12.712
11.76,0.14663,116.75,0.42815,0.4451,0.37451,0.48039,12.595
11.768,0.14565,121.84,0.42717,0.44902,0.37059,0.48039,12.516
11.776,0.14467,124.38,0.4262,0.44902,0.38039,0.48039,12.516
11.784,0.14272,124.77,0.4262,0.4451,0.3902,0.48431,12.438
11.792,0.14174,123.01,0.4262,0.42941,0.3902,0.5,12.438
11.8,0.13978,119.69,0.4262,0.41961,0.3902,0.50588,12.438
11.808,0.13783,115.78,0.4262,0.4098,0.39412,0.5098,12.595
11.816,0.13587,111.47,0.4262,0.4,0.39412,0.51961,12.751
11.824,0.13294,107.56,0.4262,0.3902,0.3902,0.52941,13.025
11.832,0.12903,104.24,0.42522,0.38431,0.38431,0.53529,13.377
11.84,0.1261,101.3,0.42424,0.37451,0.38039,0.5451,13.885
11.848,0.12121,98.957,0.42326,0.37451,0.37059,0.53922,14.394
11.856,0.11632,97.197,0.42033,0.37451,0.37451,0.55098,14.941
11.864,0.11144,95.828,0.41838,0.37451,0.37059,0.5451,15.45
11.872,0.10655,95.046,0.41544,0.37059,0.37451,0.55098,15.958
11.88,0.10264,94.459,0.41251,0.37059,0.38039,0.55098,16.467
11.888,0.098729,94.068,0.40958,0.37059,0.38039,0.5451,16.897
11.896,0.094819,93.872,0.40665,0.36471,0.37059,0.53922,17.327
11.904,0.090909,93.677,0.40371,0.35882,0.37451,0.55098,17.718
11.912,0.086999,93.286,0.40176,0.35882,0.38039,0.5451,17.953
11.92,0.083089,92.894,0.40078,0.35882,0.37451,0.55098,18.149
11.928,0.079179,92.503,0.3998,0.35882,0.38431,0.55098,18.188
11.936,0.076246,91.721,0.3998,0.35882,0.38039,0.5549,18.266
11.944,0.073314,90.743,0.3998,0.35882,0.3902,0.55098,18.344
11.952,0.070381,89.57,0.40176,0.35882,0.38431,0.5549,18.501
11.96,0.068426,88.201,0.40469,0.3549,0.3902,0.5549,18.774
11.968,0.065494,86.441,0.40665,0.35882,0.3902,0.5549,18.97
11.976,0.064516,84.289,0.41056,0.34902,0.38431,0.55098,19.009
11.984,0.063539,81.747,0.41642,0.3549,0.38431,0.55098,18.892
11.992,0.062561,79.009,0.42424,0.34902,0.38431,0.5549,18.657
12,0.061584,76.076,0.435,0.3549,0.37451,0.5549,18.383
12.008,0.060606,72.947,0.45064,0.3549,0.38039,0.5549,18.07
12.016,0.060606,70.013,0.47116,0.3549,0.37451,0.5549,17.64
12.024,0.060606,67.08,0.49267,0.3549,0.38431,0.5549,17.132
12.032,0.061584,64.733,0.51417,0.36471,0.3902,0.5451,16.701
12.04,0.061584,62.777,0.52981,0.37451,0.3902,0.53529,16.193
12.048,0.062561,61.408,0.53959,0.38431,0.40392,0.53529,15.684
12.056,0.064516,60.626,0.55034,0.4,0.41569,0.52941,15.254
12.064,0.065494,60.039,0.56012,0.40392,0.38431,0.52549,14.902
12.072,0.067449,59.648,0.56794,0.4098,0.34902,0.52549,14.433
12.08,0.069404,59.452,0.57283,0.41569,0.33529,0.51961,14.081
12.088,0.071359,59.452,0.57771,0.4,0.32941,0.52549,13.69
12.096,0.074291,59.844,0.58065,0.38431,0.32353,0.52549,13.455
12.104,0.077224,60.235,0.58456,0.36471,0.32941,0.52941,13.181
12.112,0.080156,61.017,0.58651,0.36471,0.33922,0.52941,13.025
12.12,0.084066,61.799,0.58749,0.37059,0.36471,0.55098,12.829
12.128,0.086999,62.582,0.58553,0.34902,0.38039,0.5549,12.712
12.136,0.090909,63.168,0.58358,0.32941,0.38431,0.57059,12.634
12.144,0.094819,63.95,0.58162,0.32353,0.38431,0.57059,12.595
12.152,0.098729,64.342,0.57674,0.32353,0.38431,0.57451,12.634
12.16,0.10264,64.733,0.57087,0.31961,0.38431,0.57451,12.712
12.168,0.10655,64.733,0.56598,0.32353,0.4,0.57059,12.907
12.176,0.11046,64.537,0.56207,0.26863,0.51569,0.6,13.181
12.184,0.11339,64.342,0.55914,0.25882,0.56078,0.58039,13.572
12.192,0.1173,63.755,0.55718,0.47451,0.41569,0.44902,14.081
12.2,0.12023,63.168,0.55718,0.77059,-0.17255,0.25882,14.628
12.208,0.12317,62.582,0.55718,0.96667,-0.50196,0.15882,15.332
12.216,0.12708,61.995,0.55718,0.98627,-0.50196,0.25882,15.958
12.224,0.13001,61.213,0.55621,0.56471,-0.34706,0.49412,16.506
12.232,0.13294,60.43,0.55425,0.40392,-0.027451,0.57059,16.897
12.24,0.13685,59.648,0.55132,0.3451,0.23922,0.58431,17.093
12.248,0.13978,58.866,0.54545,0.31961,0.38431,0.5902,17.093
12.256,0.14272,58.083,0.53861,0.3,0.44902,0.5902,17.014
12.264,0.14467,57.301,0.53079,0.29412,0.46078,0.59608,17.014
12.272,0.14761,56.715,0.52395,0.2902,0.47451,0.59608,17.014
12.28,0.14956,56.128,0.51515,0.29412,0.47451,0.5902,17.093
12.288,0.15249,55.346,0.50635,0.29412,0.48039,0.5902,17.132
12.296,0.15445,54.954,0.49853,0.29412,0.47451,0.58431,17.21
12.304,0.1564,54.368,0.49071,0.2902,0.48039,0.59608,17.249
12.312,0.15738,53.781,0.48289,0.3,0.47059,0.58431,17.327
12.32,0.15934,53.39,0.4741,0.3,0.47451,0.5902,17.405
12.328,0.15934,52.999,0.46628,0.3,0.47059,0.58039,17.523
12.336,0.16031,52.412,0.45943,0.30392,0.46471,0.58039,17.64
12.344,0.16129,52.216,0.45455,0.30392,0.46471,0.57451,17.875
12.352,0.16227,51.825,0.44868,0.31373,0.46471,0.57059,18.188
12.36,0.16325,51.434,0.44282,0.32353,0.46078,0.56471,18.657
12.368,0.16422,51.239,0.43793,0.32353,0.46078,0.57059,19.126
12.376,0.1652,50.847,0.43402,0.32353,0.4549,0.56471,19.596
12.384,0.16618,50.652,0.43109,0.32941,0.44902,0.56078,19.948
12.392,0.16618,50.456,0.42913,0.33529,0.44902,0.56471,19.909
12.4,0.16618,50.261,0.42815,0.33922,0.4451,0.56078,19.439
12.408,0.16618,49.87,0.42717,0.3451,0.43922,0.5549,18.579
12.416,0.16716,49.674,0.42717,0.34902,0.43922,0.55098,17.562
12.424,0.16716,49.283,0.42815,0.34902,0.43529,0.5451,16.701
12.432,0.16813,49.087,0.42815,0.34902,0.43529,0.53922,15.958
12.44,0.16911,48.892,0.42815,0.36471,0.43529,0.53529,15.332
12.448,0.17009,49.283,0.42717,0.37451,0.42941,0.52941,14.824
12.456,0.17009,51.239,0.4262,0.38039,0.42941,0.52549,14.433
12.464,0.17107,55.541,0.4262,0.3902,0.42549,0.51961,14.12
12.472,0.17204,63.364,0.42522,0.4,0.42549,0.51569,13.768
12.48,0.17302,73.924,0.42424,0.4098,0.4098,0.50588,13.377
12.488,0.174,86.05,0.42424,0.41961,0.4098,0.5,13.025
12.496,0.17498,97.588,0.42424,0.43529,0.40392,0.48431,12.712
12.504,0.17595,107.17,0.42522,0.4451,0.40392,0.48431,12.438
12.512,0.17693,114.8,0.42717,0.44902,0.3902,0.48039,12.321
12.52,0.17791,120.08,0.42717,0.46078,0.3902,0.48039,12.282
12.528,0.17889,123.21,0.4262,0.4549,0.3902,0.47451,12.321
12.536,0.17889,123.99,0.4262,0.4451,0.3902,0.48039,12.399
12.544,0.17889,122.82,0.42522,0.4451,0.39412,0.48431,12.516
12.552,0.17791,120.27,0.42326,0.42549,0.4,0.5,12.634
12.56,0.17693,116.56,0.42033,0.41569,0.4,0.50588,12.829
12.568,0.17498,112.84,0.41838,0.40392,0.39412,0.51569,13.025
12.576,0.17302,108.93,0.41642,0.4,0.4,0.51961,13.338
12.584,0.17009,105.61,0.41642,0.3902,0.3902,0.52941,13.69
12.592,0.16813,102.48,0.41544,0.38431,0.38431,0.52941,14.12
12.6,0.1652,99.935,0.41544,0.38039,0.37451,0.52941,14.628
12.608,0.16325,98.175,0.41447,0.38039,0.37059,0.53529,15.137
12.616,0.16129,96.806,0.41153,0.37451,0.37059,0.53922,15.684
12.624,0.15836,95.828,0.40958,0.37451,0.37059,0.5451,16.193
12.632,0.15543,95.046,0.40665,0.37451,0.36471,0.53922,16.623
12.64,0.15347,94.459,0.40469,0.37059,0.36471,0.55098,17.014
12.648,0.14956,93.872,0.40371,0.37059,0.36471,0.5451,17.405
12.656,0.14663,93.481,0.40176,0.36471,0.37451,0.55098,17.757
12.664,0.1437,93.09,0.3998,0.35882,0.37059,0.55098,17.953
12.672,0.14174,92.503,0.39785,0.3549,0.38039,0.5549,18.07
12.68,0.13881,92.112,0.39492,0.35882,0.38431,0.55098,18.149
12.688,0.13685,91.525,0.39198,0.3549,0.3902,0.5549,18.149
12.696,0.13587,90.743,0.38905,0.35882,0.3902,0.5549,18.266
12.704,0.13392,89.765,0.3871,0.3549,0.3902,0.55098,18.462
12.712,0.13196,88.396,0.38612,0.35882,0.3902,0.53922,18.657
12.72,0.13099,86.832,0.38612,0.3549,0.3902,0.55098,18.892
12.728,0.13001,84.681,0.38905,0.35882,0.3902,0.5451,19.009
12.736,0.13001,82.334,0.39394,0.3549,0.3902,0.5549,18.97
12.744,0.13001,79.791,0.40176,0.3549,0.38431,0.5549,18.774
12.752,0.13001,76.662,0.41251,0.3549,0.38431,0.5549,18.501
12.76,0.13001,73.729,0.42717,0.35882,0.3902,0.5549,18.266
12.768,0.13099,70.6,0.44477,0.35882,0.38431,0.5549,17.875
12.776,0.13196,67.666,0.46628,0.35882,0.3902,0.5451,17.445
12.784,0.13294,65.319,0.4868,0.36471,0.39412,0.5451,16.936
12.792,0.13392,63.168,0.50831,0.37451,0.40392,0.52941,16.467
12.8,0.1349,61.799,0.52688,0.3902,0.41569,0.52941,15.958
12.808,0.13587,60.821,0.5435,0.4,0.42549,0.52549,15.528
12.816,0.13685,60.235,0.55621,0.4098,0.3902,0.51961,15.02
12.824,0.13783,59.844,0.56794,0.4098,0.34902,0.51961,14.589
12.832,0.13978,59.648,0.57576,0.4098,0.33529,0.51961,14.12
12.84,0.14076,59.648,0.57967,0.4,0.32941,0.52941,13.768
12.848,0.14272,59.844,0.58358,0.3902,0.32941,0.52549,13.494
12.856,0.14467,60.235,0.58749,0.37451,0.33922,0.52549,13.259
12.864,0.14663,61.017,0.58847,0.37059,0.33922,0.52941,13.025
12.872,0.14858,61.604,0.58847,0.36471,0.36471,0.5451,12.829
12.88,0.15152,62.386,0.58651,0.34902,0.38039,0.55098,12.712
12.888,0.15347,62.973,0.58358,0.33922,0.3902,0.56078,12.712
12.896,0.1564,63.559,0.58162,0.32353,0.3902,0.57059,12.712
12.904,0.15934,63.95,0.57869,0.32353,0.38431,0.57451,12.751
12.912,0.16227,64.342,0.57576,0.32353,0.38431,0.57059,12.907
12.92,0.1652,64.342,0.57283,0.31961,0.39412,0.57451,13.025
12.928,0.16813,64.342,0.56989,0.27843,0.5,0.59608,13.259
12.936,0.17107,64.146,0.56696,0.25882,0.56078,0.6,13.651
12.944,0.17498,63.755,0.56403,0.4549,0.43529,0.46078,14.12
12.952,0.17791,63.168,0.56109,0.75098,-0.11176,0.26863,14.628
12.96,0.18084,62.582,0.55914,0.95686,-0.50196,0.1549,15.254
12.968,0.18377,61.995,0.55914,0.99216,-0.50196,0.2451,15.88
12.976,0.18768,61.213,0.55718,0.59608,-0.36667,0.47059,16.506
12.984,0.19062,60.626,0.55425,0.41569,-0.037255,0.56471,16.936
12.992,0.19355,59.844,0.55034,0.3451,0.23333,0.57451,17.249
13,0.19648,59.061,0.54448,0.3098,0.38039,0.58431,17.405
13.008,0.20039,58.475,0.53666,0.29412,0.4451,0.58431,17.327
13.016,0.2043,57.692,0.52884,0.2902,0.46078,0.5902,17.249
13.024,0.20821,57.106,0.52199,0.28431,0.47451,0.5902,17.21
13.032,0.2131,56.519,0.51515,0.28431,0.48039,0.58431,17.21
13.04,0.21799,55.932,0.50929,0.28431,0.48431,0.58039,17.21
13.048,0.22287,55.346,0.50244,0.2902,0.48039,0.58039,17.327
13.056,0.22776,54.759,0.49462,0.29412,0.48039,0.58039,17.405
13.064,0.23265,54.368,0.4868,0.2902,0.47451,0.58039,17.523
13.072,0.23754,53.781,0.47996,0.29412,0.47059,0.57451,17.64
13.08,0.24242,53.39,0.47312,0.30392,0.47059,0.57451,17.757
13.088,0.24731,52.999,0.46628,0.30392,0.46471,0.57059,17.953
13.096,0.2522,52.608,0.46041,0.31373,0.46078,0.56471,18.149
13.104,0.25709,52.216,0.45455,0.3098,0.46078,0.57451,18.462
13.112,0.26393,52.021,0.44868,0.31373,0.46078,0.56471,18.892
13.12,0.26979,51.63,0.44477,0.31961,0.46078,0.57059,19.4
13.128,0.27761,51.434,0.44184,0.32353,0.44902,0.5549,19.948
13.136,0.28543,51.239,0.43891,0.32353,0.44902,0.56078,20.378
13.144,0.29326,50.847,0.43597,0.32941,0.4549,0.5549,20.535
13.152,0.30108,50.652,0.435,0.3451,0.4451,0.5549,20.222
13.16,0.3089,50.456,0.435,0.34902,0.43922,0.5451,19.518
13.168,0.31672,50.065,0.43402,0.34902,0.43922,0.55098,18.657
13.176,0.32845,49.87,0.43206,0.34902,0.43529,0.53922,17.718
13.184,0.3392,49.479,0.43011,0.35882,0.43922,0.53922,16.936
13.192,0.35288,49.283,0.42815,0.36471,0.4451,0.52941,16.31
13.2,0.36657,49.479,0.4262,0.37451,0.43529,0.52941,15.841
13.208,0.38123,51.239,0.42424,0.37451,0.43529,0.51961,15.45
13.216,0.39687,55.346,0.42326,0.3902,0.42941,0.5098,15.137
13.224,0.41349,62.777,0.42131,0.4,0.42549,0.50588,14.746
13.232,0.43011,73.338,0.42033,0.41569,0.41569,0.49412,14.433
13.24,0.44673,85.658,0.42033,0.42549,0.4098,0.48039,14.081
13.248,0.46237,97.588,0.42033,0.43922,0.40392,0.48039,13.69
13.256,0.47703,107.56,0.42229,0.44902,0.4,0.46471,13.455
13.264,0.49267,115.58,0.42424,0.47059,0.3902,0.46078,13.377
13.272,0.50929,121.25,0.4262,0.47059,0.38431,0.46078,13.338
13.28,0.5259,124.38,0.42717,0.48039,0.38039,0.4549,13.338
13.288,0.54252,125.36,0.4262,0.47059,0.3902,0.46078,13.259
13.296,0.56012,124.19,0.42522,0.46078,0.4,0.46471,13.259
13.304,0.5738,121.45,0.42326,0.4451,0.40392,0.47451,13.338
13.312,0.58847,117.73,0.42131,0.42941,0.39412,0.48039,13.377
13.32,0.60117,113.62,0.41838,0.42549,0.4,0.4902,13.455
13.328,0.6129,109.52,0.41544,0.41961,0.3902,0.49412,13.651
13.336,0.62463,106,0.41349,0.41569,0.3902,0.50588,13.807
13.344,0.63539,102.87,0.41153,0.4098,0.3902,0.50588,14.12
13.352,0.64614,100.33,0.40958,0.4,0.38431,0.5098,14.511
13.36,0.65689,98.566,0.4086,0.4,0.38431,0.5098,15.02
13.368,0.66667,97.393,0.4086,0.4,0.38039,0.51569,15.567
13.376,0.67644,96.61,0.4086,0.4,0.38431,0.51961,16.154
13.384,0.68524,96.219,0.40958,0.39412,0.38431,0.51569,16.623
13.392,0.69404,95.632,0.4086,0.39412,0.3902,0.52549,17.093
13.4,0.70186,95.046,0.40762,0.3902,0.3902,0.52549,17.445
13.408,0.7087,94.655,0.40567,0.38431,0.38431,0.52941,17.757
13.416,0.71457,94.068,0.40371,0.3902,0.38431,0.52549,18.07
13.424,0.72141,93.481,0.40078,0.3902,0.3902,0.52941,18.383
13.432,0.72825,92.699,0.39883,0.38431,0.3902,0.52549,18.657
13.44,0.73509,91.917,0.39687,0.38039,0.3902,0.52941,18.774
13.448,0.74291,91.134,0.39394,0.37451,0.3902,0.52941,18.774
13.456,0.75073,89.961,0.39296,0.37451,0.39412,0.52941,18.814
13.464,0.75855,88.592,0.39394,0.37451,0.3902,0.52941,19.009
13.472,0.76637,87.027,0.39589,0.37451,0.3902,0.52941,19.126
13.48,0.77419,85.072,0.39883,0.37451,0.38039,0.52549,19.283
13.488,0.78201,82.921,0.40274,0.37451,0.38431,0.52941,19.283
13.496,0.79179,80.378,0.41056,0.37451,0.38431,0.52941,19.205
13.504,0.80156,77.64,0.42229,0.37451,0.3902,0.52941,19.126
13.512,0.81329,74.707,0.43793,0.37451,0.3902,0.52549,19.126
13.52,0.826,71.773,0.4565,0.37451,0.3902,0.52941,19.009
13.528,0.83969,69.035,0.47703,0.37451,0.3902,0.52549,18.774
13.536,0.85435,66.493,0.4956,0.38039,0.4,0.52549,18.462
13.544,0.86999,64.537,0.51222,0.4,0.4,0.5098,18.031
13.552,0.88465,62.973,0.53079,0.4098,0.41569,0.5098,17.562
13.56,0.89932,61.799,0.54936,0.41961,0.40392,0.50588,17.132
13.568,0.913,61.213,0.56403,0.41961,0.36471,0.5,16.701
13.576,0.92571,60.626,0.57576,0.42549,0.33922,0.4902,16.31
13.584,0.93939,60.43,0.58456,0.43529,0.33529,0.4902,15.88
13.592,0.95406,60.43,0.59042,0.4098,0.32941,0.5,15.528
13.6,0.96872,60.626,0.59433,0.4,0.32941,0.50588,15.137
13.608,0.98338,61.017,0.59726,0.38039,0.33922,0.50588,14.824
13.616,0.99902,61.604,0.59922,0.38039,0.35882,0.51569,14.589
13.624,1,62.582,0.59922,0.37451,0.38039,0.52941,14.394
13.632,1,63.168,0.59726,0.3549,0.38431,0.53922,14.276
13.64,1,63.95,0.59531,0.34902,0.3902,0.55098,14.12
13.648,1,64.537,0.59335,0.3451,0.3902,0.55098,14.12
13.656,1,65.124,0.59042,0.3451,0.3902,0.55098,14.081
13.664,1,65.319,0.58749,0.33922,0.39412,0.5451,14.12
13.672,1,65.515,0.58456,0.3098,0.46078,0.56078,14.198
13.68,1,65.515,0.58162,0.26863,0.5549,0.57451,14.394
13.688,1,65.319,0.57967,0.37451,0.52549,0.49412,14.628
13.696,1,64.928,0.57967,0.67059,0.094118,0.31961,15.02
13.704,1,64.342,0.58065,0.91176,-0.40196,0.16863,15.567
13.712,1,63.755,0.58162,1.0059,-0.50196,0.13333,16.193
13.72,1,62.973,0.58358,0.72157,-0.44706,0.38431,16.819
13.728,1,62.19,0.58358,0.48431,-0.11176,0.52549,17.445
13.736,1,61.408,0.5826,0.3902,0.15882,0.5549,17.875
13.744,1,60.626,0.57967,0.34902,0.33529,0.5549,18.188
13.752,1,59.844,0.57478,0.32353,0.41961,0.56078,18.344
13.76,1,59.061,0.56794,0.31373,0.4451,0.56471,18.266
13.768,1,58.279,0.55914,0.3098,0.46078,0.57059,18.149
13.776,1,57.692,0.54741,0.3,0.46471,0.57059,18.07
13.784,1,56.91,0.53568,0.30392,0.46078,0.57451,17.953
13.792,1,56.323,0.5259,0.30392,0.46078,0.57059,17.953
13.8,1,55.737,0.51711,0.30392,0.46078,0.57059,17.953
13.808,1,55.15,0.50929,0.30392,0.46078,0.56471,18.031
13.816,1,54.759,0.50244,0.30392,0.44902,0.57059,18.031
13.824,1,54.368,0.4956,0.30392,0.44902,0.57451,18.07
13.832,1,53.977,0.49071,0.31373,0.4451,0.56471,18.149
13.84,1,53.585,0.48583,0.31961,0.4451,0.57059,18.188
13.848,1,53.194,0.48192,0.32353,0.43922,0.56078,18.344
13.856,1,52.803,0.47996,0.32353,0.43922,0.56471,18.462
13.864,1,52.608,0.47703,0.32353,0.43529,0.5549,18.657
13.872,1,52.216,0.4741,0.32353,0.43529,0.56078,18.892
13.88,1,52.021,0.47019,0.32941,0.42941,0.5549,19.126
13.888,1,51.63,0.4653,0.33529,0.42941,0.5549,19.4
13.896,1,51.239,0.46041,0.33922,0.42941,0.5549,19.322
13.904,1,50.847,0.45748,0.33922,0.42941,0.5549,18.97
13.912,1,50.652,0.4565,0.3451,0.41961,0.5549,18.344
13.92,1,50.261,0.45552,0.34902,0.41961,0.55098,17.523
13.928,1,49.87,0.45455,0.34902,0.41961,0.5451,16.819
13.936,1,49.479,0.45455,0.34902,0.41961,0.5451,16.271
13.944,1,49.674,0.45455,0.3549,0.4098,0.53922,15.841
13.952,1,50.652,0.45455,0.36471,0.4098,0.53922,15.528
13.96,1,54.172,0.45455,0.37451,0.4098,0.52941,15.254
13.968,1,61.017,0.45455,0.38431,0.4098,0.52549,14.902
13.976,1,71.186,0.45357,0.4,0.40392,0.5098,14.511
13.984,1,83.507,0.45161,0.4,0.3902,0.5098,14.12
13.992,1,95.632,0.44966,0.4098,0.38431,0.5,13.807
14,1,106.19,0.44673,0.41961,0.38039,0.49412,13.572
14.008,1,114.6,0.44379,0.42941,0.37059,0.48431,13.338
14.016,1,120.86,0.43891,0.4451,0.37059,0.48039,13.142
14.024,1,124.38,0.43402,0.4451,0.37451,0.48431,13.025
14.032,1,125.75,0.43109,0.4451,0.38039,0.48039,12.947
14.04,1,124.77,0.42913,0.42941,0.3902,0.49412,12.907
14.048,1,122.03,0.4262,0.41569,0.3902,0.5,12.829
14.056,1,118.32,0.42424,0.40392,0.3902,0.5098,12.829
14.064,1,114.02,0.42326,0.39412,0.3902,0.52549,12.907
14.072,1,110.1,0.42229,0.38431,0.3902,0.52941,13.064
14.08,1,106.39,0.42229,0.38039,0.38431,0.53529,13.338
14.088,1,103.26,0.42424,0.37451,0.38039,0.5451,13.69
14.096,1,100.72,0.42717,0.37059,0.38039,0.53922,14.198
14.104,0.99804,98.761,0.43011,0.3549,0.38431,0.55098,14.824
14.112,0.99511,97.393,0.43206,0.3549,0.37451,0.55098,15.528
14.12,0.9697,96.415,0.43304,0.3549,0.37059,0.5549,16.193
14.128,0.9433,96.024,0.43304,0.34902,0.38039,0.5549,16.819
14.136,0.91593,95.632,0.43402,0.34902,0.38431,0.5549,17.405
14.144,0.88856,95.437,0.43402,0.34902,0.38431,0.5549,17.757
14.152,0.85924,95.241,0.43402,0.34902,0.38039,0.56078,18.031
14.16,0.82991,95.046,0.43206,0.3451,0.38431,0.56471,18.188
14.168,0.80059,94.655,0.43011,0.33529,0.38039,0.56471,18.344
14.176,0.77224,94.068,0.42717,0.33922,0.38039,0.5549,18.462
14.184,0.74487,93.481,0.42424,0.33529,0.38039,0.56471,18.579
14.192,0.7175,92.503,0.42131,0.33529,0.38431,0.56078,18.696
14.2,0.69404,91.33,0.41838,0.32941,0.38431,0.56471,18.892
14.208,0.67155,89.765,0.4174,0.33529,0.3902,0.56471,19.126
14.216,0.65298,88.201,0.4174,0.33529,0.38431,0.57059,19.322
14.224,0.63441,86.05,0.42131,0.33922,0.3902,0.56078,19.439
14.232,0.61779,83.898,0.4262,0.32941,0.38431,0.56471,19.439
14.24,0.60117,81.356,0.43402,0.32941,0.38431,0.56471,19.4
14.248,0.58749,78.618,0.44673,0.32941,0.38039,0.56471,19.205
14.256,0.5738,75.685,0.46237,0.33529,0.38039,0.57059,18.97
14.264,0.56207,72.751,0.48289,0.32941,0.38039,0.56471,18.579
14.272,0.55034,69.818,0.50342,0.32941,0.3902,0.57451,18.07
14.28,0.54057,67.08,0.52493,0.33529,0.3902,0.56471,17.523
14.288,0.53079,64.733,0.54545,0.34902,0.3902,0.5549,16.936
14.296,0.52395,62.973,0.565,0.35882,0.40392,0.5549,16.389
14.304,0.51613,61.604,0.58065,0.37451,0.41569,0.5451,15.958
14.312,0.51026,60.626,0.59433,0.38039,0.38431,0.53529,15.528
14.32,0.5044,60.039,0.60508,0.3902,0.3451,0.53529,15.02
14.328,0.49951,59.844,0.61095,0.39412,0.33922,0.52941,14.589
14.336,0.4956,59.648,0.61486,0.3902,0.32353,0.52941,14.081
14.344,0.49169,59.648,0.61681,0.37451,0.32353,0.52941,13.69
14.352,0.48778,60.039,0.61681,0.3549,0.32941,0.52941,13.377
14.36,0.48485,60.626,0.61584,0.34902,0.33922,0.53529,13.064
14.368,0.48192,61.408,0.61584,0.3451,0.36471,0.5549,12.907
14.376,0.47996,61.995,0.61681,0.32353,0.38039,0.56078,12.751
14.384,0.47801,62.973,0.61779,0.31373,0.3902,0.57451,12.634
14.392,0.47507,63.755,0.61779,0.30392,0.3902,0.58039,12.634
14.4,0.47312,64.342,0.61779,0.30392,0.3902,0.58039,12.634
14.408,0.47019,64.733,0.61681,0.30392,0.39412,0.57451,12.712
14.416,0.46823,64.928,0.61584,0.3,0.40392,0.58431,12.751
14.424,0.4653,65.124,0.6129,0.25882,0.5098,0.6098,12.947
14.432,0.46237,64.928,0.60997,0.2451,0.57059,0.6,13.259
14.44,0.45943,64.537,0.60802,0.42941,0.46078,0.48039,13.768
14.448,0.4565,63.95,0.60508,0.74118,-0.092157,0.28431,14.433
14.456,0.45161,63.364,0.60215,0.93725,-0.50196,0.16863,15.254
14.464,0.44673,62.777,0.59922,0.98235,-0.50196,0.24902,16.076
14.472,0.43988,61.995,0.59629,0.57059,-0.33725,0.4902,16.78
14.48,0.43304,61.213,0.59335,0.4,-0.031373,0.58039,17.21
14.488,0.42424,60.43,0.59042,0.32941,0.23922,0.59608,17.405
14.496,0.41544,59.844,0.58749,0.30392,0.3902,0.5902,17.327
14.504,0.40469,59.061,0.58456,0.28431,0.4549,0.6,17.249
14.512,0.39492,58.279,0.57967,0.27843,0.47451,0.6,17.132
14.52,0.38514,57.692,0.57283,0.27451,0.48431,0.6,17.132
14.528,0.37439,57.106,0.565,0.27451,0.4902,0.59608,17.21
14.536,0.36364,56.519,0.55718,0.26863,0.4902,0.6,17.327
14.544,0.35386,55.932,0.55034,0.27451,0.48431,0.59608,17.445
14.552,0.34213,55.346,0.54154,0.27843,0.48039,0.6,17.562
14.56,0.33138,54.954,0.53177,0.27843,0.48431,0.59608,17.757
14.568,0.31965,54.563,0.52199,0.27843,0.48039,0.6,17.953
14.576,0.30792,54.172,0.51124,0.28431,0.48039,0.5902,18.07
14.584,0.29717,53.781,0.50147,0.2902,0.47451,0.58431,18.266
14.592,0.28641,53.39,0.49365,0.29412,0.47451,0.58431,18.383
14.6,0.27761,52.999,0.48583,0.3,0.47059,0.58431,18.657
14.608,0.26882,52.803,0.47996,0.30392,0.46471,0.58039,18.97
14.616,0.26002,52.412,0.47312,0.30392,0.46078,0.57451,19.4
14.624,0.2522,52.216,0.46921,0.31373,0.46078,0.57451,19.909
14.632,0.24438,51.825,0.46628,0.31373,0.44902,0.57059,20.339
14.64,0.23754,51.63,0.4653,0.32353,0.4451,0.57451,20.378
14.648,0.23265,51.239,0.46334,0.32353,0.4451,0.57059,20.065
14.656,0.22776,51.043,0.46041,0.33529,0.44902,0.56471,19.322
14.664,0.22581,50.652,0.45943,0.33922,0.43922,0.56078,18.383
14.672,0.22385,50.261,0.45846,0.33922,0.43922,0.56471,17.445
14.68,0.22287,49.87,0.45846,0.34902,0.43529,0.5549,16.623
14.688,0.22287,49.479,0.45846,0.3451,0.43529,0.5549,15.997
14.696,0.22287,49.87,0.45846,0.34902,0.43529,0.55098,15.45
14.704,0.22385,51.239,0.45846,0.3549,0.43529,0.5451,14.941
14.712,0.22678,55.15,0.4565,0.37059,0.42549,0.53529,14.433
14.72,0.22874,62.582,0.45357,0.38039,0.41961,0.52941,14.081
14.728,0.23167,73.142,0.45064,0.39412,0.4098,0.51961,13.69
14.736,0.23558,85.267,0.4477,0.4,0.4098,0.5098,13.338
14.744,0.23851,97.001,0.44477,0.41961,0.40392,0.5,13.025
14.752,0.24047,106.98,0.44184,0.42549,0.39412,0.5,12.829
14.76,0.24242,114.8,0.43891,0.43529,0.38431,0.48431,12.712
14.768,0.24438,120.47,0.43695,0.43922,0.38039,0.4902,12.634
14.776,0.24536,123.79,0.435,0.43922,0.38431,0.4902,12.634
14.784,0.24633,124.58,0.43304,0.43922,0.3902,0.49412,12.712
14.792,0.24633,123.4,0.43109,0.42549,0.39412,0.49412,12.751
14.8,0.24633,120.67,0.42913,0.41569,0.39412,0.50588,12.829
14.808,0.2434,116.95,0.42815,0.4,0.4,0.5098,12.947
14.816,0.24047,113.04,0.42815,0.3902,0.39412,0.52549,13.142
14.824,0.2346,109.32,0.42913,0.38039,0.3902,0.52941,13.455
14.832,0.22972,106,0.42913,0.37451,0.38431,0.53529,13.768
14.84,0.22385,103.06,0.43011,0.37059,0.38039,0.53922,14.198
14.848,0.21799,100.91,0.42913,0.36471,0.37059,0.5451,14.707
14.856,0.21212,98.957,0.42717,0.36471,0.37451,0.5451,15.254
14.864,0.20528,97.588,0.4262,0.36471,0.37059,0.55098,15.841
14.872,0.19746,96.61,0.42326,0.3549,0.37451,0.55098,16.389
14.88,0.18964,95.828,0.42131,0.3549,0.37059,0.55098,16.819
14.888,0.17986,95.241,0.41838,0.34902,0.36471,0.5549,17.249
14.896,0.17107,94.655,0.41544,0.34902,0.36471,0.5549,17.562
14.904,0.16129,94.068,0.41349,0.34902,0.37451,0.56078,17.836
14.912,0.15249,93.481,0.41153,0.34902,0.38039,0.5549,18.07
14.92,0.1437,93.09,0.40958,0.3451,0.38039,0.56471,18.188
14.928,0.1349,92.308,0.40762,0.33922,0.38431,0.56078,18.344
14.936,0.1261,91.525,0.40665,0.33922,0.3902,0.56078,18.383
14.944,0.11828,90.548,0.40469,0.3451,0.38431,0.5549,18.501
14.952,0.10948,89.179,0.40469,0.33922,0.3902,0.56078,18.696
14.96,0.10068,87.614,0.40665,0.3451,0.3902,0.5549,18.892
14.968,0.093842,86.05,0.4086,0.33922,0.3902,0.56078,19.087
14.976,0.086999,84.094,0.41056,0.33922,0.3902,0.5549,19.126
14.984,0.081134,81.747,0.41447,0.33922,0.3902,0.56471,19.087
14.992,0.075269,79.205,0.42131,0.33922,0.3902,0.56078,18.97
15,0.071359,76.271,0.43304,0.3451,0.3902,0.56078,18.774
15.008,0.067449,73.338,0.44673,0.3451,0.3902,0.5549,18.462
15.016,0.064516,70.404,0.46432,0.3451,0.3902,0.5549,18.149
15.024,0.061584,67.666,0.48485,0.34902,0.39412,0.55098,17.718
15.032,0.059629,65.319,0.50342,0.34902,0.4,0.5451,17.21
15.04,0.057674,63.364,0.51906,0.36471,0.4098,0.53922,16.623
15.048,0.055718,61.995,0.53568,0.37451,0.41961,0.53922,16.154
15.056,0.054741,61.213,0.55034,0.3902,0.4098,0.52941,15.684
15.064,0.054741,60.43,0.56598,0.39412,0.35882,0.52941,15.215
15.072,0.054741,60.039,0.57967,0.39412,0.33922,0.52941,14.707
15.08,0.054741,59.844,0.59238,0.39412,0.32941,0.52549,14.276
15.088,0.055718,59.844,0.60313,0.38039,0.32353,0.52941,13.885
15.096,0.056696,60.039,0.61095,0.37059,0.33529,0.52941,13.572
15.104,0.058651,60.43,0.61388,0.34902,0.33922,0.53529,13.377
15.112,0.061584,61.017,0.61584,0.34902,0.35882,0.5451,13.181
15.12,0.063539,61.799,0.61681,0.33529,0.38039,0.56078,13.025
15.128,0.066471,62.582,0.61486,0.31961,0.3902,0.57451,12.947
15.136,0.069404,63.168,0.6129,0.3098,0.3902,0.58039,12.829
15.144,0.073314,63.755,0.60997,0.30392,0.3902,0.58039,12.751
15.152,0.076246,64.342,0.60802,0.30392,0.3902,0.58431,12.751
15.16,0.080156,64.537,0.60508,0.30392,0.39412,0.58431,12.829
15.168,0.083089,64.733,0.60215,0.28431,0.43922,0.59608,13.025
15.176,0.086022,64.733,0.59922,0.24902,0.5549,0.6098,13.259
15.184,0.088954,64.537,0.59629,0.31961,0.56471,0.5549,13.69
15.192,0.091887,64.146,0.59335,0.59608,0.20392,0.38039,14.276
15.2,0.094819,63.559,0.59042,0.84118,-0.34706,0.21373,14.941
15.208,0.097752,62.973,0.58651,0.97059,-0.50196,0.16863,15.645
15.216,0.10068,62.386,0.58162,0.74118,-0.50196,0.37059,16.389
15.224,0.10264,61.604,0.57576,0.46471,-0.19216,0.55098,16.897
15.232,0.10557,60.821,0.57087,0.35882,0.1098,0.58039,17.21
15.24,0.10753,60.235,0.565,0.3098,0.31961,0.5902,17.249
15.248,0.11046,59.452,0.55914,0.2902,0.41569,0.59608,17.132
15.256,0.11241,58.67,0.55327,0.27843,0.4549,0.6,17.014
15.264,0.11535,57.888,0.54741,0.27843,0.47059,0.6,16.936
15.272,0.1173,57.301,0.54057,0.27451,0.48039,0.6,16.936
15.28,0.11926,56.519,0.53372,0.27451,0.48039,0.6,17.014
15.288,0.12023,55.932,0.52688,0.27451,0.48039,0.6,17.093
15.296,0.12121,55.346,0.52102,0.27843,0.48039,0.59608,17.21
15.304,0.12121,54.759,0.51417,0.27451,0.48039,0.6,17.249
15.312,0.12219,54.172,0.50538,0.27843,0.48039,0.59608,17.405
15.32,0.12219,53.781,0.49462,0.2902,0.47451,0.59608,17.523
15.328,0.12317,53.39,0.48583,0.2902,0.47451,0.5902,17.718
15.336,0.12414,52.999,0.47898,0.29412,0.47451,0.59608,17.875
15.344,0.12512,52.608,0.47116,0.3,0.47059,0.5902,18.149
15.352,0.12512,52.216,0.4653,0.30392,0.46471,0.58431,18.462
15.36,0.12512,52.021,0.45846,0.30392,0.46078,0.58431,18.814
15.368,0.12414,51.63,0.45259,0.3098,0.46078,0.58039,19.322
15.376,0.12414,51.239,0.4477,0.31373,0.4549,0.57451,19.713
15.384,0.12317,51.043,0.44477,0.31961,0.44902,0.57451,19.909
15.392,0.12317,50.652,0.44086,0.31961,0.4451,0.57059,19.713
15.4,0.12219,50.456,0.43891,0.32353,0.44902,0.57059,19.126
15.408,0.12219,50.065,0.43793,0.32941,0.4451,0.56471,18.266
15.416,0.12121,49.87,0.43597,0.32941,0.43922,0.57059,17.445
15.424,0.12121,49.479,0.43597,0.33529,0.43922,0.56078,16.623
15.432,0.12023,49.087,0.435,0.3451,0.43529,0.5549,15.997
15.44,0.12023,49.087,0.435,0.3451,0.43529,0.5451,15.45
15.448,0.12023,49.87,0.435,0.3549,0.43529,0.53922,15.02
15.456,0.12023,52.608,0.435,0.36471,0.43529,0.53529,14.628
15.464,0.12121,58.279,0.435,0.37451,0.42941,0.52941,14.276
15.472,0.12219,67.275,0.43402,0.38431,0.42941,0.52549,13.885
15.48,0.12317,78.814,0.43304,0.39412,0.42549,0.51961,13.494
15.488,0.12512,90.939,0.43206,0.40392,0.4098,0.5098,13.142
15.496,0.12708,102.09,0.43206,0.41961,0.40392,0.5,12.907
15.504,0.12903,110.89,0.43304,0.42941,0.39412,0.49412,12.634
15.512,0.13099,117.73,0.43402,0.4451,0.3902,0.48431,12.595
15.52,0.13294,122.03,0.43402,0.4451,0.3902,0.48431,12.595
15.528,0.1349,124.19,0.43402,0.4451,0.3902,0.4902,12.634
15.536,0.13685,123.99,0.43402,0.43529,0.39412,0.5,12.634
15.544,0.13783,122.23,0.43206,0.41961,0.39412,0.50588,12.712
15.552,0.13978,118.9,0.43011,0.40392,0.39412,0.51569,12.829
15.56,0.13978,114.8,0.42717,0.39412,0.4,0.51961,13.025
15.568,0.14076,110.89,0.42522,0.38431,0.39412,0.52941,13.259
15.576,0.14076,107.17,0.42326,0.38039,0.3902,0.52941,13.572
15.584,0.14076,103.85,0.42229,0.37451,0.3902,0.53922,14.003
15.592,0.13978,101.3,0.42229,0.37451,0.38039,0.53529,14.511
15.6,0.13978,99.348,0.42131,0.36471,0.37451,0.5451,15.059
15.608,0.13685,97.784,0.42131,0.36471,0.38039,0.55098,15.645
15.616,0.1349,96.61,0.42131,0.37059,0.38039,0.5451,16.154
15.624,0.13099,95.828,0.41935,0.36471,0.38431,0.55098,16.623
15.632,0.12805,95.241,0.41838,0.37059,0.38039,0.5549,17.014
15.64,0.12512,94.85,0.4174,0.3549,0.38431,0.5549,17.405
15.648,0.12317,94.263,0.41447,0.35882,0.38431,0.5549,17.757
15.656,0.12023,93.872,0.41251,0.3549,0.3902,0.5549,18.031
15.664,0.11828,93.286,0.40958,0.3549,0.38039,0.5549,18.266
15.672,0.11535,92.699,0.40665,0.34902,0.38431,0.5549,18.383
15.68,0.11241,92.112,0.40371,0.34902,0.38431,0.5549,18.462
15.688,0.10948,91.33,0.40078,0.34902,0.38431,0.5549,18.501
15.696,0.10655,90.352,0.39883,0.34902,0.3902,0.5549,18.696
15.704,0.10362,89.179,0.39785,0.34902,0.3902,0.5549,18.892
15.712,0.10068,87.614,0.39785,0.34902,0.3902,0.5549,19.205
15.72,0.097752,85.854,0.39883,0.3451,0.3902,0.56078,19.439
15.728,0.095797,83.703,0.40176,0.34902,0.3902,0.5549,19.518
15.736,0.093842,81.16,0.4086,0.3451,0.38431,0.5549,19.322
15.744,0.091887,78.422,0.4174,0.3451,0.38039,0.5549,19.009
15.752,0.089932,75.293,0.43109,0.33922,0.3902,0.5549,18.696
15.76,0.088954,72.36,0.4477,0.3451,0.3902,0.5549,18.344
15.768,0.087977,69.426,0.46725,0.34902,0.3902,0.56078,17.875
15.776,0.087977,66.688,0.48974,0.34902,0.3902,0.5549,17.405
15.784,0.087977,64.342,0.51124,0.35882,0.4,0.55098,16.897
15.792,0.087977,62.582,0.53177,0.37451,0.4098,0.53922,16.467
15.8,0.088954,61.408,0.55034,0.38039,0.41961,0.5451,15.958
15.808,0.089932,60.626,0.56696,0.39412,0.4,0.52941,15.45
15.816,0.090909,60.039,0.57967,0.4,0.34902,0.52941,14.902
15.824,0.092864,59.648,0.59042,0.4,0.33529,0.52549,14.394
15.832,0.094819,59.648,0.59629,0.39412,0.32353,0.52941,14.003
15.84,0.097752,59.844,0.60117,0.38039,0.33529,0.52941,13.69
15.848,0.10166,60.039,0.60313,0.37059,0.32941,0.52941,13.377
15.856,0.10459,60.626,0.60411,0.34902,0.33922,0.53529,13.181
15.864,0.1085,61.408,0.60411,0.34902,0.35882,0.55098,13.025
15.872,0.11241,62.19,0.60313,0.33529,0.38039,0.5549,12.907
15.88,0.11632,62.973,0.60313,0.32353,0.3902,0.57059,12.829
15.888,0.12023,63.559,0.60313,0.31373,0.3902,0.57451,12.751
15.896,0.12414,64.146,0.60313,0.31373,0.3902,0.57451,12.751
15.904,0.12903,64.537,0.60117,0.31373,0.3902,0.58039,12.751
15.912,0.13392,64.733,0.59824,0.3098,0.3902,0.57059,12.907
15.92,0.13783,64.928,0.59531,0.28431,0.46471,0.5902,13.142
15.928,0.14174,64.733,0.59238,0.2549,0.56078,0.6,13.455
15.936,0.14663,64.342,0.58944,0.37059,0.52941,0.51961,13.963
15.944,0.14956,63.95,0.58651,0.66471,0.04902,0.32353,14.511
15.952,0.15249,63.168,0.58358,0.8902,-0.45686,0.18431,15.215
15.96,0.15543,62.582,0.58065,0.97647,-0.50196,0.1549,15.88
15.968,0.15738,61.799,0.57771,0.67059,-0.48235,0.41961,16.584
15.976,0.15934,61.213,0.57478,0.4451,-0.14118,0.5549,17.014
15.984,0.16129,60.43,0.57087,0.3549,0.14902,0.58039,17.249
15.992,0.16129,59.648,0.56794,0.31961,0.33922,0.58431,17.327
16,0.16227,58.866,0.56305,0.3,0.42941,0.5902,17.249
16.008,0.16325,58.279,0.55718,0.28431,0.46471,0.59608,17.132
16.016,0.16325,57.497,0.55034,0.28431,0.48039,0.6,17.093
16.024,0.16422,56.91,0.54154,0.2902,0.48431,0.58431,17.132
16.032,0.1652,56.323,0.5347,0.28431,0.48431,0.5902,17.21
16.04,0.1652,55.737,0.52884,0.28431,0.48039,0.58431,17.327
16.048,0.16618,55.15,0.52297,0.2902,0.48039,0.58431,17.405
16.056,0.16618,54.759,0.51711,0.2902,0.48431,0.58039,17.523
16.064,0.16716,54.172,0.50929,0.29412,0.48039,0.58039,17.64
16.072,0.16716,53.781,0.50147,0.29412,0.47451,0.58431,17.757
16.08,0.16716,53.39,0.49462,0.30392,0.47059,0.57451,17.953
16.088,0.16716,52.999,0.48778,0.30392,0.46471,0.57059,18.188
16.096,0.16813,52.608,0.48192,0.3098,0.46471,0.57059,18.501
16.104,0.16813,52.216,0.47605,0.31373,0.46078,0.57451,18.97
16.112,0.16911,52.021,0.47019,0.31961,0.46078,0.57059,19.439
16.12,0.17009,51.63,0.46432,0.31961,0.46471,0.57451,19.909
16.128,0.17009,51.434,0.45943,0.32353,0.4549,0.56471,20.339
16.136,0.17107,51.239,0.45552,0.32353,0.46078,0.57059,20.456
16.144,0.17204,50.847,0.45259,0.33529,0.4451,0.5549,20.222
16.152,0.174,50.652,0.45064,0.33529,0.44902,0.5549,19.439
16.16,0.17498,50.261,0.44966,0.33922,0.44902,0.5549,18.501
16.168,0.17693,49.87,0.44868,0.33922,0.4451,0.5549,17.523
16.176,0.17889,49.674,0.4477,0.34902,0.4451,0.5549,16.584
16.184,0.18084,49.283,0.44379,0.34902,0.4451,0.55098,15.841
16.192,0.1828,49.479,0.43891,0.3549,0.43529,0.52941,15.137
16.2,0.18573,50.652,0.435,0.36471,0.43529,0.52941,14.707
16.208,0.18768,54.172,0.43304,0.37451,0.42941,0.52549,14.276
16.216,0.19062,60.821,0.43109,0.38431,0.42549,0.51569,13.963
16.224,0.19355,70.6,0.43011,0.4,0.41961,0.50588,13.651
16.232,0.19648,82.529,0.42913,0.4098,0.41569,0.50588,13.338
16.24,0.19844,94.459,0.42913,0.41961,0.4098,0.4902,13.025
16.248,0.20137,104.82,0.42815,0.42941,0.40392,0.48431,12.751
16.256,0.2043,113.04,0.42815,0.4451,0.3902,0.48039,12.595
16.264,0.20626,119.1,0.42717,0.44902,0.3902,0.48039,12.516
16.272,0.20919,122.82,0.42717,0.44902,0.3902,0.48039,12.595
16.28,0.21114,124.38,0.4262,0.4549,0.3902,0.47451,12.712
16.288,0.2131,123.6,0.4262,0.4451,0.39412,0.4902,12.829
16.296,0.2131,121.25,0.42522,0.42941,0.4,0.49412,13.025
16.304,0.21408,117.73,0.42326,0.41961,0.40392,0.50588,13.259
16.312,0.21408,113.82,0.42033,0.4098,0.4,0.5098,13.455
16.32,0.2131,110.1,0.41838,0.4,0.39412,0.51961,13.69
16.328,0.21212,106.39,0.41642,0.39412,0.3902,0.51961,14.081
16.336,0.21114,103.26,0.41447,0.3902,0.3902,0.52549,14.433
16.344,0.20919,100.72,0.41153,0.38431,0.38039,0.52549,14.902
16.352,0.20723,98.761,0.40958,0.38039,0.38431,0.52941,15.372
16.36,0.20528,97.197,0.40958,0.38039,0.37451,0.52941,15.88
16.368,0.20235,96.415,0.40958,0.38039,0.38039,0.52941,16.389
16.376,0.20039,95.632,0.4086,0.37451,0.38039,0.52941,16.819
16.384,0.19746,95.241,0.40762,0.37451,0.38431,0.53529,17.249
16.392,0.19453,95.046,0.40567,0.37059,0.38431,0.53529,17.718
16.4,0.19159,94.655,0.40371,0.37059,0.38431,0.53529,18.031
16.408,0.19062,94.459,0.40078,0.37059,0.3902,0.53529,18.266
16.416,0.19062,94.068,0.39785,0.37059,0.3902,0.53529,18.383
16.424,0.19062,93.481,0.39589,0.36471,0.38431,0.53529,18.462
16.432,0.19159,92.894,0.39394,0.35882,0.38431,0.53922,18.579
16.44,0.19355,92.112,0.39296,0.36471,0.3902,0.53529,18.696
16.448,0.1955,90.939,0.39198,0.35882,0.38431,0.53922,18.814
16.456,0.19844,89.57,0.39101,0.35882,0.3902,0.53529,19.009
16.464,0.20137,87.81,0.39101,0.36471,0.3902,0.53529,19.205
16.472,0.20723,85.854,0.39101,0.35882,0.3902,0.52941,19.322
16.48,0.2131,83.507,0.39492,0.36471,0.39412,0.53529,19.4
16.488,0.2219,80.965,0.40176,0.35882,0.3902,0.53529,19.322
16.496,0.22972,78.227,0.41153,0.37059,0.3902,0.52941,19.283
16.504,0.23851,75.293,0.42424,0.36471,0.3902,0.53529,19.205
16.512,0.24731,72.164,0.44086,0.36471,0.3902,0.53529,19.009
16.52,0.25709,69.231,0.46041,0.35882,0.3902,0.53922,18.774
16.528,0.26588,66.688,0.47996,0.36471,0.39412,0.53529,18.383
16.536,0.27859,64.537,0.49658,0.37059,0.4,0.52941,17.953
16.544,0.29032,62.777,0.51613,0.38431,0.40392,0.51961,17.445
16.552,0.30499,61.604,0.53372,0.4,0.41961,0.51961,16.936
16.56,0.31965,60.821,0.55034,0.40392,0.4098,0.5098,16.467
16.568,0.33724,60.235,0.565,0.41569,0.37451,0.50588,15.958
16.576,0.35386,60.039,0.57576,0.41961,0.33922,0.50588,15.45
16.584,0.37341,59.844,0.58456,0.41961,0.33922,0.50588,15.02
16.592,0.39198,60.039,0.58944,0.4098,0.32941,0.50588,14.589
16.6,0.41056,60.43,0.5914,0.39412,0.33922,0.50588,14.315
16.608,0.42815,61.017,0.59042,0.38039,0.33922,0.50588,14.12
16.616,0.44477,61.604,0.58944,0.37451,0.3549,0.51961,14.003
16.624,0.46139,62.582,0.58944,0.37059,0.38039,0.52941,13.807
