Time [s], RESP, PLETH, II, V, AVR
0,1,0.51026,-0.49805,0.96667,1.0938
0.008,1,0.50342,-0.49805,1.0569,1.0996
0.016,1,0.49462,-0.49805,1.0725,1.0488
0.024,1,0.4868,-0.38477,1.0059,1.0039
0.032,1,0.47996,-0.21875,0.95098,0.95898
0.04,1,0.4741,-0.10352,0.91569,0.92969
0.048,1,0.47019,-0.070312,0.88627,0.92383
0.056,1,0.46628,-0.054688,0.87059,0.92383
0.064,1,0.46432,-0.048828,0.86078,0.92383
0.072,1,0.46237,-0.044922,0.85686,0.92383
0.08,1,0.46139,-0.039062,0.85098,0.91992
0.088,1,0.46041,-0.035156,0.85686,0.91406
0.096,1,0.45846,-0.035156,0.85098,0.91992
0.104,1,0.4565,-0.029297,0.8451,0.91406
0.112,1,0.45455,-0.025391,0.8451,0.91406
0.12,1,0.45259,-0.029297,0.8451,0.91406
0.128,1,0.45064,-0.025391,0.8451,0.91406
0.136,1,0.44868,-0.029297,0.8451,0.91992
0.144,1,0.44575,-0.025391,0.8451,0.91016
0.152,1,0.44379,-0.025391,0.85098,0.91016
0.16,1,0.44086,-0.025391,0.85686,0.91016
0.168,1,0.43891,-0.029297,0.85098,0.91406
0.176,1,0.43695,-0.035156,0.85686,0.91016
0.184,1,0.435,-0.035156,0.85686,0.91016
0.192,1,0.43206,-0.039062,0.86078,0.91016
0.2,1,0.43011,-0.039062,0.86667,0.91016
0.208,1,0.42815,-0.054688,0.86667,0.91992
0.216,1,0.4262,-0.064453,0.87647,0.91992
0.224,1,0.42424,-0.074219,0.88039,0.92969
0.232,1,0.42326,-0.089844,0.88039,0.93555
0.24,1,0.42131,-0.09375,0.88039,0.93555
0.248,1,0.41935,-0.099609,0.88039,0.93555
0.256,1,0.41642,-0.089844,0.87647,0.93555
0.264,1,0.41447,-0.083984,0.86667,0.91992
0.272,1,0.41153,-0.048828,0.85686,0.90039
0.28,1,0.40958,-0.0097656,0.84118,0.87891
0.288,1,0.40665,0.019531,0.82549,0.86523
0.296,1,0.40469,0.041016,0.82157,0.85547
0.304,1,0.40176,0.050781,0.81569,0.84961
0.312,1,0.3998,0.050781,0.81569,0.85547
0.32,1,0.39785,0.044922,0.81569,0.85547
0.328,1,0.39589,0.03125,0.81569,0.86523
0.336,1,0.39394,0.025391,0.82549,0.86914
0.344,1,0.39198,0.015625,0.83137,0.875
0.352,1,0.39003,0.0097656,0.83529,0.88477
0.36,1,0.38807,0.0097656,0.83529,0.87891
0.368,1,0.38612,0.0058594,0.83529,0.88477
0.376,1,0.38416,0.0058594,0.83529,0.88477
0.384,1,0.38221,0.015625,0.83137,0.87891
0.392,1,0.38025,0.019531,0.82549,0.88477
0.4,1,0.3783,0.03125,0.82549,0.875
0.408,1,0.37634,0.041016,0.82157,0.86523
0.416,1,0.37439,0.044922,0.82157,0.86523
0.424,1,0.37243,0.044922,0.81569,0.86523
0.432,1,0.37146,0.050781,0.81569,0.85938
0.44,1,0.3695,0.054688,0.81176,0.85938
0.448,1,0.36755,0.054688,0.81176,0.85547
0.456,1,0.36559,0.050781,0.81176,0.85938
0.464,1,0.36364,0.044922,0.81176,0.86523
0.472,1,0.3607,0.044922,0.81176,0.86523
0.48,1,0.35875,0.041016,0.81176,0.86523
0.488,1,0.35679,0.041016,0.81176,0.86523
0.496,1,0.35582,0.035156,0.81176,0.86523
0.504,1,0.35875,0.035156,0.81176,0.86523
0.512,1,0.36559,0.03125,0.81176,0.86523
0.52,1,0.37634,0.03125,0.81176,0.86523
0.528,1,0.39003,0.03125,0.81569,0.86523
0.536,0.99804,0.41251,0.03125,0.81176,0.86523
0.544,0.99511,0.43988,0.03125,0.81569,0.86523
0.552,0.98925,0.47312,0.03125,0.81569,0.86523
0.56,0.98338,0.50929,0.03125,0.81569,0.86523
0.568,0.97752,0.54545,0.025391,0.81569,0.86914
0.576,0.97263,0.58162,0.025391,0.81569,0.86523
0.584,0.96872,0.61388,0.03125,0.81569,0.85938
0.592,0.96383,0.64321,0.019531,0.81569,0.86523
0.6,0.95992,0.66862,0.025391,0.81569,0.86523
0.608,0.95699,0.68915,0.03125,0.81176,0.86523
0.616,0.9521,0.70674,0.044922,0.80588,0.85547
0.624,0.94819,0.71848,0.060547,0.80588,0.84375
0.632,0.9433,0.7263,0.070312,0.80588,0.84961
0.64,0.93842,0.73412,0.070312,0.81176,0.83984
0.648,0.93255,0.73998,0.076172,0.79608,0.83008
0.656,0.92766,0.74487,0.076172,0.78039,0.83398
0.664,0.92082,0.7478,0.064453,0.77647,0.83398
0.672,0.91496,0.74976,0.064453,0.7902,0.82422
0.68,0.90811,0.75073,0.054688,0.78039,0.83398
0.688,0.90225,0.74878,0.050781,0.77647,0.83984
0.696,0.89541,0.74585,0.035156,0.7902,0.84961
0.704,0.88856,0.74096,0.0097656,0.79608,0.86914
0.712,0.88172,0.73314,-0.0097656,0.80588,0.88867
0.72,0.8739,0.72434,-0.013672,0.8,0.88867
0.728,0.86608,0.71359,-0.013672,0.80588,0.88867
0.736,0.85826,0.6999,-0.0097656,0.80588,0.88867
0.744,0.85044,0.68426,-0.0039062,0.81176,0.89453
0.752,0.84262,0.66667,-0.029297,0.85686,0.92383
0.76,0.8348,0.64809,0.29492,0.78627,0.74023
0.768,0.82698,0.62854,1.1348,0.48039,0.2207
0.776,0.81818,0.60899,1.2539,0.38431,0.14062
0.784,0.80938,0.59042,-0.27344,0.79608,0.95508
0.792,0.79961,0.57283,-0.49805,0.94118,1.0391
0.8,0.78983,0.55718,-0.49805,1.0216,1.0391
0.808,0.78006,0.5435,-0.46484,0.98235,1.0137
0.816,0.77028,0.53177,-0.27344,0.92549,0.97461
0.824,0.75953,0.52297,-0.13477,0.8902,0.94531
0.832,0.74976,0.51613,-0.070312,0.8451,0.92969
0.84,0.74096,0.51026,-0.039062,0.82549,0.91992
0.848,0.73118,0.50538,-0.029297,0.82157,0.91406
0.856,0.72239,0.50147,-0.025391,0.81569,0.91406
0.864,0.71457,0.49756,-0.025391,0.81569,0.91992
0.872,0.70577,0.49462,-0.019531,0.81569,0.91406
0.88,0.69795,0.49071,-0.019531,0.81569,0.91016
0.888,0.68915,0.4868,-0.019531,0.81569,0.91016
0.896,0.68133,0.48192,-0.019531,0.81569,0.91406
0.904,0.67351,0.47801,-0.019531,0.81176,0.91406
0.912,0.66569,0.47214,-0.019531,0.80588,0.91406
0.92,0.65885,0.46823,-0.019531,0.80588,0.91406
0.928,0.65103,0.46334,-0.019531,0.81176,0.91406
0.936,0.64321,0.45846,-0.019531,0.81569,0.91992
0.944,0.63636,0.45259,-0.019531,0.81176,0.91016
0.952,0.62854,0.44673,-0.019531,0.81569,0.91016
0.96,0.62072,0.43988,-0.019531,0.81569,0.91016
0.968,0.6129,0.43304,-0.013672,0.81569,0.9043
0.976,0.60411,0.4262,-0.019531,0.82549,0.91016
0.984,0.59531,0.42033,-0.035156,0.83137,0.91406
0.992,0.58651,0.41349,-0.044922,0.83529,0.91992
1,0.57869,0.40762,-0.048828,0.84118,0.92383
1.008,0.57087,0.40176,-0.064453,0.8451,0.92969
1.016,0.56305,0.39492,-0.074219,0.85686,0.92969
1.024,0.55523,0.39003,-0.080078,0.85686,0.93555
1.032,0.54839,0.38612,-0.089844,0.85098,0.93555
1.04,0.54057,0.38123,-0.089844,0.8451,0.92969
1.048,0.53275,0.37634,-0.074219,0.83529,0.91992
1.056,0.52493,0.37048,-0.054688,0.83137,0.91016
1.064,0.51808,0.36559,-0.025391,0.81569,0.88867
1.072,0.51124,0.36168,0.015625,0.80588,0.86523
1.08,0.50342,0.35679,0.044922,0.7902,0.85547
1.088,0.49658,0.35191,0.064453,0.78627,0.83984
1.096,0.48778,0.348,0.070312,0.78627,0.83984
1.104,0.47996,0.34409,0.076172,0.78039,0.83984
1.112,0.46921,0.34018,0.070312,0.7902,0.83398
1.12,0.45943,0.33724,0.064453,0.7902,0.84375
1.128,0.44673,0.33529,0.054688,0.7902,0.84961
1.136,0.43402,0.33333,0.044922,0.79608,0.85547
1.144,0.42033,0.33138,0.041016,0.8,0.85547
1.152,0.40567,0.32845,0.03125,0.8,0.86523
1.16,0.39198,0.32649,0.025391,0.80588,0.86914
1.168,0.3783,0.32454,0.025391,0.80588,0.86914
1.176,0.36364,0.32258,0.019531,0.81176,0.875
1.184,0.34995,0.32063,0.025391,0.80588,0.86914
1.192,0.33333,0.31867,0.03125,0.80588,0.86914
1.2,0.31769,0.31672,0.035156,0.80588,0.86523
1.208,0.29912,0.31476,0.041016,0.8,0.86523
1.216,0.28152,0.31378,0.050781,0.8,0.85938
1.224,0.26588,0.31281,0.050781,0.8,0.85938
1.232,0.24927,0.31085,0.054688,0.79608,0.85547
1.24,0.23363,0.3089,0.060547,0.79608,0.85547
1.248,0.21896,0.30694,0.054688,0.79608,0.84375
1.256,0.20332,0.30401,0.060547,0.79608,0.83984
1.264,0.18768,0.30108,0.054688,0.79608,0.84375
1.272,0.17302,0.29912,0.060547,0.79608,0.84961
1.28,0.15738,0.29814,0.050781,0.79608,0.84961
1.288,0.14272,0.29912,0.050781,0.8,0.84961
1.296,0.12903,0.30499,0.050781,0.80588,0.84375
1.304,0.11632,0.31672,0.044922,0.8,0.85547
1.312,0.10362,0.33431,0.050781,0.8,0.84375
1.32,0.094819,0.35582,0.041016,0.8,0.85547
1.328,0.085044,0.38025,0.035156,0.8,0.85547
1.336,0.078201,0.41349,0.03125,0.8,0.85938
1.344,0.070381,0.45064,0.03125,0.8,0.85547
1.352,0.065494,0.48974,0.035156,0.8,0.84961
1.36,0.059629,0.52884,0.03125,0.79608,0.85938
1.368,0.054741,0.565,0.054688,0.7902,0.84375
1.376,0.050831,0.59824,0.10547,0.76667,0.83398
1.384,0.047898,0.62659,0.125,0.76667,0.82031
1.392,0.043988,0.65103,0.11523,0.77059,0.83008
1.4,0.042033,0.67155,0.076172,0.79608,0.85547
1.408,0.040078,0.68817,0.054688,0.81176,0.86523
1.416,0.037146,0.6999,0.050781,0.8,0.84961
1.424,0.035191,0.7087,0.035156,0.80588,0.84961
1.432,0.032258,0.71652,0.019531,0.81569,0.85547
1.44,0.029326,0.72336,0.0097656,0.81569,0.86523
1.448,0.025415,0.72825,0.0058594,0.81569,0.86914
1.456,0.021505,0.73314,0,0.81569,0.86523
1.464,0.016618,0.73607,0.0058594,0.81569,0.86523
1.472,0.01173,0.73705,-0.029297,0.83529,0.89453
1.48,0.0068426,0.73705,-0.039062,0.86667,0.91016
1.488,0.001955,0.73412,0.66016,0.67647,0.49414
1.496,0.00097752,0.72923,1.2598,0.4,0.099609
1.504,0,0.72239,0.20117,0.67059,0.68555
1.512,0,0.71359,-0.49414,0.91176,1.0391
1.52,0,0.70186,-0.49805,1.0275,1.0488
1.528,0,0.68915,-0.49805,1.051,1.0352
1.536,0,0.67449,-0.375,0.96078,0.98438
1.544,0,0.65689,-0.18945,0.91176,0.93555
1.552,0,0.63832,-0.074219,0.86667,0.9043
1.56,0,0.61877,-0.035156,0.84118,0.90039
1.568,0,0.59824,-0.019531,0.83137,0.90039
1.576,0,0.57967,-0.013672,0.82157,0.89453
1.584,0,0.56207,-0.0097656,0.82157,0.89453
1.592,0,0.54643,-0.0097656,0.82157,0.88867
1.6,0,0.53275,-0.0097656,0.82549,0.88867
1.608,0,0.52004,-0.0039062,0.82157,0.89453
1.616,0,0.51124,0,0.83137,0.88867
1.624,0,0.5044,-0.0039062,0.83137,0.89453
1.632,0,0.49756,0,0.83137,0.90039
1.64,0,0.49267,-0.013672,0.83137,0.9043
1.648,0,0.48778,-0.019531,0.83137,0.9043
1.656,0,0.48387,-0.013672,0.82549,0.90039
1.664,0,0.47996,-0.0097656,0.82549,0.89453
1.672,0,0.47605,-0.0097656,0.83137,0.89453
1.68,0,0.47214,-0.0097656,0.83137,0.89453
1.688,0,0.46725,-0.0039062,0.83137,0.89453
1.696,0,0.46237,-0.0039062,0.83529,0.89453
1.704,0,0.45748,-0.013672,0.84118,0.90039
1.712,0,0.45161,-0.013672,0.84118,0.90039
1.72,0,0.44673,-0.029297,0.84118,0.9043
1.728,0,0.44184,-0.044922,0.8451,0.91016
1.736,0,0.43695,-0.054688,0.85686,0.91016
1.744,0,0.43109,-0.064453,0.86078,0.91992
1.752,0,0.42424,-0.064453,0.85686,0.91406
1.76,0,0.41838,-0.070312,0.85098,0.91406
1.768,0,0.41153,-0.064453,0.8451,0.91016
1.776,0,0.40567,-0.048828,0.83529,0.90039
1.784,0,0.3998,-0.013672,0.82157,0.88477
1.792,0,0.39394,0.025391,0.81176,0.85938
1.8,0,0.38807,0.050781,0.79608,0.83984
1.808,0,0.38319,0.070312,0.7902,0.83008
1.816,0,0.3783,0.076172,0.79608,0.83008
1.824,0,0.37439,0.070312,0.7902,0.83008
1.832,0,0.37048,0.060547,0.7902,0.83984
1.84,0,0.36559,0.044922,0.8,0.84375
1.848,0,0.36168,0.035156,0.80588,0.84961
1.856,0,0.35679,0.03125,0.81569,0.85938
1.864,0,0.35288,0.019531,0.81176,0.86523
1.872,0,0.34897,0.015625,0.81176,0.86914
1.88,0,0.34506,0.0058594,0.81176,0.87891
1.888,0,0.34115,0.0058594,0.81176,0.88867
1.896,0,0.33724,0.0058594,0.80588,0.87891
1.904,0,0.33333,0.025391,0.80588,0.86914
1.912,0,0.32942,0.03125,0.8,0.86523
1.92,0,0.32747,0.03125,0.8,0.86523
1.928,0,0.32551,0.041016,0.79608,0.85938
1.936,0,0.32258,0.050781,0.7902,0.85938
1.944,0,0.31965,0.050781,0.7902,0.85547
1.952,0,0.31769,0.050781,0.78627,0.85547
1.96,0,0.31476,0.054688,0.78039,0.84961
1.968,0,0.31281,0.054688,0.77647,0.84961
1.976,0,0.30987,0.054688,0.78039,0.84375
1.984,0,0.30694,0.050781,0.78039,0.84375
1.992,0,0.30499,0.050781,0.78039,0.84375
2,0,0.30303,0.050781,0.78039,0.84375
2.008,0,0.30205,0.050781,0.78627,0.84375
2.016,0,0.30401,0.050781,0.78627,0.84375
2.024,0,0.3089,0.044922,0.78627,0.84375
2.032,0,0.31769,0.044922,0.7902,0.84375
2.04,0,0.33236,0.035156,0.7902,0.84961
2.048,0,0.34506,0.041016,0.79608,0.84375
2.056,0,0.35973,0.041016,0.8,0.83984
2.064,0,0.38807,0.044922,0.8,0.83984
2.072,0,0.42424,0.041016,0.8,0.84375
2.08,0,0.46432,0.041016,0.8,0.84961
2.088,0,0.5044,0.044922,0.80588,0.84375
2.096,0,0.54154,0.041016,0.80588,0.84961
2.104,0,0.57576,0.03125,0.81176,0.84375
2.112,0,0.60411,0.03125,0.81176,0.84375
2.12,0,0.62561,0.03125,0.80588,0.84961
2.128,0,0.64223,0.03125,0.80588,0.84375
2.136,0,0.65689,0.03125,0.80588,0.85547
2.144,0,0.6696,0.03125,0.81176,0.85547
2.152,0,0.67937,0.03125,0.80588,0.85547
2.16,0,0.68719,0.035156,0.80588,0.84375
2.168,0,0.69306,0.050781,0.8,0.83398
2.176,0,0.69697,0.070312,0.8,0.82422
2.184,0,0.69795,0.076172,0.8,0.82031
2.192,0,0.69892,0.076172,0.80588,0.81445
2.2,0,0.69697,0.076172,0.7902,0.80469
2.208,0,0.69306,0.085938,0.77647,0.80469
2.216,0,0.68817,0.070312,0.78039,0.81445
2.224,0,0.68035,0.060547,0.7902,0.81055
2.232,0,0.67058,0.050781,0.7902,0.81445
2.24,0,0.65787,0.041016,0.7902,0.82422
2.248,0,0.64321,0.025391,0.81176,0.84375
2.256,0,0.62561,0,0.81569,0.86523
2.264,0,0.60508,-0.0039062,0.82157,0.86523
2.272,0,0.58456,-0.0097656,0.82549,0.86914
2.28,0,0.56305,-0.0039062,0.82549,0.86523
2.288,0,0.54154,-0.0097656,0.83137,0.86914
2.296,0,0.52199,-0.019531,0.85098,0.88477
2.304,0,0.50342,0.060547,0.87647,0.89453
2.312,0,0.4868,0.65039,0.7,0.5
2.32,0,0.4741,1.1191,0.4549,0.17578
2.328,0,0.46334,0.11133,0.72549,0.74023
2.336,0,0.45357,-0.49805,0.92549,1.0801
2.344,0,0.44575,-0.49805,1.0314,1.0996
2.352,0,0.43891,-0.49805,1.0667,1.0488
2.36,0,0.43206,-0.39453,1.002,0.99414
2.368,0,0.42717,-0.24023,0.94706,0.95508
2.376,0,0.42229,-0.11914,0.91176,0.92969
2.384,0,0.4174,-0.070312,0.86078,0.91406
2.392,0,0.41251,-0.048828,0.8451,0.91406
2.4,0,0.40762,-0.044922,0.84118,0.91016
2.408,0,0.40274,-0.039062,0.84118,0.91016
2.416,0,0.39785,-0.035156,0.84118,0.91016
2.424,0,0.39296,-0.035156,0.84118,0.91016
2.432,0,0.38807,-0.035156,0.84118,0.91016
2.44,0,0.38221,-0.035156,0.83529,0.91016
2.448,0,0.37634,-0.035156,0.83529,0.91406
2.456,0,0.3695,-0.035156,0.83529,0.91406
2.464,0,0.36364,-0.029297,0.83137,0.91016
2.472,0,0.35777,-0.029297,0.83137,0.91016
2.48,0,0.35191,-0.025391,0.82549,0.91016
2.488,0,0.34604,-0.019531,0.82549,0.91016
2.496,0,0.34018,-0.025391,0.82157,0.91016
2.504,0,0.33431,-0.025391,0.82549,0.91016
2.512,0,0.32942,-0.025391,0.82549,0.9043
2.52,0,0.32551,-0.029297,0.83137,0.91016
2.528,0,0.3216,-0.035156,0.83529,0.9043
2.536,0,0.31867,-0.039062,0.84118,0.9043
2.544,0,0.31476,-0.044922,0.84118,0.9043
2.552,0,0.31085,-0.064453,0.8451,0.91406
2.56,0,0.30694,-0.074219,0.85098,0.91992
2.568,0,0.30303,-0.089844,0.85686,0.92969
2.576,0,0.3001,-0.099609,0.85686,0.92969
2.584,0,0.29717,-0.11523,0.85098,0.92969
2.592,0,0.29423,-0.10938,0.8451,0.93555
2.6,0.001955,0.2913,-0.099609,0.84118,0.92383
2.608,0.0039101,0.28935,-0.074219,0.83137,0.91016
2.616,0.029326,0.28739,-0.039062,0.81569,0.88477
2.624,0.054741,0.28641,0,0.80588,0.86523
2.632,0.080156,0.28446,0.035156,0.7902,0.84375
2.64,0.10459,0.2825,0.050781,0.7902,0.83984
2.648,0.13001,0.28152,0.054688,0.7902,0.83984
2.656,0.15445,0.27957,0.050781,0.7902,0.84375
2.664,0.17693,0.27859,0.041016,0.79608,0.85547
2.672,0.19844,0.27664,0.035156,0.8,0.86523
2.68,0.21701,0.27566,0.035156,0.80588,0.86523
2.688,0.23656,0.27468,0.03125,0.80588,0.86523
2.696,0.2522,0.2737,0.03125,0.81176,0.85938
2.704,0.26784,0.27273,0.035156,0.80588,0.85938
2.712,0.28055,0.27175,0.041016,0.8,0.86523
2.72,0.29326,0.27175,0.044922,0.79608,0.85938
2.728,0.30205,0.27175,0.054688,0.7902,0.84961
2.736,0.31085,0.27175,0.064453,0.79608,0.84375
2.744,0.31672,0.26979,0.070312,0.7902,0.83984
2.752,0.3216,0.26882,0.076172,0.7902,0.83984
2.76,0.32454,0.26686,0.076172,0.78627,0.83984
2.768,0.32845,0.26491,0.076172,0.7902,0.83984
2.776,0.32942,0.26295,0.076172,0.78627,0.83984
2.784,0.3304,0.26002,0.070312,0.78627,0.83984
2.792,0.32942,0.25806,0.064453,0.7902,0.83984
2.8,0.32845,0.25513,0.054688,0.7902,0.84375
2.808,0.32551,0.25318,0.050781,0.7902,0.84961
2.816,0.32356,0.25122,0.050781,0.7902,0.84961
2.824,0.32063,0.25024,0.044922,0.79608,0.84961
2.832,0.31867,0.24927,0.044922,0.8,0.85547
2.84,0.31574,0.25122,0.044922,0.79608,0.85547
2.848,0.31378,0.25611,0.035156,0.8,0.85938
2.856,0.31281,0.26588,0.035156,0.79608,0.85938
2.864,0.31085,0.2825,0.035156,0.8,0.85547
2.872,0.31085,0.30694,0.03125,0.80588,0.86523
2.88,0.30987,0.33822,0.03125,0.79608,0.86523
2.888,0.30987,0.37439,0.03125,0.8,0.86523
2.896,0.30987,0.41544,0.025391,0.79608,0.86523
2.904,0.31085,0.45748,0.03125,0.8,0.86523
2.912,0.31085,0.49951,0.03125,0.8,0.86523
2.92,0.31183,0.53275,0.019531,0.79608,0.86523
2.928,0.31183,0.56109,0.019531,0.80588,0.86523
2.936,0.31183,0.58847,0.025391,0.80588,0.86523
2.944,0.31281,0.6129,0.041016,0.79608,0.85547
2.952,0.31183,0.63343,0.054688,0.8,0.84375
2.96,0.31085,0.65005,0.064453,0.79608,0.83984
2.968,0.3089,0.66276,0.070312,0.8,0.83398
2.976,0.30694,0.67253,0.076172,0.7902,0.82031
2.984,0.30401,0.67937,0.080078,0.77647,0.82422
2.992,0.30108,0.68328,0.060547,0.77059,0.83008
3,0.29814,0.68622,0.064453,0.77647,0.82422
3.008,0.29423,0.68622,0.054688,0.77647,0.83008
3.016,0.28935,0.68524,0.050781,0.77059,0.83398
3.024,0.28348,0.68133,0.03125,0.7902,0.85547
3.032,0.27664,0.67644,0.0097656,0.8,0.86914
3.04,0.26979,0.67058,-0.013672,0.81176,0.88477
3.048,0.26197,0.66178,-0.019531,0.81176,0.88867
3.056,0.25415,0.65005,-0.019531,0.81569,0.88867
3.064,0.24536,0.63636,-0.013672,0.81176,0.88867
3.072,0.23656,0.61975,-0.019531,0.81569,0.89453
3.08,0.22972,0.60117,-0.039062,0.86667,0.92383
3.088,0.2219,0.58162,0.24609,0.81176,0.76953
3.096,0.21505,0.56207,1.0449,0.52941,0.25977
3.104,0.20821,0.54252,1.1797,0.41961,0.16016
3.112,0.20137,0.5259,-0.29883,0.82157,0.96875
3.12,0.19453,0.51124,-0.49805,0.95686,1.084
3.128,0.18768,0.49658,-0.49805,1.0471,1.0645
3.136,0.18084,0.48387,-0.48828,1.0157,1.0195
3.144,0.174,0.47214,-0.29492,0.94706,0.96875
3.152,0.16813,0.46334,-0.1543,0.91176,0.94531
3.16,0.16227,0.45552,-0.074219,0.86667,0.91992
3.168,0.15738,0.44966,-0.044922,0.83529,0.91992
3.176,0.15152,0.44477,-0.039062,0.82549,0.91992
3.184,0.14663,0.44086,-0.029297,0.82157,0.91406
3.192,0.14174,0.43695,-0.019531,0.82157,0.91016
3.2,0.13587,0.43304,-0.0097656,0.82157,0.91016
3.208,0.13196,0.43011,-0.0097656,0.82157,0.91016
3.216,0.12708,0.4262,-0.013672,0.82157,0.91016
3.224,0.12317,0.42326,-0.0097656,0.82157,0.91016
3.232,0.11926,0.41935,-0.0097656,0.81569,0.91016
3.24,0.11632,0.41544,-0.0097656,0.81569,0.91016
3.248,0.11339,0.41056,-0.0039062,0.81569,0.9043
3.256,0.11046,0.40469,-0.0097656,0.81569,0.91016
3.264,0.1085,0.39883,-0.0039062,0.81569,0.91016
3.272,0.10655,0.39296,-0.0097656,0.81569,0.9043
3.28,0.10362,0.3871,0,0.81569,0.90039
3.288,0.10166,0.38123,0.0058594,0.82157,0.89453
3.296,0.099707,0.37439,0,0.82549,0.90039
3.304,0.098729,0.36852,0,0.82549,0.90039
3.312,0.097752,0.36266,-0.0039062,0.83529,0.90039
3.32,0.096774,0.35777,-0.019531,0.84118,0.9043
3.328,0.096774,0.35288,-0.025391,0.84118,0.9043
3.336,0.096774,0.34604,-0.044922,0.85098,0.91016
3.344,0.097752,0.34018,-0.054688,0.86078,0.91406
3.352,0.098729,0.33529,-0.064453,0.86078,0.92383
3.36,0.099707,0.32942,-0.074219,0.86078,0.92383
3.368,0.10068,0.32454,-0.074219,0.85686,0.91992
3.376,0.10166,0.31965,-0.080078,0.8451,0.92383
3.384,0.10264,0.31476,-0.048828,0.83529,0.90039
3.392,0.10459,0.30987,-0.013672,0.82157,0.88477
3.4,0.10557,0.30499,0.025391,0.81176,0.85938
3.408,0.10753,0.30108,0.054688,0.79608,0.84375
3.416,0.10948,0.29717,0.076172,0.7902,0.83398
3.424,0.11046,0.29521,0.085938,0.7902,0.82422
3.432,0.11144,0.2913,0.095703,0.7902,0.82422
3.44,0.11241,0.28837,0.080078,0.7902,0.83398
3.448,0.11241,0.28446,0.076172,0.79608,0.83984
3.456,0.11241,0.28152,0.060547,0.8,0.84961
3.464,0.11046,0.27859,0.054688,0.80588,0.84961
3.472,0.10948,0.27566,0.050781,0.80588,0.85938
3.48,0.10753,0.27273,0.050781,0.81176,0.85938
3.488,0.10459,0.27077,0.050781,0.81176,0.85547
3.496,0.098729,0.26882,0.050781,0.81176,0.85938
3.504,0.092864,0.26686,0.050781,0.81176,0.85938
3.512,0.084066,0.26588,0.060547,0.81176,0.85547
3.52,0.075269,0.26588,0.064453,0.81176,0.84961
3.528,0.064516,0.26491,0.076172,0.8,0.83984
3.536,0.053763,0.26295,0.076172,0.79608,0.83984
3.544,0.041056,0.261,0.076172,0.79608,0.84375
3.552,0.029326,0.25904,0.080078,0.8,0.83984
3.56,0.018573,0.25611,0.085938,0.79608,0.83398
3.568,0.0078201,0.25415,0.085938,0.79608,0.83398
3.576,0.0039101,0.2522,0.080078,0.8,0.83398
3.584,0,0.25024,0.076172,0.79608,0.83984
3.592,0,0.24829,0.076172,0.79608,0.83984
3.6,0,0.24633,0.070312,0.7902,0.83984
3.608,0,0.24536,0.064453,0.79608,0.83984
3.616,0,0.24633,0.054688,0.8,0.84961
3.624,0,0.25024,0.050781,0.79608,0.85547
3.632,0,0.25709,0.050781,0.8,0.85938
3.64,0,0.27077,0.044922,0.80588,0.85938
3.648,0,0.29032,0.041016,0.8,0.86523
3.656,0,0.31769,0.041016,0.8,0.86523
3.664,0,0.35191,0.035156,0.79608,0.86523
3.672,0,0.39101,0.035156,0.8,0.86523
3.68,0,0.43206,0.03125,0.8,0.86523
3.688,0,0.47312,0.03125,0.80588,0.875
3.696,0,0.5132,0.03125,0.79608,0.86914
3.704,0,0.54936,0.03125,0.8,0.86914
3.712,0,0.57674,0.03125,0.7902,0.86523
3.72,0,0.59922,0.044922,0.7902,0.85547
3.728,0,0.61975,0.060547,0.7902,0.84961
3.736,0,0.63734,0.076172,0.78627,0.85547
3.744,0,0.652,0.070312,0.7902,0.83984
3.752,0,0.66373,0.076172,0.77059,0.82422
3.76,0,0.67253,0.080078,0.7549,0.83398
3.768,0,0.67937,0.064453,0.75098,0.83984
3.776,0,0.68328,0.076172,0.76667,0.82031
3.784,0,0.68622,0.060547,0.76667,0.83008
3.792,0,0.68719,0.044922,0.76667,0.84375
3.8,0,0.68719,0.03125,0.78039,0.85938
3.808,0,0.68426,0.0097656,0.78627,0.86914
3.816,0,0.68035,-0.0097656,0.7902,0.88867
3.824,0,0.67351,-0.013672,0.79608,0.88867
3.832,0,0.66569,-0.0039062,0.79608,0.88867
3.84,0,0.65591,-0.0097656,0.7902,0.88867
3.848,0,0.64321,-0.013672,0.79608,0.89453
3.856,0,0.62757,-0.029297,0.8451,0.91406
3.864,0,0.61095,0.375,0.76078,0.68555
3.872,0,0.59238,1.1348,0.47451,0.19531
3.88,0,0.57283,1.1445,0.4098,0.16992
3.888,0,0.55327,-0.38867,0.83137,1.0098
3.896,0,0.5347,-0.49805,0.95686,1.0898
3.904,0,0.51711,-0.49805,1.0373,1.0547
3.912,0,0.50147,-0.45312,1.002,1
3.92,0,0.48974,-0.27344,0.93725,0.95508
3.928,0,0.47801,-0.13867,0.90196,0.92969
3.936,0,0.46725,-0.064453,0.85098,0.91016
3.944,0,0.45943,-0.029297,0.81569,0.9043
3.952,0,0.45259,-0.013672,0.81176,0.90039
3.96,0,0.4477,-0.0097656,0.80588,0.89453
3.968,0,0.44379,-0.013672,0.80588,0.90039
3.976,0,0.43988,-0.013672,0.80588,0.90039
3.984,0,0.43597,-0.0039062,0.81176,0.88867
3.992,0,0.43304,-0.0039062,0.8,0.88477
4,0,0.43011,0.0058594,0.80588,0.88477
4.008,0,0.4262,-0.0039062,0.80588,0.88867
4.016,0,0.42229,-0.0097656,0.8,0.88867
4.024,0,0.41935,0,0.80588,0.88867
4.032,0,0.41447,0,0.80588,0.88477
4.04,0,0.40958,-0.0039062,0.81176,0.88867
4.048,0,0.40371,0.0058594,0.81569,0.88477
4.056,0,0.39687,0.0058594,0.81176,0.875
4.064,0,0.39101,0.0058594,0.81569,0.87891
4.072,0,0.38416,0,0.82157,0.88477
4.08,0,0.37732,-0.0097656,0.82549,0.875
4.088,0,0.37048,-0.019531,0.82549,0.88477
4.096,0,0.36755,-0.019531,0.84118,0.88477
4.104,0,0.36657,-0.025391,0.84118,0.88867
4.112,0,0.36364,-0.044922,0.8451,0.88867
4.12,0,0.35973,-0.064453,0.85098,0.90039
4.128,0,0.35484,-0.080078,0.86078,0.91016
4.136,0,0.348,-0.074219,0.86078,0.90039
4.144,0,0.34115,-0.070312,0.86078,0.89453
4.152,0,0.33431,-0.064453,0.85098,0.88867
4.16,0,0.32845,-0.044922,0.84118,0.875
4.168,0,0.3216,-0.0097656,0.82157,0.85938
4.176,0,0.31574,0.025391,0.81569,0.83984
4.184,0,0.30987,0.054688,0.80588,0.82422
4.192,0,0.30401,0.076172,0.8,0.81445
4.2,0,0.29814,0.070312,0.8,0.82422
4.208,0,0.29228,0.070312,0.8,0.82422
4.216,0,0.28935,0.060547,0.80588,0.83008
4.224,0,0.28641,0.044922,0.81176,0.83984
4.232,0,0.2825,0.050781,0.81569,0.84375
4.24,0,0.27859,0.035156,0.81569,0.84375
4.248,0,0.27566,0.025391,0.81569,0.85938
4.256,0,0.27175,0.019531,0.82157,0.86523
4.264,0,0.26882,0.03125,0.82549,0.85938
4.272,0,0.26588,0.015625,0.83137,0.86523
4.28,0,0.26295,0.025391,0.81569,0.85547
4.288,0,0.26002,0.041016,0.81569,0.84375
4.296,0,0.25709,0.050781,0.81569,0.83984
4.304,0,0.25415,0.054688,0.81176,0.83984
4.312,0,0.25318,0.050781,0.81569,0.83984
4.32,0,0.2522,0.060547,0.81176,0.83398
4.328,0,0.25122,0.060547,0.81569,0.83398
4.336,0,0.24927,0.050781,0.81569,0.83984
4.344,0,0.24731,0.054688,0.81176,0.83398
4.352,0,0.24438,0.044922,0.81569,0.83984
4.36,0.0078201,0.24242,0.044922,0.81569,0.83984
4.368,0.01564,0.23949,0.044922,0.81176,0.83398
4.376,0.039101,0.23656,0.03125,0.81569,0.83984
4.384,0.062561,0.2346,0.035156,0.81569,0.83984
4.392,0.089932,0.23363,0.041016,0.81569,0.84375
4.4,0.1173,0.23558,0.03125,0.82157,0.84961
4.408,0.14663,0.2434,0.03125,0.81569,0.84961
4.416,0.17595,0.25415,0.019531,0.82157,0.84961
4.424,0.20528,0.26979,0.025391,0.82549,0.84961
4.432,0.23363,0.29521,0.025391,0.82157,0.84375
4.44,0.26295,0.32845,0.015625,0.81569,0.83984
4.448,0.2913,0.36852,0.015625,0.82549,0.84961
4.456,0.32356,0.41251,0.019531,0.82157,0.84375
4.464,0.35679,0.45943,0.015625,0.82157,0.85547
4.472,0.39296,0.50538,0.019531,0.82549,0.85547
4.48,0.43011,0.54741,0.0097656,0.82157,0.85938
4.488,0.46921,0.58456,0.015625,0.82157,0.85547
4.496,0.50831,0.61681,0.044922,0.81569,0.83984
4.504,0.54936,0.64321,0.050781,0.81569,0.83008
4.512,0.59042,0.66276,0.060547,0.82157,0.83984
4.52,0.62659,0.67546,0.060547,0.81569,0.82422
4.528,0.66373,0.68719,0.054688,0.80588,0.82422
4.536,0.69795,0.69697,0.064453,0.8,0.83008
4.544,0.73118,0.70479,0.050781,0.79608,0.82422
4.552,0.76735,0.70968,0.060547,0.8,0.82031
4.56,0.80254,0.71261,0.03125,0.80588,0.83984
4.568,0.83871,0.71457,0.015625,0.81569,0.84961
4.576,0.87586,0.71457,0,0.82549,0.86523
4.584,0.90909,0.71261,-0.019531,0.83137,0.88477
4.592,0.94233,0.70968,-0.013672,0.83529,0.87891
4.6,0.97165,0.70283,-0.029297,0.84118,0.88867
4.608,1,0.69404,-0.035156,0.84118,0.89453
4.616,1,0.68328,-0.035156,0.84118,0.89453
4.624,1,0.67058,-0.029297,0.85686,0.91016
4.632,1,0.65494,-0.035156,0.88039,0.87891
4.64,1,0.63539,0.61914,0.7,0.53516
4.648,1,0.61486,1.1641,0.4451,0.17969
4.656,1,0.59238,0.16992,0.7098,0.7207
4.664,1,0.56989,-0.49805,0.93725,1.0938
4.672,1,0.54839,-0.49805,1.0216,1.1191
4.68,1,0.52786,-0.49805,1.0569,1.0742
4.688,1,0.50929,-0.44336,1.0118,1.0195
4.696,1,0.49267,-0.27344,0.94706,0.98047
4.704,1,0.47898,-0.12891,0.90588,0.92969
4.712,1,0.46921,-0.058594,0.86078,0.91016
4.72,1,0.46139,-0.035156,0.84118,0.9043
4.728,1,0.45455,-0.039062,0.83529,0.91016
4.736,1,0.44966,-0.029297,0.83137,0.91016
4.744,1,0.44477,-0.019531,0.82549,0.9043
4.752,1,0.44086,-0.013672,0.82549,0.88867
4.76,1,0.43793,-0.0097656,0.82549,0.88867
4.768,1,0.43402,-0.013672,0.82157,0.89453
4.776,1,0.43011,-0.0097656,0.82157,0.88867
4.784,1,0.4262,-0.0097656,0.82549,0.88867
4.792,1,0.42131,-0.0039062,0.82549,0.88867
4.8,1,0.41544,0.0058594,0.82549,0.88477
4.808,1,0.41056,-0.0039062,0.82157,0.88477
4.816,1,0.40567,0,0.82549,0.88477
4.824,1,0.3998,-0.0039062,0.83137,0.88477
4.832,1,0.39296,0,0.83137,0.87891
4.84,1,0.38612,0.0058594,0.83529,0.87891
4.848,1,0.37928,0,0.83529,0.87891
4.856,1,0.37146,-0.019531,0.84118,0.88867
4.864,1,0.36461,-0.025391,0.84118,0.89453
4.872,1,0.35777,-0.029297,0.8451,0.89453
4.88,1,0.35093,-0.044922,0.85686,0.9043
4.888,1,0.34311,-0.064453,0.85686,0.91016
4.896,1,0.33627,-0.074219,0.85686,0.91406
4.904,1,0.32942,-0.089844,0.86078,0.91406
4.912,1,0.32454,-0.09375,0.86667,0.91992
4.92,1,0.31965,-0.099609,0.86078,0.91992
4.928,1,0.31378,-0.09375,0.85686,0.91016
4.936,1,0.30792,-0.064453,0.85098,0.89453
4.944,1,0.30205,-0.029297,0.83529,0.87891
4.952,1,0.29521,0,0.83137,0.86523
4.96,1,0.28935,0.03125,0.81569,0.84375
4.968,1,0.28348,0.050781,0.81569,0.83984
4.976,1,0.27859,0.060547,0.81569,0.83984
4.984,1,0.27273,0.044922,0.81569,0.84375
4.992,1,0.26784,0.03125,0.82157,0.85938
5,1,0.26295,0.019531,0.83137,0.86523
5.008,1,0.25904,0.0097656,0.83137,0.86523
5.016,1,0.25709,0,0.83529,0.87891
5.024,1,0.25318,0.0058594,0.83137,0.875
5.032,1,0.24927,0.035156,0.82157,0.86523
5.04,1,0.24536,0.076172,0.8,0.85547
5.048,1,0.24242,0.11523,0.7902,0.83984
5.056,1,0.23851,0.099609,0.79608,0.83984
5.064,1,0.2346,0.080078,0.81569,0.84961
5.072,1,0.23167,0.070312,0.82549,0.85938
5.08,1,0.22874,0.076172,0.80588,0.84375
5.088,1,0.22581,0.076172,0.81176,0.84375
5.096,1,0.22287,0.060547,0.81569,0.84375
5.104,1,0.22092,0.050781,0.81569,0.85938
5.112,1,0.21994,0.035156,0.82549,0.86523
5.12,1,0.21994,0.025391,0.83137,0.86523
5.128,1,0.21994,0.015625,0.84118,0.86523
5.136,1,0.21896,0.0097656,0.84118,0.86914
5.144,1,0.21896,0.0058594,0.84118,0.86914
5.152,1,0.21799,0.0058594,0.83529,0.86914
5.16,1,0.21799,-0.013672,0.8451,0.88867
5.168,1,0.21994,-0.044922,0.88627,0.91406
5.176,1,0.22483,0.53906,0.73137,0.57422
5.184,1,0.2346,1.2402,0.43529,0.13477
5.192,1,0.2522,0.29492,0.67059,0.64062
5.2,1,0.27761,-0.48828,0.94118,1.0293
5.208,1,0.30694,-0.49805,1.0569,1.0488
5.216,1,0.3392,-0.49805,1.0725,1.0293
5.224,1,0.38221,-0.35352,0.98235,0.98047
5.232,1,0.43109,-0.17383,0.92549,0.93555
5.24,1,0.48289,-0.083984,0.88039,0.91992
5.248,1,0.53372,-0.048828,0.85686,0.91016
5.256,1,0.5826,-0.035156,0.85098,0.91016
5.264,1,0.62561,-0.035156,0.8451,0.91016
5.272,1,0.66276,-0.029297,0.84118,0.9043
5.28,1,0.69501,-0.025391,0.83529,0.91016
5.288,1,0.72141,-0.019531,0.83137,0.91016
5.296,1,0.74194,-0.019531,0.83529,0.9043
5.304,1,0.75953,-0.019531,0.82549,0.91016
5.312,1,0.77028,-0.019531,0.82549,0.9043
5.32,1,0.77713,-0.019531,0.82549,0.91016
5.328,1,0.78397,-0.019531,0.82549,0.9043
5.336,1,0.78983,-0.019531,0.82157,0.9043
5.344,1,0.79374,-0.019531,0.82549,0.91016
5.352,1,0.7957,-0.019531,0.82157,0.91406
5.36,1,0.79472,-0.019531,0.82157,0.91406
5.368,1,0.79277,-0.019531,0.81569,0.91016
5.376,1,0.7869,-0.019531,0.81569,0.91406
5.384,1,0.77908,-0.029297,0.82157,0.91406
5.392,1,0.76735,-0.035156,0.83137,0.91016
5.4,1,0.75269,-0.035156,0.83529,0.91406
5.408,1,0.73705,-0.044922,0.84118,0.92383
5.416,1,0.71945,-0.054688,0.84118,0.92383
5.424,1,0.6999,-0.058594,0.85098,0.92383
5.432,1,0.6784,-0.058594,0.85098,0.92383
5.44,1,0.65591,-0.064453,0.8451,0.92383
5.448,1,0.63343,-0.058594,0.83529,0.91992
5.456,1,0.6129,-0.035156,0.82549,0.9043
5.464,1,0.59433,-0.0039062,0.81176,0.88867
5.472,1,0.57771,0.035156,0.79608,0.86523
5.48,1,0.56305,0.054688,0.7902,0.84961
5.488,1,0.5523,0.070312,0.78627,0.84375
5.496,1,0.54252,0.076172,0.7902,0.84375
5.504,1,0.53568,0.060547,0.78627,0.85547
5.512,1,0.52981,0.050781,0.7902,0.85938
5.52,1,0.5259,0.041016,0.7902,0.86523
5.528,1,0.52102,0.03125,0.8,0.86523
5.536,1,0.51711,0.019531,0.80588,0.86914
5.544,1,0.5132,0.025391,0.81176,0.86914
5.552,1,0.50831,0.019531,0.80588,0.87891
5.56,1,0.50342,0.03125,0.80588,0.875
5.568,1,0.49853,0.03125,0.81176,0.875
5.576,1,0.49169,0.035156,0.80588,0.86914
5.584,1,0.48583,0.044922,0.80588,0.86523
5.592,0.99804,0.47898,0.050781,0.8,0.86523
5.6,0.99511,0.47116,0.050781,0.8,0.86523
5.608,0.98827,0.4653,0.050781,0.79608,0.86523
5.616,0.98143,0.45846,0.054688,0.7902,0.85938
5.624,0.97458,0.45161,0.060547,0.7902,0.85547
5.632,0.96676,0.44379,0.054688,0.7902,0.85938
5.64,0.95992,0.43597,0.054688,0.7902,0.85547
5.648,0.9521,0.42815,0.050781,0.7902,0.85547
5.656,0.94526,0.42033,0.044922,0.7902,0.85547
5.664,0.93842,0.41153,0.044922,0.7902,0.85547
5.672,0.9306,0.40371,0.044922,0.7902,0.85547
5.68,0.92278,0.39589,0.044922,0.78627,0.85547
5.688,0.91398,0.38807,0.041016,0.78627,0.85547
5.696,0.90616,0.38123,0.041016,0.78627,0.85938
5.704,0.89834,0.37732,0.035156,0.7902,0.85938
5.712,0.89052,0.37634,0.041016,0.78627,0.85547
5.72,0.88368,0.37928,0.035156,0.78627,0.85938
5.728,0.87683,0.38807,0.035156,0.78627,0.85547
5.736,0.86999,0.40371,0.03125,0.78627,0.85938
5.744,0.86315,0.4262,0.03125,0.78039,0.86523
5.752,0.85533,0.45552,0.03125,0.78039,0.85938
5.76,0.84848,0.48974,0.03125,0.78039,0.85938
5.768,0.83969,0.52688,0.035156,0.78039,0.85938
5.776,0.83187,0.565,0.035156,0.78627,0.85547
5.784,0.82307,0.60117,0.03125,0.78627,0.85547
5.792,0.81427,0.63539,0.03125,0.78039,0.85547
5.8,0.80547,0.66471,0.03125,0.78627,0.84961
5.808,0.79765,0.68622,0.03125,0.78039,0.85547
5.816,0.78983,0.70186,0.03125,0.77647,0.85547
5.824,0.78104,0.71652,0.03125,0.78039,0.84961
5.832,0.77126,0.72825,0.03125,0.78039,0.85547
5.84,0.76149,0.73705,0.03125,0.78039,0.85547
5.848,0.74976,0.74291,0.03125,0.78039,0.85547
5.856,0.73803,0.74682,0.03125,0.78039,0.85547
5.864,0.7263,0.7478,0.03125,0.78039,0.85547
5.872,0.71554,0.7478,0.03125,0.77647,0.85938
5.88,0.70479,0.74487,0.03125,0.77647,0.85547
5.888,0.69404,0.73998,0.03125,0.78627,0.85547
5.896,0.68133,0.73314,0.03125,0.78039,0.85547
5.904,0.6696,0.72239,0.03125,0.78627,0.85547
5.912,0.65591,0.71163,0.03125,0.78627,0.85547
5.92,0.64223,0.69795,0.025391,0.78627,0.85547
5.928,0.62854,0.68035,0.03125,0.78039,0.84961
5.936,0.61388,0.6608,0.03125,0.78627,0.85547
5.944,0.6002,0.63832,0.03125,0.7902,0.85547
5.952,0.58553,0.61486,0.03125,0.7902,0.85938
5.96,0.57283,0.59042,0.03125,0.78039,0.85938
5.968,0.56012,0.56696,0.03125,0.78039,0.85938
5.976,0.54839,0.5435,0.041016,0.77647,0.84375
5.984,0.53666,0.52297,0.064453,0.78039,0.83984
5.992,0.52395,0.5044,0.080078,0.77059,0.83398
6,0.51124,0.48876,0.076172,0.77647,0.83984
6.008,0.49853,0.47605,0.080078,0.76667,0.82422
6.016,0.48583,0.46628,0.099609,0.7549,0.81055
6.024,0.47312,0.45748,0.089844,0.75098,0.81445
6.032,0.46139,0.45064,0.095703,0.7549,0.79883
6.04,0.45064,0.44477,0.076172,0.7549,0.81445
6.048,0.43891,0.43988,0.060547,0.76078,0.82031
6.056,0.42815,0.43597,0.041016,0.77059,0.83984
6.064,0.41642,0.43206,0.015625,0.78039,0.86523
6.072,0.40469,0.42815,-0.0039062,0.7902,0.875
6.08,0.39394,0.42326,-0.0097656,0.7902,0.87891
6.088,0.38221,0.41935,-0.0097656,0.7902,0.88477
6.096,0.37146,0.41447,-0.0039062,0.7902,0.87891
6.104,0.3607,0.4086,-0.019531,0.81176,0.88867
6.112,0.34995,0.40371,-0.035156,0.85686,0.91016
6.12,0.34018,0.39883,0.50977,0.71569,0.5957
6.128,0.33138,0.39394,1.2852,0.4,0.10547
6.136,0.32356,0.3871,0.5293,0.3902,0.50977
6.144,0.31672,0.38319,-0.39844,0.84118,0.99414
6.152,0.3089,0.38123,-0.49805,0.96667,1.0293
6.16,0.30108,0.3783,-0.49805,1.0157,1.0195
6.168,0.29423,0.37341,-0.4043,0.95686,0.99414
6.176,0.28641,0.36852,-0.23438,0.91176,0.95508
6.184,0.27957,0.36266,-0.11914,0.87647,0.93555
6.192,0.2737,0.35679,-0.058594,0.83137,0.91406
6.2,0.26686,0.35093,-0.044922,0.82157,0.91406
6.208,0.261,0.34702,-0.029297,0.82157,0.91406
6.216,0.25513,0.34311,-0.019531,0.82157,0.91016
6.224,0.24927,0.33822,-0.013672,0.81569,0.9043
6.232,0.24438,0.33431,-0.013672,0.81569,0.90039
6.24,0.23851,0.32942,-0.013672,0.81569,0.9043
6.248,0.23265,0.32454,-0.013672,0.81569,0.9043
6.256,0.22776,0.31965,-0.013672,0.81176,0.9043
6.264,0.2219,0.31574,-0.0097656,0.81176,0.9043
6.272,0.21603,0.31183,-0.013672,0.81176,0.91016
6.28,0.21114,0.30792,-0.0039062,0.81176,0.9043
6.288,0.20528,0.30401,-0.0039062,0.81569,0.9043
6.296,0.20039,0.30108,0,0.81569,0.90039
6.304,0.1955,0.29814,0,0.81569,0.90039
6.312,0.19062,0.29619,0,0.81569,0.90039
6.32,0.18475,0.29423,0,0.82549,0.90039
6.328,0.17889,0.29326,0.0058594,0.82549,0.90039
6.336,0.17302,0.2913,-0.0097656,0.83529,0.9043
6.344,0.16716,0.28935,-0.019531,0.84118,0.9043
6.352,0.16129,0.28641,-0.025391,0.8451,0.91016
6.36,0.15445,0.28446,-0.039062,0.85098,0.91016
6.368,0.14858,0.2825,-0.048828,0.85686,0.91406
6.376,0.14174,0.28055,-0.064453,0.85686,0.92383
6.384,0.1349,0.27957,-0.080078,0.85686,0.92383
6.392,0.1261,0.27859,-0.080078,0.86078,0.92383
6.4,0.11828,0.27664,-0.083984,0.85098,0.92969
6.408,0.10753,0.27664,-0.074219,0.85098,0.92383
6.416,0.097752,0.27664,-0.048828,0.84118,0.9043
6.424,0.086999,0.27664,-0.013672,0.82549,0.88477
6.432,0.076246,0.27566,0.025391,0.81569,0.86523
6.44,0.066471,0.27468,0.060547,0.8,0.83984
6.448,0.057674,0.2737,0.089844,0.7902,0.82422
6.456,0.048876,0.27175,0.099609,0.7902,0.81445
6.464,0.041056,0.27077,0.11133,0.7902,0.81445
6.472,0.031281,0.26979,0.11133,0.7902,0.81445
6.48,0.021505,0.26882,0.099609,0.7902,0.81445
6.488,0.010753,0.26882,0.089844,0.7902,0.82031
6.496,0.00097752,0.26784,0.076172,0.7902,0.83398
6.504,0,0.26686,0.070312,0.79608,0.83984
6.512,0,0.26686,0.060547,0.8,0.83984
6.52,0,0.26784,0.060547,0.8,0.84375
6.528,0,0.26784,0.060547,0.79608,0.84375
6.536,0,0.26784,0.060547,0.79608,0.83984
6.544,0,0.26686,0.064453,0.79608,0.84961
6.552,0,0.26686,0.076172,0.79608,0.83984
6.56,0,0.26588,0.076172,0.7902,0.83984
6.568,0,0.26491,0.085938,0.7902,0.83008
6.576,0,0.26393,0.089844,0.7902,0.82422
6.584,0,0.26295,0.089844,0.7902,0.82422
6.592,0,0.26197,0.095703,0.7902,0.83008
6.6,0,0.261,0.089844,0.7902,0.82031
6.608,0,0.26002,0.089844,0.7902,0.82422
6.616,0,0.26002,0.085938,0.78627,0.82031
6.624,0,0.25904,0.089844,0.78627,0.82422
6.632,0,0.25904,0.076172,0.7902,0.83398
6.64,0,0.261,0.076172,0.79608,0.83984
6.648,0,0.26686,0.076172,0.79608,0.83398
6.656,0,0.27957,0.076172,0.79608,0.83008
6.664,0,0.29912,0.076172,0.79608,0.83008
6.672,0,0.32845,0.070312,0.79608,0.83398
6.68,0,0.36461,0.070312,0.7902,0.83398
6.688,0,0.40762,0.064453,0.79608,0.83984
6.696,0,0.45552,0.064453,0.8,0.83398
6.704,0,0.49756,0.064453,0.8,0.83984
6.712,0,0.53568,0.060547,0.8,0.83984
6.72,0,0.57674,0.054688,0.79608,0.83984
6.728,0,0.61584,0.054688,0.8,0.83984
6.736,0,0.65103,0.054688,0.79608,0.83984
6.744,0,0.68133,0.050781,0.79608,0.84375
6.752,0,0.70674,0.050781,0.79608,0.84375
6.76,0,0.72825,0.054688,0.79608,0.83984
6.768,0,0.74487,0.080078,0.7902,0.82422
6.776,0,0.75953,0.089844,0.7902,0.82031
6.784,0,0.77028,0.095703,0.7902,0.82422
6.792,0,0.77908,0.089844,0.7902,0.81445
6.8,0,0.78495,0.095703,0.77059,0.81055
6.808,0,0.78788,0.099609,0.76667,0.81055
6.816,0,0.78886,0.080078,0.77059,0.81445
6.824,0,0.78788,0.076172,0.77647,0.81055
6.832,0,0.7869,0.070312,0.76667,0.82031
6.84,0,0.78299,0.050781,0.78039,0.83984
6.848,0,0.77713,0.025391,0.79608,0.85938
6.856,0,0.76931,0,0.80588,0.87891
6.864,0,0.75758,-0.0039062,0.81176,0.88867
6.872,0,0.74389,-0.013672,0.81176,0.88867
6.88,0,0.72727,-0.013672,0.81176,0.89453
6.888,0,0.7087,-0.019531,0.80588,0.90039
6.896,0,0.68817,-0.035156,0.82549,0.91406
6.904,0,0.66862,0.054688,0.85686,0.92383
6.912,0,0.65005,0.64453,0.68627,0.52539
6.92,0,0.6305,1.1738,0.41961,0.16016
6.928,0,0.61095,0.080078,0.70588,0.76562
6.936,0,0.59238,-0.49805,0.8902,1.084
6.944,0,0.57478,-0.49805,0.99608,1.0996
6.952,0,0.56012,-0.49805,1.0314,1.0586
6.96,0,0.54741,-0.38867,0.96078,1.0039
6.968,0,0.53666,-0.21875,0.90588,0.96875
6.976,0,0.52786,-0.10938,0.87059,0.93555
6.984,0,0.52004,-0.054688,0.82549,0.91992
6.992,0,0.51417,-0.039062,0.81569,0.91406
7,0,0.50831,-0.035156,0.80588,0.91992
7.008,0,0.5044,-0.025391,0.8,0.91016
7.016,0,0.50049,-0.019531,0.79608,0.91406
7.024,0,0.4956,-0.019531,0.79608,0.91016
7.032,0,0.49071,-0.019531,0.80588,0.91406
7.04,0,0.48485,-0.013672,0.8,0.9043
7.048,0,0.47898,-0.019531,0.8,0.9043
7.056,0,0.47312,-0.013672,0.8,0.90039
7.064,0,0.46628,-0.0039062,0.79608,0.89453
7.072,0,0.45943,-0.019531,0.79608,0.90039
7.08,0,0.45259,-0.0097656,0.8,0.89453
7.088,0,0.44575,0,0.8,0.88867
7.096,0,0.43891,-0.0039062,0.81176,0.88867
7.104,0,0.43304,0,0.81176,0.88477
7.112,0,0.42717,0,0.81569,0.88477
7.12,0,0.42033,-0.0097656,0.82157,0.88867
7.128,0,0.41349,-0.0097656,0.82549,0.88867
7.136,0,0.40665,-0.013672,0.82549,0.88867
7.144,0,0.40078,-0.019531,0.83137,0.89453
7.152,0,0.39394,-0.044922,0.8451,0.90039
7.16,0,0.38807,-0.070312,0.85686,0.91016
7.168,0,0.38123,-0.080078,0.86078,0.91016
7.176,0,0.37537,-0.089844,0.86078,0.91406
7.184,0,0.37048,-0.089844,0.86078,0.91016
7.192,0,0.36461,-0.089844,0.85686,0.91016
7.2,0,0.35973,-0.080078,0.8451,0.9043
7.208,0,0.35582,-0.048828,0.84118,0.88867
7.216,0,0.35288,-0.0097656,0.82549,0.86523
7.224,0,0.34897,0.035156,0.80588,0.83398
7.232,0,0.34409,0.064453,0.8,0.82422
7.24,0,0.34018,0.070312,0.80588,0.83398
7.248,0,0.33529,0.064453,0.80588,0.83008
7.256,0,0.33138,0.064453,0.80588,0.83008
7.264,0,0.32747,0.060547,0.80588,0.83008
7.272,0,0.32356,0.044922,0.81176,0.83984
7.28,0,0.32063,0.035156,0.81569,0.84375
7.288,0,0.31769,0.03125,0.81176,0.84961
7.296,0,0.31476,0.03125,0.81569,0.85547
7.304,0,0.31281,0.019531,0.82157,0.85938
7.312,0,0.31085,0.025391,0.82549,0.86523
7.32,0,0.3089,0.03125,0.82157,0.85547
7.328,0,0.30694,0.035156,0.81569,0.84961
7.336,0,0.30401,0.044922,0.81569,0.84961
7.344,0,0.30108,0.050781,0.81569,0.83984
7.352,0,0.29814,0.050781,0.81569,0.83984
7.36,0,0.29423,0.070312,0.81176,0.83008
7.368,0,0.2913,0.070312,0.80588,0.83008
7.376,0,0.28739,0.070312,0.81176,0.83398
7.384,0,0.28446,0.076172,0.80588,0.83008
7.392,0,0.28152,0.064453,0.81176,0.83398
7.4,0,0.27761,0.060547,0.81176,0.83008
7.408,0,0.27566,0.050781,0.81569,0.83398
7.416,0,0.2737,0.044922,0.81569,0.83398
7.424,0,0.27077,0.050781,0.81569,0.83398
7.432,0,0.26882,0.044922,0.81569,0.83984
7.44,0,0.26686,0.041016,0.81569,0.84375
7.448,0,0.26784,0.041016,0.81569,0.83984
7.456,0,0.27273,0.041016,0.81176,0.84375
7.464,0,0.28348,0.03125,0.81569,0.84961
7.472,0,0.30108,0.025391,0.82157,0.84961
7.48,0,0.32551,0.03125,0.81569,0.85547
7.488,0,0.35679,0.03125,0.81569,0.84375
7.496,0,0.39394,0.03125,0.82157,0.83984
7.504,0,0.42717,0.025391,0.82549,0.84961
7.512,0,0.45943,0.025391,0.83137,0.84961
7.52,0,0.4956,0.03125,0.82157,0.84961
7.528,0,0.52981,0.050781,0.82157,0.83984
7.536,0,0.56109,0.070312,0.81569,0.83008
7.544,0,0.58847,0.080078,0.82157,0.82422
7.552,0,0.61193,0.064453,0.81569,0.82031
7.56,0,0.62952,0.076172,0.8,0.81445
7.568,0,0.64418,0.054688,0.7902,0.82422
7.576,0.020528,0.65494,0.054688,0.80588,0.81445
7.584,0.041056,0.66276,0.050781,0.80588,0.82031
7.592,0.075269,0.66862,0.035156,0.81176,0.83398
7.6,0.10948,0.67253,0.0097656,0.82157,0.85938
7.608,0.14467,0.67351,-0.013672,0.83529,0.875
7.616,0.17986,0.67253,-0.019531,0.83137,0.87891
7.624,0.21114,0.67058,-0.025391,0.84118,0.88867
7.632,0.2434,0.66764,-0.035156,0.83529,0.88867
7.64,0.27273,0.66373,-0.025391,0.82549,0.88477
7.648,0.30303,0.65591,-0.019531,0.83137,0.88477
7.656,0.33431,0.64712,-0.044922,0.87059,0.91406
7.664,0.36559,0.63539,0.14453,0.88627,0.81445
7.672,0.39883,0.62072,0.86523,0.6098,0.375
7.68,0.43206,0.60411,1.1289,0.48431,0.20117
7.688,0.46628,0.58651,-0.2793,0.85098,0.95898
7.696,0.50147,0.56696,-0.49805,0.98235,1.1348
7.704,0.53763,0.54839,-0.49805,1.0608,1.1387
7.712,0.5738,0.53177,-0.49805,1.0824,1.0742
7.72,0.60606,0.51417,-0.39453,1.0059,1.0195
7.728,0.63832,0.49756,-0.24023,0.95098,0.96875
7.736,0.66862,0.48192,-0.11523,0.91176,0.93555
7.744,0.69892,0.46725,-0.064453,0.86667,0.91992
7.752,0.73118,0.45552,-0.054688,0.85686,0.91992
7.76,0.76344,0.44575,-0.044922,0.8451,0.91992
7.768,0.79765,0.43793,-0.035156,0.84118,0.91016
7.776,0.83187,0.43206,-0.039062,0.84118,0.91016
7.784,0.86315,0.42717,-0.035156,0.8451,0.91016
7.792,0.89443,0.42326,-0.025391,0.84118,0.9043
7.8,0.92278,0.41935,-0.019531,0.83529,0.91016
7.808,0.95112,0.41642,-0.019531,0.83137,0.9043
7.816,0.97556,0.41349,-0.025391,0.84118,0.90039
7.824,1,0.41056,-0.019531,0.84118,0.91016
7.832,1,0.40665,-0.025391,0.84118,0.9043
7.84,1,0.40176,-0.019531,0.84118,0.90039
7.848,1,0.39687,-0.025391,0.84118,0.91016
7.856,1,0.39198,-0.0039062,0.83529,0.88867
7.864,1,0.38612,-0.013672,0.83137,0.89453
7.872,1,0.38025,-0.013672,0.8451,0.90039
7.88,1,0.37439,-0.019531,0.84118,0.89453
7.888,1,0.36755,-0.044922,0.85686,0.91016
7.896,1,0.36168,-0.039062,0.85098,0.9043
7.904,1,0.35679,-0.029297,0.85686,0.90039
7.912,1,0.35191,-0.044922,0.86078,0.91016
7.92,1,0.34702,-0.070312,0.86078,0.91406
7.928,1,0.34213,-0.083984,0.86078,0.91992
7.936,1,0.33627,-0.09375,0.86078,0.91406
7.944,1,0.33138,-0.10352,0.86667,0.92383
7.952,1,0.32551,-0.089844,0.86078,0.91992
7.96,1,0.32063,-0.070312,0.85098,0.9043
7.968,1,0.31574,-0.044922,0.83529,0.88867
7.976,1,0.31085,-0.0097656,0.82157,0.86914
7.984,1,0.30596,0.03125,0.81176,0.84961
7.992,1,0.30108,0.050781,0.80588,0.84375
8,1,0.29717,0.050781,0.8,0.83984
8.008,1,0.29326,0.060547,0.80588,0.84375
8.016,1,0.2913,0.041016,0.81569,0.85547
8.024,1,0.28739,0.025391,0.81569,0.86523
8.032,1,0.28446,0.019531,0.81569,0.86523
8.04,1,0.28152,0.0097656,0.81569,0.86914
8.048,1,0.27761,0.015625,0.82157,0.86914
8.056,1,0.27468,0.0097656,0.82157,0.875
8.064,1,0.27175,0.015625,0.82157,0.86914
8.072,1,0.26979,0.03125,0.81569,0.86523
8.08,1,0.26686,0.044922,0.81569,0.85938
8.088,1,0.26491,0.050781,0.81176,0.84961
8.096,1,0.26197,0.054688,0.81176,0.84961
8.104,1,0.261,0.064453,0.80588,0.84375
8.112,1,0.26002,0.064453,0.80588,0.84375
8.12,1,0.25806,0.064453,0.81176,0.84375
8.128,1,0.25611,0.070312,0.80588,0.84961
8.136,1,0.25415,0.060547,0.80588,0.84961
8.144,1,0.25122,0.050781,0.80588,0.84961
8.152,1,0.24927,0.044922,0.81176,0.85938
8.16,1,0.24731,0.041016,0.81176,0.85938
8.168,1,0.24438,0.035156,0.81569,0.85938
8.176,1,0.24145,0.035156,0.81569,0.85938
8.184,1,0.23949,0.03125,0.81569,0.86523
8.192,1,0.24047,0.025391,0.81569,0.86523
8.2,1,0.24536,0.019531,0.81569,0.86523
8.208,1,0.24829,0.015625,0.82157,0.86523
8.216,1,0.25415,0.0097656,0.82157,0.86914
8.224,1,0.26197,0.0097656,0.82549,0.86914
8.232,1,0.27468,0.0097656,0.83137,0.86914
8.24,1,0.29326,0.0097656,0.83137,0.86914
8.248,1,0.31867,0.0097656,0.83137,0.86914
8.256,1,0.348,0.0058594,0.83529,0.86914
8.264,1,0.38221,0.0058594,0.83529,0.86914
8.272,1,0.41642,0,0.84118,0.86914
8.28,1,0.44966,0.0058594,0.84118,0.86914
8.288,1,0.48094,0,0.84118,0.875
8.296,1,0.50831,0.0058594,0.83529,0.86914
8.304,1,0.52884,0.019531,0.82549,0.86523
8.312,1,0.54448,0.035156,0.82549,0.85547
8.32,1,0.55816,0.050781,0.81569,0.85547
8.328,1,0.56989,0.050781,0.82549,0.85547
8.336,1,0.57771,0.050781,0.81569,0.83984
8.344,1,0.58358,0.050781,0.80588,0.83984
8.352,1,0.58749,0.03125,0.79608,0.84961
8.36,1,0.58944,0.03125,0.81176,0.84375
8.368,1,0.59042,0.03125,0.80588,0.84961
8.376,1,0.58944,0.025391,0.81569,0.85938
8.384,1,0.58749,0.0058594,0.82157,0.875
8.392,1,0.58456,-0.019531,0.83529,0.88867
8.4,1,0.57967,-0.044922,0.84118,0.9043
8.408,1,0.5738,-0.044922,0.84118,0.9043
8.416,1,0.56696,-0.039062,0.84118,0.9043
8.424,1,0.55816,-0.039062,0.84118,0.9043
8.432,1,0.54839,-0.044922,0.84118,0.91016
8.44,1,0.53568,-0.058594,0.88039,0.93945
8.448,1,0.52199,0.22461,0.82157,0.78516
8.456,1,0.50831,0.99414,0.5549,0.31055
8.464,1,0.49462,1.1797,0.4451,0.18555
8.472,1,0.48094,-0.29492,0.83529,0.98438
8.48,1,0.46921,-0.49805,0.96667,1.0898
8.488,1,0.45943,-0.49805,1.0471,1.0703
8.496,1,0.45259,-0.49805,1.0216,1.0391
8.504,1,0.44673,-0.33984,0.96667,1
8.512,1,0.44282,-0.18359,0.92157,0.96875
8.52,1,0.44086,-0.09375,0.88039,0.93945
8.528,1,0.43988,-0.070312,0.85686,0.93945
8.536,1,0.43988,-0.058594,0.8451,0.93555
8.544,1,0.43988,-0.048828,0.84118,0.93555
8.552,1,0.44086,-0.044922,0.84118,0.92969
8.56,1,0.44184,-0.039062,0.83529,0.92969
8.568,1,0.44282,-0.035156,0.83137,0.91992
8.576,1,0.44282,-0.035156,0.83137,0.91992
8.584,1,0.44282,-0.029297,0.83137,0.92969
8.592,1,0.44282,-0.029297,0.83137,0.92383
8.6,1,0.44184,-0.039062,0.82549,0.92969
8.608,1,0.44086,-0.035156,0.82549,0.92383
8.616,1,0.43891,-0.035156,0.82549,0.92969
8.624,1,0.43695,-0.029297,0.82549,0.92969
8.632,1,0.435,-0.035156,0.83137,0.92383
8.64,1,0.43206,-0.035156,0.83137,0.91992
8.648,1,0.42913,-0.029297,0.83529,0.91992
8.656,1,0.4262,-0.029297,0.83529,0.92383
8.664,1,0.42326,-0.029297,0.84118,0.91992
8.672,1,0.41935,-0.039062,0.84118,0.92383
8.68,1,0.41642,-0.044922,0.85098,0.92383
8.688,1,0.41251,-0.054688,0.86078,0.93555
8.696,1,0.4086,-0.064453,0.86078,0.93555
8.704,1,0.40567,-0.083984,0.86078,0.93945
8.712,1,0.40274,-0.089844,0.86078,0.94922
8.72,1,0.3998,-0.099609,0.86078,0.93945
8.728,1,0.39589,-0.10352,0.86078,0.94531
8.736,1,0.39296,-0.099609,0.85098,0.94922
8.744,1,0.38905,-0.080078,0.84118,0.92969
8.752,1,0.38514,-0.048828,0.83137,0.91016
8.76,1,0.38123,-0.013672,0.81569,0.88867
8.768,1,0.37732,0.025391,0.81176,0.875
8.776,1,0.37341,0.044922,0.80588,0.86523
8.784,1,0.3695,0.050781,0.8,0.85938
8.792,1,0.36657,0.050781,0.79608,0.86523
8.8,1,0.36364,0.050781,0.8,0.86523
8.808,1,0.36168,0.041016,0.80588,0.86523
8.816,1,0.35875,0.03125,0.81176,0.86914
8.824,1,0.35582,0.03125,0.81176,0.875
8.832,1,0.35288,0.025391,0.81569,0.875
8.84,1,0.35093,0.015625,0.81569,0.88477
8.848,1,0.34897,0.0097656,0.81569,0.88867
8.856,1,0.34702,0.015625,0.81569,0.88867
8.864,1,0.34506,0.019531,0.81176,0.88477
8.872,1,0.34311,0.025391,0.81176,0.87891
8.88,1,0.34018,0.03125,0.81176,0.87891
8.888,1,0.33822,0.035156,0.80588,0.86914
8.896,1,0.33627,0.041016,0.79608,0.86523
8.904,1,0.33529,0.050781,0.79608,0.86523
8.912,1,0.33431,0.050781,0.7902,0.85938
8.92,1,0.33333,0.050781,0.7902,0.86523
8.928,1,0.33138,0.050781,0.78627,0.86523
8.936,1,0.32942,0.054688,0.78039,0.85547
8.944,1,0.32747,0.070312,0.77059,0.84375
8.952,0.98631,0.32454,0.076172,0.78039,0.83984
8.96,0.97263,0.32258,0.089844,0.78627,0.83398
8.968,0.95503,0.32063,0.11133,0.7549,0.82031
8.976,0.93646,0.32063,0.095703,0.76078,0.83398
8.984,0.91984,0.32356,0.054688,0.77647,0.85938
8.992,0.90323,0.3304,0.035156,0.7902,0.86914
9,0.88954,0.34115,0.025391,0.79608,0.875
9.008,0.87488,0.35484,0.019531,0.80588,0.875
9.016,0.86315,0.37634,0.015625,0.80588,0.875
9.024,0.85044,0.40274,0.0097656,0.8,0.87891
9.032,0.84066,0.43402,0.0097656,0.80588,0.88477
9.04,0.82991,0.46725,-0.0097656,0.81569,0.89453
9.048,0.82111,0.50147,-0.035156,0.85098,0.91992
9.056,0.81232,0.53372,0.58008,0.6902,0.56055
9.064,0.80547,0.56305,1.2891,0.39412,0.11133
9.072,0.79765,0.58749,0.36523,0.6098,0.61523
9.08,0.79081,0.60899,-0.43359,0.87059,1.0137
9.088,0.78397,0.62659,-0.49805,0.98627,1.0293
9.096,0.77713,0.64027,-0.49805,1.0118,1.0254
9.104,0.77028,0.64907,-0.35938,0.93725,0.98047
9.112,0.76246,0.65494,-0.17969,0.88627,0.93945
9.12,0.75562,0.6608,-0.074219,0.85098,0.91992
9.128,0.7478,0.66471,-0.035156,0.82549,0.91016
9.136,0.739,0.66862,-0.025391,0.82157,0.9043
9.144,0.73118,0.67058,-0.019531,0.81569,0.91016
9.152,0.72239,0.67155,-0.0097656,0.81569,0.9043
9.16,0.71457,0.67058,-0.0039062,0.81569,0.90039
9.168,0.70577,0.6696,0,0.81569,0.90039
9.176,0.69795,0.66667,-0.0039062,0.81569,0.90039
9.184,0.6911,0.66178,0,0.81569,0.89453
9.192,0.68231,0.65591,0.0058594,0.81569,0.89453
9.2,0.67351,0.64809,0,0.81176,0.90039
9.208,0.66373,0.6393,-0.0039062,0.81176,0.9043
9.216,0.65396,0.62854,-0.0039062,0.81176,0.90039
9.224,0.64418,0.61584,-0.0039062,0.81176,0.9043
9.232,0.63539,0.60117,-0.0039062,0.81176,0.90039
9.24,0.62561,0.58553,0,0.81176,0.9043
9.248,0.61681,0.56989,-0.0039062,0.81176,0.9043
9.256,0.60606,0.55327,0,0.81176,0.90039
9.264,0.59629,0.53763,-0.0097656,0.81569,0.9043
9.272,0.58553,0.52199,-0.013672,0.82157,0.91016
9.28,0.57478,0.50929,-0.019531,0.82549,0.91016
9.288,0.56403,0.49756,-0.025391,0.83529,0.91016
9.296,0.5523,0.48778,-0.039062,0.84118,0.91016
9.304,0.54154,0.47996,-0.044922,0.84118,0.91406
9.312,0.52981,0.4741,-0.048828,0.84118,0.91992
9.32,0.51906,0.46921,-0.058594,0.84118,0.91992
9.328,0.50831,0.4653,-0.048828,0.83137,0.91016
9.336,0.49756,0.46139,-0.035156,0.82549,0.9043
9.344,0.48778,0.45846,-0.013672,0.81569,0.88867
9.352,0.47703,0.45552,0.019531,0.80588,0.86523
9.36,0.46628,0.45259,0.050781,0.7902,0.85547
9.368,0.45552,0.44966,0.064453,0.7902,0.83984
9.376,0.44477,0.44673,0.080078,0.7902,0.83398
9.384,0.435,0.44282,0.076172,0.7902,0.83984
9.392,0.42522,0.43891,0.060547,0.7902,0.84375
9.4,0.41544,0.435,0.050781,0.7902,0.84375
9.408,0.40665,0.43206,0.041016,0.8,0.85547
9.416,0.39589,0.42717,0.035156,0.80588,0.85938
9.424,0.38514,0.42229,0.03125,0.80588,0.86523
9.432,0.37243,0.4174,0.025391,0.81176,0.86523
9.44,0.3607,0.41251,0.019531,0.81569,0.875
9.448,0.34604,0.40762,0.015625,0.81569,0.875
9.456,0.33138,0.40274,0.019531,0.81569,0.87891
9.464,0.31476,0.39785,0.019531,0.81569,0.875
9.472,0.29912,0.39296,0.03125,0.81176,0.86914
9.48,0.28348,0.38807,0.035156,0.81176,0.86523
9.488,0.26882,0.38319,0.041016,0.81176,0.85938
9.496,0.25415,0.3783,0.050781,0.81176,0.85547
9.504,0.23949,0.37439,0.050781,0.8,0.85547
9.512,0.22483,0.37146,0.050781,0.8,0.84961
9.52,0.21017,0.36755,0.054688,0.79608,0.84375
9.528,0.19453,0.36364,0.050781,0.80588,0.84375
9.536,0.17986,0.35875,0.050781,0.8,0.84961
9.544,0.16618,0.35484,0.044922,0.80588,0.85547
9.552,0.15347,0.34995,0.050781,0.81176,0.84961
9.56,0.14174,0.34604,0.050781,0.81176,0.84961
9.568,0.12903,0.34115,0.044922,0.81176,0.85547
9.576,0.11828,0.33822,0.041016,0.81176,0.85547
9.584,0.10655,0.33724,0.035156,0.81176,0.85938
9.592,0.094819,0.33822,0.035156,0.81176,0.85938
9.6,0.084066,0.34213,0.03125,0.81176,0.86523
9.608,0.074291,0.34897,0.03125,0.81176,0.86523
9.616,0.064516,0.36168,0.03125,0.81176,0.86523
9.624,0.056696,0.38025,0.025391,0.81176,0.86523
9.632,0.048876,0.40371,0.03125,0.80588,0.86523
9.64,0.043011,0.43109,0.025391,0.81176,0.86523
9.648,0.036168,0.46041,0.019531,0.81176,0.86914
9.656,0.031281,0.49071,0.019531,0.81176,0.86914
9.664,0.026393,0.51906,0.019531,0.81176,0.86914
9.672,0.020528,0.54545,0.015625,0.81176,0.86914
9.68,0.01564,0.56794,0.019531,0.81569,0.86914
9.688,0.010753,0.58749,0.019531,0.81176,0.86914
9.696,0.0058651,0.60313,0.019531,0.81569,0.86914
9.704,0.0029325,0.6129,0.015625,0.81176,0.875
9.712,0,0.61975,0.015625,0.81176,0.86914
9.72,0,0.62659,0.0097656,0.81176,0.86914
9.728,0,0.63148,0.015625,0.81176,0.86914
9.736,0,0.63441,0.019531,0.81176,0.86523
9.744,0,0.63734,0.015625,0.81176,0.86523
9.752,0,0.63734,0.015625,0.81176,0.86523
9.76,0,0.63734,0.019531,0.81176,0.86523
9.768,0,0.63539,0.019531,0.81176,0.86523
9.776,0,0.63245,0.015625,0.81176,0.86523
9.784,0,0.62757,0.019531,0.81176,0.86523
9.792,0,0.62072,0.019531,0.81176,0.86523
9.8,0,0.6129,0.015625,0.81176,0.86523
9.808,0,0.60313,0.015625,0.81569,0.86523
9.816,0,0.59238,0.019531,0.81569,0.86523
9.824,0,0.57869,0.019531,0.81569,0.86523
9.832,0,0.56403,0.025391,0.81176,0.85938
9.84,0,0.54839,0.035156,0.81176,0.84961
9.848,0,0.53177,0.050781,0.81176,0.84375
9.856,0,0.51613,0.064453,0.80588,0.83984
9.864,0,0.50049,0.064453,0.81176,0.83984
9.872,0,0.48583,0.060547,0.79608,0.83984
9.88,0,0.47312,0.076172,0.78039,0.83398
9.888,0,0.46237,0.060547,0.77647,0.83984
9.896,0,0.45357,0.060547,0.7902,0.82422
9.904,0,0.44673,0.050781,0.7902,0.83398
9.912,0,0.44184,0.041016,0.7902,0.83984
9.92,0,0.43793,0.0097656,0.80588,0.86523
9.928,0,0.43402,-0.013672,0.81569,0.88477
9.936,0,0.43109,-0.019531,0.82157,0.88867
9.944,0,0.42913,-0.019531,0.82157,0.90039
9.952,0,0.4262,-0.019531,0.81569,0.89453
9.96,0,0.42326,-0.025391,0.81569,0.9043
9.968,0,0.42131,-0.048828,0.8451,0.92969
9.976,0,0.4174,0.070312,0.87059,0.86914
9.984,0,0.41447,0.75977,0.64118,0.44531
9.992,0,0.41056,1.1348,0.41961,0.18945
10,0,0.40762,-0.0039062,0.72157,0.81445
10.008,0,0.40469,-0.49805,0.90196,1.0801
10.016,0,0.40078,-0.49805,1.0059,1.084
10.024,0,0.39589,-0.49805,1.0275,1.0449
10.032,0,0.39198,-0.36914,0.94706,1.0039
10.04,0,0.3871,-0.20898,0.90588,0.97461
10.048,0,0.38221,-0.11523,0.86667,0.94922
10.056,0,0.37732,-0.074219,0.83137,0.93555
10.064,0,0.37243,-0.064453,0.82157,0.93555
10.072,0,0.36755,-0.044922,0.81569,0.92969
10.08,0,0.36266,-0.039062,0.81176,0.92383
10.088,0,0.35777,-0.039062,0.80588,0.92383
10.096,0,0.35288,-0.029297,0.80588,0.91992
10.104,0,0.34897,-0.029297,0.81176,0.91406
10.112,0,0.34604,-0.029297,0.80588,0.91406
10.12,0,0.34311,-0.035156,0.8,0.91406
10.128,0,0.3392,-0.029297,0.80588,0.91016
10.136,0,0.33529,-0.035156,0.81176,0.91406
10.144,0,0.33138,-0.029297,0.81569,0.91016
10.152,0,0.32845,-0.035156,0.81176,0.91016
10.16,0,0.32454,-0.025391,0.81569,0.9043
10.168,0,0.3216,-0.019531,0.81569,0.9043
10.176,0,0.31867,-0.029297,0.81569,0.91016
10.184,0,0.31574,-0.035156,0.82549,0.90039
10.192,0,0.31281,-0.019531,0.82157,0.89453
10.2,0,0.31183,-0.029297,0.83137,0.9043
10.208,0,0.30987,-0.035156,0.83529,0.9043
10.216,0,0.3089,-0.044922,0.84118,0.9043
10.224,0,0.30694,-0.054688,0.84118,0.91016
10.232,0,0.30499,-0.064453,0.84118,0.9043
10.24,0,0.30596,-0.089844,0.85098,0.91406
10.248,0,0.30792,-0.10352,0.86078,0.91992
10.256,0,0.3089,-0.099609,0.85686,0.91406
10.264,0,0.30792,-0.09375,0.85686,0.91992
10.272,0,0.30694,-0.080078,0.84118,0.9043
10.28,0,0.30596,-0.048828,0.83137,0.88477
10.288,0,0.30401,-0.0097656,0.81569,0.85938
10.296,0,0.30401,0.025391,0.80588,0.83984
10.304,0,0.30401,0.054688,0.79608,0.83008
10.312,0,0.30303,0.085938,0.7902,0.81445
10.32,0,0.30205,0.099609,0.78627,0.81055
10.328,0,0.30108,0.095703,0.78627,0.81055
10.336,0,0.3001,0.089844,0.7902,0.81055
10.344,0,0.29912,0.076172,0.79608,0.81445
10.352,0,0.29814,0.070312,0.8,0.83008
10.36,0,0.29717,0.064453,0.79608,0.82422
10.368,0,0.29717,0.054688,0.80588,0.83398
10.376,0,0.29619,0.050781,0.81176,0.83984
10.384,0,0.29619,0.044922,0.80588,0.84375
10.392,0,0.29521,0.044922,0.81176,0.83984
10.4,0,0.29619,0.050781,0.8,0.83984
10.408,0,0.29619,0.070312,0.8,0.83008
10.416,0,0.29619,0.076172,0.8,0.82422
10.424,0,0.29521,0.070312,0.79608,0.83008
10.432,0,0.29423,0.085938,0.79608,0.82031
10.44,0,0.29326,0.076172,0.8,0.82031
10.448,0,0.2913,0.076172,0.80588,0.82422
10.456,0,0.28935,0.080078,0.79608,0.81445
10.464,0,0.28739,0.076172,0.8,0.82031
10.472,0,0.28446,0.076172,0.80588,0.82422
10.48,0,0.2825,0.064453,0.8,0.82422
10.488,0,0.28055,0.060547,0.81176,0.83008
10.496,0,0.27957,0.064453,0.81176,0.82422
10.504,0,0.28055,0.050781,0.81176,0.82422
10.512,0,0.28348,0.050781,0.81176,0.83008
10.52,0,0.29032,0.054688,0.81176,0.82422
10.528,0,0.30303,0.044922,0.81176,0.83398
10.536,0,0.32356,0.025391,0.81569,0.84375
10.544,0,0.35288,0.03125,0.81569,0.83984
10.552,0,0.38905,0.035156,0.81569,0.84375
10.56,0,0.43011,0.025391,0.81569,0.84961
10.568,0,0.47507,0.041016,0.8,0.83984
10.576,0,0.51906,0.085938,0.78627,0.82422
10.584,0,0.56109,0.11523,0.77647,0.81445
10.592,0,0.59922,0.13086,0.77059,0.81445
10.6,0,0.62854,0.089844,0.79608,0.83398
10.608,0,0.65103,0.050781,0.82157,0.85938
10.616,0,0.67253,0.041016,0.82157,0.84961
10.624,0,0.6911,0.03125,0.82549,0.84961
10.632,0,0.70577,0.03125,0.83137,0.84375
10.64,0,0.7175,0.015625,0.83529,0.84961
10.648,0,0.7263,0.0058594,0.84118,0.85938
10.656,0,0.73314,-0.019531,0.84118,0.875
10.664,0,0.73803,-0.0039062,0.83529,0.86523
10.672,0,0.74096,0,0.83529,0.86523
10.68,0,0.74194,-0.029297,0.88039,0.89453
10.688,0,0.74194,0.29102,0.88627,0.7207
10.696,0.0068426,0.73998,1.0352,0.55098,0.24023
10.704,0.013685,0.73509,1.1191,0.46471,0.17578
10.712,0.040078,0.72923,-0.45898,0.91569,1.0391
10.72,0.067449,0.72141,-0.49805,1.0216,1.1348
10.728,0.094819,0.71163,-0.49805,1.0863,1.0996
10.736,0.12219,0.69892,-0.49805,1.0471,1.0352
10.744,0.15054,0.68426,-0.30469,0.97059,0.96484
10.752,0.17791,0.66764,-0.14844,0.92549,0.91992
10.76,0.20332,0.64907,-0.070312,0.88627,0.9043
10.768,0.22874,0.62952,-0.044922,0.86078,0.9043
10.776,0.25122,0.60997,-0.039062,0.85686,0.90039
10.784,0.27468,0.59042,-0.025391,0.85098,0.89453
10.792,0.29912,0.57283,-0.013672,0.84118,0.88867
10.8,0.32454,0.55816,-0.0097656,0.83529,0.88867
10.808,0.34995,0.54643,-0.013672,0.84118,0.88477
10.816,0.37634,0.5347,-0.0039062,0.84118,0.88867
10.824,0.3998,0.52493,-0.0039062,0.83529,0.88867
10.832,0.42326,0.51613,-0.013672,0.83529,0.88867
10.84,0.44575,0.51026,-0.019531,0.83137,0.89453
10.848,0.46725,0.5044,-0.019531,0.84118,0.88867
10.856,0.49071,0.50049,0.0058594,0.82549,0.87891
10.864,0.51515,0.49658,0,0.82549,0.88477
10.872,0.54057,0.49267,0.015625,0.83137,0.87891
10.88,0.56598,0.48876,0,0.84118,0.88867
10.888,0.59335,0.48485,-0.019531,0.84118,0.89453
10.896,0.62072,0.48094,-0.013672,0.8451,0.88867
10.904,0.64907,0.47703,-0.0039062,0.84118,0.88477
10.912,0.67742,0.47312,0.0058594,0.84118,0.88477
10.92,0.70381,0.46823,-0.013672,0.84118,0.88867
10.928,0.73021,0.46237,-0.039062,0.85686,0.9043
10.936,0.75464,0.4565,-0.048828,0.86078,0.91016
10.944,0.77908,0.44966,-0.048828,0.85686,0.90039
10.952,0.80547,0.44379,-0.044922,0.86078,0.89453
10.96,0.83284,0.43695,-0.080078,0.86078,0.91406
10.968,0.86217,0.43011,-0.070312,0.85686,0.9043
10.976,0.8915,0.42424,-0.064453,0.85098,0.9043
10.984,0.91789,0.4174,-0.039062,0.83529,0.88867
10.992,0.94526,0.41056,0.0058594,0.81569,0.85938
11,0.97067,0.40567,0.03125,0.81176,0.85547
11.008,0.99511,0.40078,0.054688,0.80588,0.83984
11.016,0.99804,0.39589,0.076172,0.79608,0.83398
11.024,1,0.39003,0.054688,0.8,0.83984
11.032,1,0.38514,0.050781,0.8,0.84961
11.04,1,0.37928,0.050781,0.80588,0.85547
11.048,1,0.37439,0.025391,0.81176,0.86523
11.056,1,0.36852,0.025391,0.81569,0.86523
11.064,1,0.36364,0.019531,0.81176,0.86914
11.072,1,0.35973,0.0097656,0.80588,0.87891
11.08,1,0.35484,0.025391,0.81176,0.86914
11.088,1,0.35093,0.03125,0.80588,0.86523
11.096,1,0.348,0.035156,0.8,0.85938
11.104,1,0.34506,0.050781,0.80588,0.84961
11.112,1,0.34213,0.044922,0.79608,0.85938
11.12,1,0.3392,0.070312,0.8,0.83984
11.128,1,0.33627,0.076172,0.79608,0.83984
11.136,1,0.33236,0.070312,0.7902,0.83984
11.144,1,0.32845,0.076172,0.7902,0.83984
11.152,1,0.32454,0.076172,0.7902,0.83984
11.16,1,0.32063,0.054688,0.79608,0.83984
11.168,1,0.31672,0.060547,0.8,0.83984
11.176,1,0.31281,0.064453,0.8,0.83984
11.184,1,0.30987,0.060547,0.8,0.84375
11.192,1,0.30694,0.060547,0.80588,0.83984
11.2,1,0.30499,0.054688,0.80588,0.83984
11.208,1,0.30303,0.050781,0.80588,0.84375
11.216,1,0.30108,0.044922,0.8,0.84961
11.224,1,0.29814,0.050781,0.80588,0.84961
11.232,1,0.29619,0.041016,0.80588,0.85547
11.24,1,0.29717,0.03125,0.81176,0.85938
11.248,1,0.30303,0.025391,0.81176,0.86523
11.256,1,0.31378,0.03125,0.80588,0.85547
11.264,1,0.33138,0.03125,0.81176,0.85547
11.272,1,0.35582,0.03125,0.8,0.86523
11.28,1,0.3871,0.050781,0.79608,0.85547
11.288,1,0.42131,0.060547,0.79608,0.84961
11.296,1,0.45357,0.050781,0.79608,0.85938
11.304,1,0.48387,0.070312,0.78039,0.83984
11.312,1,0.51613,0.095703,0.76667,0.81445
11.32,1,0.54741,0.099609,0.76667,0.81445
11.328,1,0.57478,0.076172,0.78627,0.83984
11.336,1,0.59824,0.035156,0.8,0.86523
11.344,1,0.61681,0.0058594,0.82157,0.875
11.352,1,0.6305,0,0.83137,0.87891
11.36,1,0.64125,-0.0097656,0.83529,0.87891
11.368,1,0.64809,-0.013672,0.84118,0.88477
11.376,1,0.652,-0.0039062,0.84118,0.87891
11.384,1,0.65396,-0.025391,0.85098,0.88867
11.392,1,0.65396,-0.029297,0.88039,0.9043
11.4,1,0.65298,0.61523,0.70588,0.5293
11.408,1,0.64907,1.1895,0.4451,0.16016
11.416,1,0.64516,0.20117,0.71569,0.69922
11.424,1,0.6393,-0.49805,0.96078,1.084
11.432,1,0.6305,-0.49805,1.051,1.1035
11.44,1,0.61975,-0.49805,1.0725,1.0645
11.448,1,0.60704,-0.41992,1.002,1.0098
11.456,1,0.59238,-0.24023,0.94118,0.95508
11.464,1,0.57478,-0.11523,0.90588,0.92383
11.472,1,0.55718,-0.064453,0.87059,0.91016
11.48,1,0.53763,-0.044922,0.86078,0.91016
11.488,1,0.51906,-0.039062,0.85098,0.91016
11.496,1,0.50342,-0.029297,0.85098,0.9043
11.504,1,0.48974,-0.019531,0.85098,0.9043
11.512,1,0.47703,-0.029297,0.85686,0.91016
11.52,1,0.46432,-0.025391,0.85098,0.91016
11.528,1,0.45455,-0.029297,0.85098,0.91016
11.536,1,0.4477,-0.035156,0.85098,0.91016
11.544,1,0.44282,-0.035156,0.84118,0.91016
11.552,1,0.44086,-0.029297,0.84118,0.91016
11.56,1,0.43988,-0.035156,0.84118,0.91016
11.568,1,0.43988,-0.035156,0.83529,0.91016
11.576,1,0.44086,-0.029297,0.83529,0.91016
11.584,1,0.44282,-0.035156,0.83529,0.91016
11.592,1,0.44379,-0.029297,0.83137,0.91016
11.6,1,0.44477,-0.025391,0.83529,0.91016
11.608,1,0.44477,-0.035156,0.84118,0.91016
11.616,1,0.44575,-0.029297,0.84118,0.91016
11.624,1,0.44575,-0.035156,0.84118,0.91016
11.632,1,0.44575,-0.044922,0.8451,0.91406
11.64,1,0.44477,-0.058594,0.85098,0.91992
11.648,1,0.44379,-0.064453,0.85686,0.91992
11.656,1,0.44282,-0.074219,0.85686,0.91992
11.664,1,0.44184,-0.083984,0.86078,0.92383
11.672,1,0.43988,-0.089844,0.85686,0.92969
11.68,1,0.43891,-0.089844,0.8451,0.92383
11.688,1,0.43695,-0.070312,0.84118,0.91016
11.696,1,0.43597,-0.044922,0.82157,0.90039
11.704,1,0.435,-0.0039062,0.81176,0.87891
11.712,1,0.43402,0.025391,0.79608,0.86523
11.72,1,0.43206,0.044922,0.7902,0.85938
11.728,1,0.43011,0.050781,0.7902,0.85547
11.736,1,0.42913,0.050781,0.78627,0.85547
11.744,1,0.42717,0.041016,0.7902,0.85938
11.752,1,0.42522,0.025391,0.7902,0.86914
11.76,1,0.42326,0.0097656,0.7902,0.87891
11.768,1,0.42131,0.0058594,0.79608,0.88477
11.776,1,0.41935,0.0058594,0.8,0.88477
11.784,1,0.4174,0,0.80588,0.88867
11.792,1,0.41544,0.0058594,0.8,0.88867
11.8,1,0.41349,0.0058594,0.80588,0.88867
11.808,1,0.41251,0.015625,0.8,0.88867
11.816,1,0.41056,0.03125,0.79608,0.87891
11.824,1,0.4086,0.041016,0.7902,0.86914
11.832,1,0.40665,0.050781,0.78627,0.86523
11.84,1,0.40469,0.050781,0.78627,0.86523
11.848,1,0.40176,0.054688,0.78627,0.86523
11.856,1,0.3998,0.050781,0.78039,0.86523
11.864,1,0.39687,0.050781,0.78039,0.85938
11.872,1,0.39296,0.054688,0.78039,0.85938
11.88,1,0.39003,0.050781,0.77647,0.86523
11.888,1,0.3871,0.050781,0.78039,0.86523
11.896,1,0.38416,0.044922,0.77647,0.86523
11.904,1,0.38221,0.041016,0.78039,0.86523
11.912,1,0.37928,0.041016,0.78627,0.86523
11.92,1,0.37732,0.035156,0.78039,0.86523
11.928,1,0.37634,0.035156,0.78627,0.86523
11.936,1,0.3783,0.03125,0.78627,0.86914
11.944,1,0.38416,0.03125,0.78627,0.875
11.952,1,0.39589,0.019531,0.78039,0.86914
11.96,0.99707,0.41544,0.025391,0.78627,0.875
11.968,0.99511,0.44086,0.019531,0.7902,0.87891
11.976,0.98631,0.47214,0.019531,0.7902,0.875
11.984,0.97849,0.50831,0.015625,0.7902,0.87891
11.992,0.97165,0.54643,0.019531,0.7902,0.87891
12,0.96481,0.57967,0.019531,0.7902,0.875
12.008,0.95797,0.60802,0.019531,0.7902,0.87891
12.016,0.95112,0.63832,0.015625,0.7902,0.88477
12.024,0.94428,0.66667,0.019531,0.7902,0.875
12.032,0.93744,0.6911,0.019531,0.7902,0.87891
12.04,0.9306,0.71163,0.019531,0.7902,0.87891
12.048,0.92473,0.72825,0.015625,0.7902,0.88477
12.056,0.91789,0.74096,0.015625,0.7902,0.87891
12.064,0.91105,0.74976,0.015625,0.7902,0.87891
12.072,0.90225,0.7566,0.015625,0.7902,0.87891
12.08,0.89443,0.76149,0.0097656,0.7902,0.88477
12.088,0.88563,0.76442,0.0097656,0.7902,0.87891
12.096,0.87586,0.76442,0.015625,0.79608,0.87891
12.104,0.86706,0.76344,0.019531,0.7902,0.875
12.112,0.85728,0.76149,0.019531,0.7902,0.86914
12.12,0.84848,0.75855,0.015625,0.7902,0.875
12.128,0.83969,0.75367,0.015625,0.7902,0.875
12.136,0.82991,0.7478,0.025391,0.7902,0.86914
12.144,0.82111,0.739,0.03125,0.7902,0.86523
12.152,0.81036,0.72727,0.050781,0.7902,0.85547
12.16,0.80059,0.71359,0.070312,0.7902,0.84961
12.168,0.79081,0.69795,0.076172,0.79608,0.84375
12.176,0.78104,0.67937,0.064453,0.8,0.83984
12.184,0.77028,0.6608,0.070312,0.78039,0.83984
12.192,0.76051,0.64321,0.076172,0.76667,0.83984
12.2,0.75171,0.62561,0.054688,0.77647,0.83008
12.208,0.74194,0.60802,0.064453,0.78627,0.83008
12.216,0.73314,0.5914,0.060547,0.78627,0.83984
12.224,0.72532,0.57478,0.041016,0.7902,0.85547
12.232,0.71652,0.56109,0.025391,0.80588,0.86523
12.24,0.7087,0.54936,0,0.81569,0.88477
12.248,0.6999,0.53861,-0.0039062,0.82157,0.88867
12.256,0.69208,0.53079,-0.0039062,0.82157,0.88867
12.264,0.68426,0.52395,0,0.81569,0.88867
12.272,0.67644,0.51808,-0.0097656,0.82157,0.88867
12.28,0.6696,0.51417,-0.025391,0.87059,0.91406
12.288,0.66178,0.50342,0.33008,0.78627,0.71484
12.296,0.65396,0.49169,1.1602,0.47451,0.19531
12.304,0.64712,0.48387,1.2539,0.3902,0.13477
12.312,0.6393,0.47801,-0.29492,0.81569,0.96484
12.32,0.63148,0.47312,-0.49805,0.95686,1.0391
12.328,0.62366,0.46725,-0.49805,1.0216,1.0352
12.336,0.61584,0.46237,-0.44336,0.97059,1.0039
12.344,0.60802,0.45748,-0.26367,0.92157,0.96875
12.352,0.60117,0.45161,-0.13477,0.8902,0.94531
12.36,0.59335,0.44575,-0.064453,0.8451,0.92383
12.368,0.58651,0.43891,-0.044922,0.83529,0.91992
12.376,0.57967,0.43304,-0.035156,0.82549,0.91992
12.384,0.57283,0.4262,-0.019531,0.82157,0.91406
12.392,0.56598,0.42033,-0.013672,0.82157,0.91016
12.4,0.55914,0.41544,-0.013672,0.82549,0.91016
12.408,0.55327,0.40958,-0.019531,0.82549,0.91406
12.416,0.54741,0.40274,-0.013672,0.82549,0.91016
12.424,0.54154,0.39687,-0.013672,0.82549,0.91016
12.432,0.53568,0.39003,-0.013672,0.82549,0.91016
12.44,0.53079,0.38416,-0.0097656,0.82157,0.9043
12.448,0.5259,0.3783,-0.0097656,0.82157,0.91016
12.456,0.52102,0.37341,-0.0039062,0.82549,0.9043
12.464,0.51613,0.36755,-0.0039062,0.82549,0.9043
12.472,0.51026,0.36266,-0.0097656,0.82549,0.90039
12.48,0.50538,0.35679,-0.0097656,0.82549,0.9043
12.488,0.49951,0.35191,-0.0097656,0.83137,0.90039
12.496,0.49267,0.348,-0.0097656,0.83137,0.90039
12.504,0.48583,0.34506,-0.0097656,0.83529,0.9043
12.512,0.47801,0.34018,-0.0039062,0.84118,0.9043
12.52,0.47116,0.33627,-0.025391,0.84118,0.91016
12.528,0.46334,0.33236,-0.035156,0.84118,0.91016
12.536,0.45552,0.32845,-0.054688,0.85098,0.91992
12.544,0.4477,0.32454,-0.064453,0.85686,0.92383
12.552,0.43891,0.32063,-0.080078,0.86078,0.93555
12.56,0.43011,0.31769,-0.083984,0.86078,0.92969
12.568,0.41935,0.31476,-0.083984,0.85686,0.92969
12.576,0.4086,0.31183,-0.080078,0.8451,0.92383
12.584,0.39785,0.3089,-0.058594,0.84118,0.91016
12.592,0.38807,0.30694,-0.029297,0.83137,0.89453
12.6,0.37732,0.30596,0.0097656,0.81569,0.875
12.608,0.36657,0.30401,0.050781,0.8,0.84961
12.616,0.35386,0.30205,0.070312,0.7902,0.83984
12.624,0.34115,0.3001,0.085938,0.78039,0.83984
12.632,0.32649,0.29912,0.095703,0.78039,0.83398
12.64,0.31183,0.29717,0.099609,0.77059,0.82422
12.648,0.29521,0.29521,0.12109,0.76667,0.81445
12.656,0.27957,0.29326,0.11133,0.77647,0.81445
12.664,0.26197,0.29228,0.12109,0.78039,0.81445
12.672,0.24438,0.29032,0.125,0.76078,0.81445
12.68,0.22874,0.28935,0.099609,0.77059,0.83398
12.688,0.21212,0.28837,0.060547,0.78627,0.84961
12.696,0.19746,0.28837,0.044922,0.7902,0.86523
12.704,0.1828,0.28837,0.041016,0.8,0.86523
12.712,0.16618,0.28739,0.035156,0.81569,0.86523
12.72,0.14956,0.28641,0.03125,0.81569,0.86523
12.728,0.13196,0.28543,0.041016,0.81569,0.85938
12.736,0.11437,0.28348,0.044922,0.81176,0.85938
12.744,0.098729,0.28152,0.050781,0.80588,0.85547
12.752,0.084066,0.28055,0.050781,0.8,0.84961
12.76,0.070381,0.27859,0.050781,0.8,0.85938
12.768,0.057674,0.27761,0.041016,0.83529,0.875
12.776,0.043988,0.27566,0.61523,0.7,0.55078
12.784,0.030303,0.2737,1.1895,0.47451,0.16602
12.792,0.01564,0.27273,0.21484,0.7098,0.68555
12.8,0.001955,0.27273,-0.48438,0.90588,1.0352
12.808,0.00097752,0.27273,-0.49805,1.0471,1.084
12.816,0,0.2737,-0.49805,1.0725,1.0391
12.824,0,0.27859,-0.31836,0.96667,0.95508
12.832,0,0.28935,-0.125,0.90196,0.91016
12.84,0,0.30596,-0.019531,0.85098,0.88477
12.848,0,0.33138,0.0097656,0.83137,0.88477
12.856,0,0.36461,0.015625,0.82157,0.88477
12.864,0,0.40371,0.025391,0.82157,0.88477
12.872,0,0.4477,0.03125,0.81569,0.88477
12.88,0,0.49267,0.03125,0.81569,0.88477
12.888,0,0.53666,0.03125,0.81176,0.88477
12.896,0,0.57283,0.03125,0.81569,0.88477
12.904,0,0.60313,0.03125,0.81569,0.87891
12.912,0,0.63343,0.03125,0.81569,0.88477
12.92,0,0.6608,0.03125,0.81569,0.87891
12.928,0,0.68524,0.03125,0.81569,0.87891
12.936,0,0.70479,0.03125,0.81176,0.88477
12.944,0,0.72141,0.025391,0.81569,0.88477
12.952,0,0.73509,0.019531,0.81176,0.88477
12.96,0,0.74585,0.025391,0.81176,0.87891
12.968,0,0.75562,0.019531,0.81176,0.87891
12.976,0,0.76246,0.019531,0.81569,0.88477
12.984,0,0.76735,0.0097656,0.81569,0.88477
12.992,0,0.76931,0.0058594,0.81569,0.88867
13,0,0.76931,0,0.82549,0.88867
13.008,0,0.76833,-0.0097656,0.83137,0.89453
13.016,0,0.76637,-0.019531,0.83137,0.9043
13.024,0,0.76246,-0.025391,0.83529,0.9043
13.032,0,0.7566,-0.029297,0.82549,0.90039
13.04,0,0.7478,-0.019531,0.82549,0.89453
13.048,0,0.73607,-0.0097656,0.81569,0.88477
13.056,0,0.72141,0.019531,0.8,0.86523
13.064,0,0.70479,0.050781,0.7902,0.84375
13.072,0,0.68622,0.080078,0.78039,0.82422
13.08,0,0.66569,0.099609,0.77647,0.82031
13.088,0,0.64516,0.099609,0.77647,0.82031
13.096,0,0.62659,0.095703,0.78627,0.82422
13.104,0,0.60997,0.085938,0.7902,0.83008
13.112,0,0.59238,0.076172,0.7902,0.83398
13.12,0,0.57576,0.060547,0.79608,0.83984
13.128,0,0.56109,0.064453,0.79608,0.84961
13.136,0,0.54839,0.054688,0.8,0.85547
13.144,0,0.53861,0.050781,0.8,0.84961
13.152,0,0.53079,0.050781,0.8,0.85547
13.16,0,0.52395,0.050781,0.81176,0.84961
13.168,0,0.51808,0.060547,0.81176,0.84375
13.176,0,0.51417,0.064453,0.80588,0.83984
13.184,0,0.50929,0.070312,0.80588,0.83984
13.192,0,0.50538,0.076172,0.8,0.83984
13.2,0,0.50147,0.076172,0.8,0.83984
13.208,0,0.49658,0.070312,0.8,0.83984
13.216,0,0.49169,0.060547,0.79608,0.84375
13.224,0,0.4868,0.060547,0.8,0.83984
13.232,0,0.48094,0.050781,0.8,0.84961
13.24,0,0.47507,0.050781,0.80588,0.84961
13.248,0,0.46921,0.044922,0.80588,0.84961
13.256,0,0.46237,0.041016,0.8,0.85547
13.264,0,0.45552,0.041016,0.8,0.85938
13.272,0,0.44868,0.03125,0.8,0.86523
13.28,0,0.44086,0.03125,0.8,0.86523
13.288,0,0.43402,0.03125,0.79608,0.86523
13.296,0,0.42815,0.019531,0.8,0.875
13.304,0,0.42229,0.015625,0.80588,0.86914
13.312,0,0.4174,0.015625,0.8,0.875
13.32,0,0.41251,0.015625,0.80588,0.875
13.328,0,0.41153,0.0058594,0.8,0.88477
13.336,0,0.41349,0.0097656,0.80588,0.87891
13.344,0,0.42033,0.015625,0.8,0.87891
13.352,0,0.43206,0.0097656,0.80588,0.88477
13.36,0,0.44966,0.015625,0.8,0.87891
13.368,0,0.47116,0.0058594,0.8,0.88477
13.376,0,0.49658,0.0097656,0.8,0.88477
13.384,0,0.52297,0.0058594,0.80588,0.875
13.392,0,0.54643,0.015625,0.8,0.86914
13.4,0,0.56696,0.0097656,0.80588,0.875
13.408,0,0.58749,0.0058594,0.80588,0.875
13.416,0,0.60606,0.0097656,0.8,0.86914
13.424,0,0.62268,0.0097656,0.79608,0.875
13.432,0,0.63441,0.0058594,0.80588,0.86914
13.44,0,0.64321,0.0058594,0.80588,0.87891
13.448,0,0.64809,0.0097656,0.8,0.86914
13.456,0,0.65005,0.015625,0.80588,0.86523
13.464,0,0.64907,0.0058594,0.81176,0.86914
13.472,0,0.64516,0.0097656,0.80588,0.86523
13.48,0,0.63832,0.015625,0.80588,0.86523
13.488,0,0.62854,0.0097656,0.80588,0.86914
13.496,0,0.61681,0.0097656,0.80588,0.86523
13.504,0,0.60411,0.015625,0.8,0.85938
13.512,0,0.58847,0.0097656,0.80588,0.86523
13.52,0,0.57087,0.015625,0.79608,0.85938
13.528,0,0.55034,0.0097656,0.8,0.86523
13.536,0,0.52981,0.015625,0.8,0.85938
13.544,0,0.51026,0.025391,0.8,0.85547
13.552,0,0.49071,0.019531,0.80588,0.85547
13.56,0,0.47312,0.019531,0.80588,0.85547
13.568,0,0.45748,0.041016,0.8,0.83984
13.576,0,0.44379,0.050781,0.79608,0.83008
13.584,0,0.43402,0.064453,0.7902,0.83984
13.592,0,0.4262,0.070312,0.8,0.83008
13.6,0,0.42131,0.076172,0.7902,0.82031
13.608,0,0.41642,0.099609,0.78039,0.81445
13.616,0,0.41349,0.085938,0.77647,0.80469
13.624,0,0.41153,0.089844,0.7902,0.79492
13.632,0,0.40958,0.070312,0.7902,0.81445
13.64,0,0.40762,0.050781,0.79608,0.82422
13.648,0,0.40567,0.035156,0.81176,0.83984
13.656,0,0.40469,0,0.82157,0.86523
13.664,0,0.40176,-0.013672,0.82549,0.86914
13.672,0,0.3998,-0.0039062,0.82549,0.86914
13.68,0,0.39589,-0.0097656,0.83137,0.86914
13.688,0,0.39198,-0.0097656,0.83529,0.86914
13.696,0,0.38905,-0.019531,0.85686,0.88477
13.704,0,0.38514,0.099609,0.88039,0.83398
13.712,0,0.38025,0.73438,0.66471,0.44531
13.72,0,0.37537,1.0645,0.47451,0.20117
13.728,0,0.3695,-0.058594,0.7902,0.83008
13.736,0,0.36364,-0.49805,0.96078,1.1035
13.744,0,0.35777,-0.49805,1.0608,1.125
13.752,0,0.35191,-0.49805,1.0863,1.0645
13.76,0,0.34604,-0.39844,1.0157,1
13.768,0,0.34018,-0.23438,0.95686,0.94922
13.776,0,0.33431,-0.10938,0.91176,0.91406
13.784,0,0.32845,-0.064453,0.87647,0.91016
13.792,0,0.32356,-0.044922,0.86078,0.9043
13.8,0,0.31965,-0.035156,0.85098,0.91016
13.808,0,0.31574,-0.035156,0.8451,0.9043
13.816,0,0.31085,-0.019531,0.84118,0.89453
13.824,0,0.30596,-0.019531,0.84118,0.89453
13.832,0,0.30108,-0.013672,0.83529,0.89453
13.84,0,0.29619,-0.019531,0.84118,0.88867
13.848,0,0.2913,-0.013672,0.83529,0.88867
13.856,0,0.28641,-0.019531,0.83529,0.89453
13.864,0,0.28152,-0.025391,0.84118,0.9043
13.872,0,0.27761,-0.019531,0.84118,0.89453
13.88,0,0.27273,-0.013672,0.84118,0.88867
13.888,0,0.26882,-0.0097656,0.84118,0.88867
13.896,0,0.26588,0,0.8451,0.88477
13.904,0,0.26393,0,0.84118,0.88477
13.912,0,0.26197,-0.0097656,0.8451,0.88477
13.92,0,0.25904,-0.0039062,0.85098,0.88867
13.928,0,0.25611,-0.019531,0.85686,0.87891
13.936,0,0.25318,-0.035156,0.86078,0.89453
13.944,0,0.25024,-0.035156,0.86078,0.89453
13.952,0,0.24829,-0.048828,0.87059,0.89453
13.96,0,0.24633,-0.070312,0.87647,0.9043
13.968,0,0.24438,-0.083984,0.88039,0.91016
13.976,0,0.24242,-0.10938,0.88627,0.91992
13.984,0,0.24047,-0.10938,0.88627,0.92969
13.992,0,0.23949,-0.099609,0.88627,0.91016
14,0,0.23949,-0.10352,0.87059,0.9043
14.008,0,0.23851,-0.070312,0.86078,0.88867
14.016,0,0.23754,-0.044922,0.8451,0.87891
14.024,0.001955,0.23558,0.0097656,0.83137,0.84961
14.032,0.0039101,0.2346,0.050781,0.81569,0.83008
14.04,0.022483,0.23265,0.054688,0.81569,0.83008
14.048,0.041056,0.23167,0.076172,0.81569,0.82031
14.056,0.061584,0.22972,0.080078,0.81176,0.82422
14.064,0.082111,0.22874,0.070312,0.81176,0.83008
14.072,0.10459,0.22776,0.060547,0.82157,0.83984
14.08,0.12708,0.22678,0.050781,0.82157,0.84375
14.088,0.15152,0.22678,0.054688,0.81569,0.83984
14.096,0.17498,0.22776,0.050781,0.81569,0.83984
14.104,0.19941,0.22776,0.076172,0.81569,0.83398
14.112,0.22287,0.22678,0.076172,0.81569,0.82422
14.12,0.24438,0.22678,0.076172,0.81569,0.83008
14.128,0.26686,0.22581,0.099609,0.80588,0.81445
14.136,0.28641,0.22483,0.10547,0.81176,0.81445
14.144,0.30694,0.22385,0.095703,0.8,0.82031
14.152,0.32942,0.22287,0.10547,0.8,0.81055
14.16,0.35191,0.2219,0.099609,0.79608,0.79883
14.168,0.37537,0.22092,0.12109,0.79608,0.80469
14.176,0.3998,0.21994,0.099609,0.8,0.81055
14.184,0.42229,0.21896,0.085938,0.80588,0.81445
14.192,0.44477,0.21896,0.076172,0.80588,0.82031
14.2,0.46725,0.21896,0.076172,0.81176,0.82422
14.208,0.48974,0.21799,0.076172,0.81176,0.82031
14.216,0.51613,0.21603,0.064453,0.81569,0.82422
14.224,0.5435,0.21505,0.054688,0.81569,0.83398
14.232,0.57576,0.21408,0.050781,0.81569,0.83398
14.24,0.60704,0.21505,0.054688,0.81569,0.83984
14.248,0.64418,0.22092,0.041016,0.82157,0.84375
14.256,0.68035,0.2346,0.044922,0.81569,0.83984
14.264,0.72043,0.25513,0.050781,0.81569,0.83984
14.272,0.76051,0.28543,0.035156,0.82157,0.84375
14.28,0.79668,0.32454,0.025391,0.82157,0.85547
14.288,0.83284,0.36364,0.019531,0.82549,0.84961
14.296,0.86706,0.40371,0.03125,0.82549,0.84961
14.304,0.90127,0.44868,0.019531,0.82549,0.84961
14.312,0.93451,0.4956,0.019531,0.82549,0.85547
14.32,0.96774,0.53959,0.03125,0.82549,0.84961
14.328,0.98338,0.57869,0.025391,0.82549,0.85547
14.336,1,0.60899,0.015625,0.83137,0.85938
14.344,1,0.6305,0.019531,0.82549,0.85547
14.352,1,0.64809,0.025391,0.82549,0.85547
14.36,1,0.66178,0.015625,0.83137,0.86523
14.368,1,0.67058,0.015625,0.83137,0.85938
14.376,1,0.67742,0.0097656,0.83137,0.86523
14.384,1,0.68133,0.035156,0.82549,0.85547
14.392,1,0.68133,0.054688,0.82157,0.83984
14.4,1,0.68035,0.060547,0.81569,0.84375
14.408,1,0.6784,0.060547,0.81569,0.84961
14.416,1,0.67546,0.054688,0.81569,0.83984
14.424,1,0.67058,0.076172,0.8,0.83008
14.432,1,0.66471,0.076172,0.7902,0.83398
14.44,1,0.65591,0.064453,0.79608,0.82031
14.448,1,0.64614,0.050781,0.80588,0.83008
14.456,1,0.63343,0.035156,0.80588,0.83984
14.464,1,0.61975,0.019531,0.81569,0.85547
14.472,1,0.60411,-0.0039062,0.82549,0.875
14.48,1,0.58749,-0.025391,0.84118,0.88867
14.488,1,0.57185,-0.029297,0.84118,0.88867
14.496,1,0.55816,-0.029297,0.84118,0.88867
14.504,1,0.54252,-0.025391,0.84118,0.88867
14.512,1,0.52884,-0.029297,0.84118,0.88867
14.52,1,0.51515,-0.044922,0.88039,0.91016
14.528,1,0.5044,0.18945,0.84118,0.7793
14.536,1,0.49462,0.94531,0.58039,0.32422
14.544,1,0.48778,1.1445,0.46471,0.19531
14.552,1,0.48192,-0.28516,0.86667,0.96875
14.56,1,0.47703,-0.49805,0.99216,1.1094
14.568,1,0.47312,-0.49805,1.0667,1.0938
14.576,1,0.47019,-0.49805,1.0725,1.0391
14.584,1,0.46725,-0.34961,0.99216,0.98438
14.592,1,0.4653,-0.20508,0.94706,0.95508
14.6,1,0.46237,-0.099609,0.91176,0.91992
14.608,1,0.45943,-0.064453,0.88039,0.91016
14.616,1,0.4565,-0.054688,0.86667,0.91406
14.624,1,0.45259,-0.044922,0.86667,0.91016
14.632,1,0.44868,-0.039062,0.86667,0.91016
14.64,1,0.44379,-0.039062,0.86667,0.91016
14.648,1,0.43891,-0.039062,0.86078,0.91016
14.656,1,0.43402,-0.035156,0.86078,0.91016
14.664,1,0.42913,-0.035156,0.86078,0.91016
14.672,1,0.42424,-0.035156,0.86078,0.91016
14.68,1,0.41935,-0.029297,0.86078,0.91016
14.688,1,0.41642,-0.035156,0.85098,0.91016
14.696,1,0.41349,-0.029297,0.85098,0.91016
14.704,1,0.40958,-0.035156,0.85098,0.91016
14.712,1,0.40665,-0.029297,0.85686,0.91016
14.72,1,0.40371,-0.029297,0.85686,0.91016
14.728,1,0.40078,-0.025391,0.86078,0.91016
14.736,1,0.39883,-0.019531,0.86078,0.9043
14.744,1,0.39687,-0.029297,0.86078,0.91016
14.752,1,0.39492,-0.035156,0.86078,0.91016
14.76,1,0.39296,-0.039062,0.86078,0.91016
14.768,1,0.39101,-0.044922,0.87059,0.91406
14.776,1,0.39003,-0.064453,0.87647,0.91992
14.784,1,0.38807,-0.080078,0.88039,0.92383
14.792,1,0.38807,-0.089844,0.88627,0.92383
14.8,1,0.3871,-0.099609,0.88627,0.93555
14.808,1,0.38612,-0.11523,0.88039,0.93555
14.816,1,0.38612,-0.11523,0.87647,0.93555
14.824,1,0.38514,-0.099609,0.87059,0.92969
14.832,1,0.38416,-0.070312,0.86078,0.91016
14.84,1,0.38416,-0.035156,0.84118,0.88867
14.848,1,0.38319,0,0.82549,0.86914
14.856,1,0.38221,0.03125,0.81569,0.86523
14.864,1,0.38221,0.035156,0.81176,0.85938
14.872,1,0.38221,0.041016,0.81176,0.85938
14.88,1,0.38221,0.041016,0.81176,0.86523
14.888,1,0.38221,0.03125,0.81569,0.86523
14.896,1,0.38221,0.0097656,0.81569,0.875
14.904,1,0.38319,0.0058594,0.81569,0.87891
14.912,1,0.38319,0.0058594,0.81569,0.88477
14.92,1,0.38319,0.0058594,0.82157,0.88477
14.928,1,0.38319,0.0058594,0.82157,0.88867
14.936,1,0.38416,0.0097656,0.81569,0.88477
14.944,1,0.38416,0.019531,0.81569,0.875
14.952,1,0.38416,0.03125,0.80588,0.875
14.96,1,0.38416,0.03125,0.8,0.86914
14.968,1,0.38319,0.044922,0.80588,0.86523
14.976,1,0.38221,0.050781,0.80588,0.86523
14.984,1,0.38221,0.050781,0.8,0.85938
14.992,1,0.38123,0.050781,0.79608,0.85547
15,1,0.38123,0.050781,0.79608,0.85938
15.008,1,0.38025,0.050781,0.79608,0.85547
15.016,1,0.38025,0.054688,0.79608,0.85938
15.024,1,0.37928,0.044922,0.79608,0.85938
15.032,1,0.3783,0.041016,0.79608,0.86523
15.04,1,0.37732,0.035156,0.8,0.86523
15.048,1,0.37634,0.035156,0.8,0.86523
15.056,1,0.37634,0.03125,0.8,0.86523
15.064,1,0.3783,0.03125,0.8,0.86914
15.072,1,0.38319,0.03125,0.8,0.86523
15.08,1,0.39394,0.03125,0.80588,0.86914
15.088,1,0.40665,0.03125,0.8,0.86914
15.096,1,0.42326,0.019531,0.80588,0.875
15.104,1,0.44673,0.015625,0.8,0.86914
15.112,1,0.47703,0.025391,0.80588,0.86914
15.12,1,0.51124,0.025391,0.80588,0.86914
15.128,1,0.54643,0.019531,0.80588,0.86914
15.136,1,0.58162,0.019531,0.81176,0.86914
15.144,1,0.61486,0.025391,0.81176,0.86523
15.152,1,0.64418,0.019531,0.80588,0.86523
15.16,1,0.67058,0.025391,0.80588,0.86523
15.168,1,0.6911,0.035156,0.8,0.85938
15.176,1,0.7087,0.050781,0.79608,0.85547
15.184,1,0.72239,0.060547,0.7902,0.84961
15.192,1,0.73118,0.070312,0.8,0.84375
15.2,1,0.73705,0.064453,0.80588,0.83398
15.208,1,0.74194,0.076172,0.78627,0.83398
15.216,1,0.74585,0.054688,0.77059,0.84375
15.224,1,0.74976,0.050781,0.78039,0.83984
15.232,1,0.75171,0.054688,0.77647,0.83984
15.24,1,0.75171,0.050781,0.77647,0.84375
15.248,1,0.75073,0.041016,0.78627,0.85547
15.256,0.99902,0.74878,0.015625,0.79608,0.86914
15.264,0.99804,0.74487,-0.0097656,0.80588,0.88867
15.272,0.9912,0.739,-0.013672,0.81176,0.89453
15.28,0.98436,0.73021,-0.019531,0.81176,0.90039
15.288,0.97752,0.72043,-0.013672,0.81176,0.90039
15.296,0.97067,0.70968,-0.019531,0.81569,0.90039
15.304,0.96285,0.69599,-0.044922,0.8451,0.92383
15.312,0.95601,0.68035,0.16016,0.86078,0.81445
15.32,0.94917,0.66276,0.94922,0.56471,0.33984
15.328,0.94233,0.64516,1.2441,0.4098,0.15039
15.336,0.93451,0.62659,-0.10352,0.7549,0.875
15.344,0.92766,0.60899,-0.49805,0.92157,1.0449
15.352,0.91984,0.59238,-0.49805,1.0157,1.0391
15.36,0.91202,0.57771,-0.49805,1.0275,1.0254
15.368,0.9042,0.565,-0.33008,0.94706,0.98438
15.376,0.89541,0.55327,-0.16406,0.90196,0.95508
15.384,0.88661,0.54448,-0.080078,0.85686,0.93555
15.392,0.87781,0.53666,-0.048828,0.83529,0.92383
15.4,0.86999,0.53079,-0.035156,0.83137,0.91992
15.408,0.86217,0.5259,-0.025391,0.82157,0.91406
15.416,0.85533,0.52102,-0.013672,0.82157,0.91016
15.424,0.84751,0.51711,-0.0097656,0.82157,0.9043
15.432,0.83969,0.5132,-0.0097656,0.82157,0.91016
15.44,0.83284,0.50929,-0.0097656,0.81569,0.9043
15.448,0.82405,0.50538,-0.0097656,0.81569,0.91016
15.456,0.81623,0.50049,-0.0097656,0.81569,0.9043
15.464,0.80841,0.4956,-0.0097656,0.81569,0.91016
15.472,0.80156,0.49071,-0.0097656,0.81569,0.91016
15.48,0.79472,0.48583,-0.0097656,0.81569,0.91016
15.488,0.78788,0.48094,-0.0039062,0.81569,0.9043
15.496,0.78104,0.47703,-0.0039062,0.81569,0.91016
15.504,0.77322,0.47214,-0.0039062,0.82157,0.91016
15.512,0.7654,0.46628,-0.0039062,0.82549,0.91016
15.52,0.7566,0.46139,-0.0097656,0.83137,0.9043
15.528,0.74878,0.45552,-0.0097656,0.83137,0.9043
15.536,0.73998,0.44966,-0.0097656,0.83529,0.91016
15.544,0.73216,0.44379,-0.019531,0.84118,0.91016
15.552,0.72434,0.43793,-0.029297,0.8451,0.91406
15.56,0.71652,0.43206,-0.039062,0.85098,0.91992
15.568,0.70968,0.4262,-0.048828,0.85686,0.91992
15.576,0.70283,0.42033,-0.064453,0.85098,0.91992
15.584,0.69697,0.41544,-0.064453,0.85098,0.92383
15.592,0.68915,0.41056,-0.064453,0.85098,0.92383
15.6,0.68231,0.40665,-0.064453,0.8451,0.91992
15.608,0.67449,0.40274,-0.044922,0.84118,0.9043
15.616,0.66667,0.39785,-0.013672,0.83137,0.88867
15.624,0.65787,0.39394,0.025391,0.81569,0.86523
15.632,0.65005,0.38905,0.050781,0.80588,0.85547
15.64,0.64223,0.38514,0.064453,0.79608,0.84375
15.648,0.63343,0.38025,0.076172,0.79608,0.83984
15.656,0.62366,0.37634,0.080078,0.7902,0.83984
15.664,0.61388,0.37341,0.076172,0.7902,0.83984
15.672,0.60215,0.3695,0.070312,0.7902,0.83984
15.68,0.5914,0.36657,0.064453,0.7902,0.84375
15.688,0.57674,0.36364,0.054688,0.79608,0.84961
15.696,0.56305,0.36168,0.050781,0.8,0.84961
15.704,0.54741,0.35973,0.041016,0.80588,0.86523
15.712,0.53177,0.35777,0.035156,0.81176,0.86523
15.72,0.51613,0.35484,0.03125,0.81569,0.86523
15.728,0.50147,0.35288,0.03125,0.81569,0.86914
15.736,0.48583,0.35093,0.03125,0.81569,0.875
15.744,0.47116,0.34897,0.03125,0.81176,0.875
15.752,0.45259,0.34604,0.03125,0.81176,0.875
15.76,0.435,0.34409,0.03125,0.81176,0.86523
15.768,0.41447,0.34213,0.041016,0.80588,0.86523
15.776,0.39394,0.34018,0.041016,0.80588,0.86523
15.784,0.37439,0.3392,0.050781,0.8,0.85938
15.792,0.35582,0.3392,0.050781,0.79608,0.85547
15.8,0.33822,0.33724,0.050781,0.7902,0.84961
15.808,0.32063,0.33627,0.050781,0.79608,0.84961
15.816,0.30303,0.33431,0.054688,0.79608,0.84961
15.824,0.28543,0.33236,0.050781,0.79608,0.84961
15.832,0.26784,0.3304,0.050781,0.79608,0.84961
15.84,0.25024,0.32942,0.050781,0.79608,0.85547
15.848,0.23363,0.33138,0.050781,0.7902,0.85938
15.856,0.21799,0.33724,0.044922,0.7902,0.85547
15.864,0.20235,0.34897,0.044922,0.79608,0.85547
15.872,0.18768,0.36657,0.050781,0.79608,0.85938
15.88,0.17595,0.39101,0.041016,0.8,0.85938
15.888,0.16422,0.41642,0.041016,0.8,0.85938
15.896,0.15445,0.44379,0.041016,0.8,0.85938
15.904,0.14565,0.47801,0.035156,0.8,0.85938
15.912,0.13881,0.51417,0.035156,0.80588,0.85547
15.92,0.13099,0.55132,0.035156,0.81176,0.85938
15.928,0.12512,0.58553,0.035156,0.80588,0.85547
15.936,0.11926,0.61584,0.044922,0.79608,0.84375
15.944,0.11339,0.64321,0.064453,0.79608,0.83398
15.952,0.1085,0.66667,0.076172,0.7902,0.83984
15.96,0.10362,0.68524,0.085938,0.8,0.83008
15.968,0.099707,0.70088,0.076172,0.7902,0.82422
15.976,0.094819,0.71457,0.085938,0.78039,0.82031
15.984,0.090909,0.72336,0.070312,0.77059,0.83008
15.992,0.086022,0.72923,0.076172,0.77647,0.82031
16,0.082111,0.73509,0.070312,0.77647,0.83008
16.008,0.076246,0.74096,0.060547,0.77647,0.83398
16.016,0.071359,0.74487,0.044922,0.78627,0.84961
16.024,0.065494,0.7478,0.019531,0.79608,0.86523
16.032,0.059629,0.74976,0,0.80588,0.87891
16.04,0.054741,0.74976,-0.0039062,0.81176,0.88867
16.048,0.049853,0.74878,-0.0039062,0.81176,0.88867
16.056,0.045943,0.74487,0,0.81176,0.88867
16.064,0.042033,0.739,-0.0097656,0.81176,0.88867
16.072,0.037146,0.73021,-0.029297,0.85098,0.91406
16.08,0.032258,0.71945,0.20508,0.85686,0.78906
16.088,0.026393,0.70772,0.95898,0.56078,0.32031
16.096,0.020528,0.69404,1.1992,0.42941,0.16016
16.104,0.016618,0.6784,-0.22852,0.7902,0.93555
16.112,0.01173,0.6608,-0.49805,0.94118,1.0742
16.12,0.0087977,0.64125,-0.49805,1.0314,1.0586
16.128,0.0048876,0.62268,-0.49805,1.0373,1.0254
16.136,0.001955,0.60411,-0.31445,0.94706,0.98047
16.144,0,0.58651,-0.16016,0.90588,0.94531
16.152,0,0.56989,-0.080078,0.86078,0.92383
16.16,0,0.55621,-0.048828,0.83137,0.91992
16.168,0,0.5435,-0.035156,0.82157,0.91016
16.176,0,0.53372,-0.025391,0.81569,0.91016
16.184,0,0.5259,-0.019531,0.81569,0.9043
16.192,0,0.52004,-0.019531,0.81569,0.91016
16.2,0,0.51515,-0.013672,0.81569,0.9043
16.208,0,0.51026,-0.013672,0.81569,0.9043
16.216,0,0.50538,-0.0097656,0.81569,0.90039
16.224,0,0.50147,-0.013672,0.81569,0.90039
16.232,0,0.49756,-0.0097656,0.81569,0.90039
16.24,0,0.49365,-0.013672,0.81176,0.91016
16.248,0,0.48876,-0.0097656,0.81569,0.9043
16.256,0,0.48387,-0.0097656,0.81176,0.9043
16.264,0,0.47898,-0.013672,0.81569,0.9043
16.272,0,0.47312,-0.0097656,0.81569,0.90039
16.28,0,0.46725,-0.0039062,0.81569,0.89453
16.288,0,0.46237,-0.0039062,0.81569,0.89453
16.296,0,0.45748,-0.0039062,0.82157,0.89453
16.304,0,0.45259,-0.0097656,0.82549,0.89453
16.312,0,0.44673,-0.013672,0.83137,0.90039
16.32,0,0.43988,-0.025391,0.84118,0.9043
16.328,0,0.43402,-0.039062,0.84118,0.91016
16.336,0,0.42717,-0.048828,0.8451,0.91016
16.344,0,0.42131,-0.058594,0.85098,0.91016
16.352,0,0.41447,-0.058594,0.85098,0.91016
16.36,0,0.40958,-0.064453,0.84118,0.91016
16.368,0,0.40371,-0.058594,0.84118,0.9043
16.376,0,0.39883,-0.039062,0.83137,0.88867
16.384,0,0.37732,-0.0097656,0.81569,0.86914
16.392,0,0.348,0.025391,0.80588,0.85547
16.4,0,0.3304,0.050781,0.79608,0.83984
16.408,0,0.31965,0.070312,0.7902,0.83984
16.416,0,0.31085,0.070312,0.7902,0.83984
16.424,0,0.30401,0.080078,0.78627,0.83008
16.432,0,0.29814,0.085938,0.77647,0.82422
16.44,0,0.29228,0.080078,0.77059,0.82031
16.448,0,0.28739,0.076172,0.78039,0.82422
16.456,0,0.28348,0.099609,0.76667,0.82422
16.464,0,0.27859,0.085938,0.76667,0.83398
16.472,0,0.27566,0.050781,0.78039,0.85938
16.48,0,0.27175,0.03125,0.7902,0.875
16.488,0,0.26882,0.015625,0.79608,0.88867
16.496,0,0.26686,0.0058594,0.8,0.88867
16.504,0,0.26491,0.0058594,0.8,0.88867
16.512,0,0.26197,0.0058594,0.80588,0.88867
16.52,0,0.26002,0.015625,0.80588,0.88477
16.528,0,0.25709,0.0097656,0.80588,0.88477
16.536,0,0.25415,0.025391,0.8,0.875
16.544,0,0.2522,0.03125,0.7902,0.875
16.552,0,0.24927,0.0097656,0.81176,0.88867
16.56,0,0.24633,0.15625,0.82549,0.82422
16.568,0,0.24438,0.86914,0.59608,0.38477
16.576,0,0.24145,1.1445,0.47059,0.18945
16.584,0,0.23949,-0.20898,0.79608,0.9043
16.592,0,0.23851,-0.49805,0.96078,1.084
16.6,0,0.23656,-0.49805,1.0608,1.0996
16.608,0,0.23558,-0.49805,1.0118,1.0137
16.616,0,0.23656,-0.25,0.92549,0.94531
16.624,0,0.24047,-0.09375,0.87647,0.91016
16.632,0,0.25024,-0.019531,0.83137,0.88867
16.64,0,0.26784,0,0.80588,0.88867
16.648,0,0.29228,0.0097656,0.8,0.88867
16.656,0,0.32356,0.0097656,0.80588,0.88477
16.664,0,0.3607,0.0097656,0.8,0.88477
16.672,0,0.40274,0.015625,0.79608,0.87891
16.68,0,0.44575,0.03125,0.7902,0.86914
16.688,0,0.48387,0.03125,0.7902,0.86523
16.696,0,0.51613,0.03125,0.7902,0.86523
16.704,0,0.55034,0.035156,0.7902,0.86523
16.712,0,0.58065,0.025391,0.7902,0.86914
16.72,0,0.60802,0.03125,0.7902,0.86914
16.728,0,0.6305,0.019531,0.7902,0.875
16.736,0,0.64907,0.025391,0.7902,0.86914
16.744,0,0.66373,0.03125,0.7902,0.86914
16.752,0,0.67449,0.035156,0.78627,0.86523
16.76,0,0.68328,0.019531,0.7902,0.875
16.768,0,0.68915,0.025391,0.7902,0.86914
16.776,0,0.69404,0.0097656,0.79608,0.86523
16.784,0,0.69599,0.0058594,0.80588,0.87891
16.792,0,0.69501,-0.0039062,0.81176,0.88477
16.8,0,0.69404,-0.013672,0.81569,0.88867
16.808,0,0.69208,-0.019531,0.81569,0.88867
16.816,0,0.68817,-0.013672,0.81569,0.88867
16.824,0,0.68231,-0.019531,0.81569,0.88867
16.832,0,0.67351,-0.013672,0.81176,0.87891
16.84,0,0.66178,0.0097656,0.8,0.86523
16.848,0,0.64809,0.035156,0.7902,0.84375
16.856,0,0.63148,0.070312,0.78039,0.83008
16.864,0,0.61193,0.099609,0.78039,0.81445
16.872,0,0.5914,0.10547,0.77647,0.80469
16.88,0,0.56989,0.089844,0.78039,0.81445
16.888,0,0.55034,0.076172,0.7902,0.82422
16.896,0,0.53275,0.070312,0.79608,0.83008
16.904,0,0.51417,0.060547,0.80588,0.83984
16.912,0,0.49658,0.044922,0.81569,0.83984
16.92,0,0.48094,0.041016,0.81176,0.83984
16.928,0,0.46823,0.035156,0.81569,0.84375
16.936,0,0.4565,0.035156,0.82157,0.84961
16.944,0,0.4477,0.050781,0.81569,0.84375
16.952,0,0.43988,0.050781,0.81569,0.83984
16.96,0,0.43304,0.050781,0.81569,0.83984
16.968,0,0.42815,0.060547,0.81176,0.83008
16.976,0,0.42229,0.064453,0.81569,0.83398
16.984,0,0.41838,0.060547,0.81569,0.83008
16.992,0,0.41447,0.064453,0.81176,0.83398
17,0,0.40958,0.050781,0.81569,0.83984
17.008,0,0.40371,0.060547,0.81176,0.83398
17.016,0,0.39883,0.064453,0.81176,0.83008
17.024,0,0.39198,0.054688,0.81569,0.83398
17.032,0,0.38612,0.050781,0.81569,0.83008
17.04,0,0.37928,0.044922,0.81569,0.83398
17.048,0,0.37146,0.044922,0.81569,0.83984
17.056,0,0.36461,0.035156,0.81569,0.83984
17.064,0,0.35679,0.03125,0.81569,0.84961
17.072,0,0.34995,0.03125,0.82549,0.84375
17.08,0,0.34213,0.03125,0.82157,0.84375
17.088,0,0.33627,0.019531,0.82157,0.84961
17.096,0,0.3304,0.019531,0.82549,0.84375
17.104,0,0.32551,0.0097656,0.82157,0.85547
17.112,0,0.32063,0.0097656,0.82549,0.85938
17.12,0,0.31867,0.0058594,0.82549,0.85547
17.128,0,0.32063,0,0.83529,0.86523
17.136,0,0.32747,0.0058594,0.83137,0.85938
17.144,0,0.34018,0.0097656,0.84118,0.85547
17.152,0,0.35875,0.015625,0.83529,0.85547
17.16,0,0.38123,0.0058594,0.83529,0.85938
17.168,0,0.40762,0.0097656,0.83137,0.85547
17.176,0,0.435,0.0058594,0.83529,0.85938
17.184,0,0.45943,0,0.83529,0.85938
17.192,0,0.47996,0.0058594,0.83529,0.85938
17.2,0.00097752,0.50147,0.0097656,0.83529,0.85547
17.208,0.030303,0.52102,0.0058594,0.83529,0.85938
17.216,0.058651,0.53666,-0.0039062,0.84118,0.86523
17.224,0.085044,0.54839,0.0058594,0.83529,0.85938
17.232,0.11144,0.55621,0.0058594,0.83529,0.85938
17.24,0.13685,0.56012,-0.0039062,0.84118,0.86523
17.248,0.16129,0.56109,-0.0039062,0.83529,0.86914
17.256,0.18964,0.55914,0.0058594,0.83137,0.86523
17.264,0.21701,0.55425,0.0058594,0.83529,0.85938
17.272,0.24731,0.54741,0.0058594,0.83529,0.85938
17.28,0.27859,0.53666,0,0.84118,0.86523
17.288,0.31085,0.5259,0.0058594,0.83137,0.86523
17.296,0.34311,0.51222,-0.0097656,0.83137,0.86914
17.304,0.37732,0.49658,-0.0097656,0.83137,0.86914
17.312,0.41056,0.47703,0,0.83529,0.86523
17.32,0.44184,0.4565,-0.0039062,0.83529,0.86914
17.328,0.47312,0.435,0.0058594,0.83137,0.85938
17.336,0.50244,0.41349,0.0058594,0.83529,0.85938
17.344,0.53177,0.39296,0.03125,0.82549,0.84961
17.352,0.56305,0.37439,0.050781,0.81569,0.84961
17.36,0.59335,0.35777,0.044922,0.81569,0.85547
17.368,0.62463,0.34409,0.044922,0.82549,0.83984
17.376,0.65591,0.33333,0.070312,0.8,0.83008
17.384,0.68426,0.32649,0.054688,0.79608,0.83398
17.392,0.71261,0.3216,0.060547,0.8,0.82031
17.4,0.739,0.31769,0.050781,0.8,0.83008
17.408,0.76442,0.31574,0.03125,0.81176,0.83984
17.416,0.79179,0.31378,0.019531,0.81569,0.85547
17.424,0.81916,0.31281,-0.019531,0.83529,0.87891
17.432,0.84751,0.31085,-0.029297,0.84118,0.88867
17.44,0.87683,0.30987,-0.029297,0.84118,0.88867
17.448,0.90616,0.30792,-0.035156,0.84118,0.89453
17.456,0.93548,0.30596,-0.019531,0.83529,0.87891
17.464,0.96579,0.30303,-0.025391,0.84118,0.88477
17.472,0.99609,0.3001,-0.029297,0.88039,0.88867
17.48,0.99804,0.29619,0.30078,0.8,0.71484
17.488,1,0.29326,1.0254,0.53529,0.26562
17.496,1,0.29032,1.0293,0.47451,0.24609
17.504,1,0.28543,-0.43945,0.91569,1.0449
17.512,1,0.28055,-0.49805,1.0275,1.1387
17.52,1,0.27566,-0.49805,1.0765,1.1094
17.528,1,0.27077,-0.49805,1.0373,1.0391
17.536,1,0.26588,-0.32422,0.97059,0.98047
17.544,1,0.261,-0.18359,0.92157,0.94922
17.552,1,0.25611,-0.083984,0.88627,0.91016
17.56,1,0.25122,-0.048828,0.85098,0.9043
17.568,1,0.24633,-0.039062,0.84118,0.90039
17.576,1,0.24145,-0.025391,0.84118,0.90039
17.584,1,0.23851,-0.025391,0.84118,0.90039
17.592,1,0.23558,-0.019531,0.84118,0.89453
17.6,1,0.23167,-0.019531,0.84118,0.89453
17.608,1,0.22776,-0.013672,0.84118,0.88867
17.616,1,0.22287,-0.019531,0.84118,0.89453
17.624,1,0.21896,-0.013672,0.83529,0.89453
17.632,1,0.21505,-0.0097656,0.83529,0.88867
17.64,1,0.21114,-0.013672,0.83529,0.88867
17.648,1,0.20626,-0.0097656,0.83529,0.88867
17.656,1,0.20235,-0.013672,0.84118,0.88867
17.664,1,0.19844,-0.013672,0.84118,0.88867
17.672,1,0.19453,-0.0097656,0.84118,0.88867
17.68,1,0.19257,-0.013672,0.84118,0.88867
17.688,1,0.19062,0,0.84118,0.87891
17.696,1,0.18866,-0.0097656,0.84118,0.88477
17.704,1,0.18573,-0.013672,0.84118,0.88867
17.712,1,0.1828,-0.029297,0.85098,0.88867
17.72,1,0.17986,-0.044922,0.85686,0.90039
17.728,1,0.17791,-0.058594,0.86078,0.91016
17.736,1,0.17498,-0.083984,0.87059,0.91992
17.744,1,0.17302,-0.09375,0.87647,0.91406
17.752,1,0.17009,-0.10352,0.88039,0.92383
17.76,1,0.16813,-0.11523,0.88039,0.92383
17.768,1,0.16618,-0.10352,0.88627,0.91406
17.776,1,0.16325,-0.09375,0.87647,0.91016
17.784,1,0.16325,-0.064453,0.86078,0.88867
17.792,1,0.16325,-0.025391,0.8451,0.86523
17.8,1,0.16227,0.019531,0.84118,0.84961
17.808,1,0.16031,0.044922,0.83137,0.83984
17.816,1,0.15934,0.054688,0.82549,0.83984
17.824,1,0.15836,0.060547,0.83137,0.83984
17.832,1,0.15738,0.054688,0.83137,0.84375
17.84,1,0.1564,0.050781,0.83529,0.84961
17.848,1,0.15543,0.044922,0.83529,0.85938
17.856,1,0.15445,0.044922,0.83529,0.85938
17.864,1,0.15445,0.041016,0.83529,0.85938
17.872,1,0.15445,0.050781,0.82549,0.84961
17.88,1,0.15543,0.080078,0.82157,0.83984
17.888,1,0.15738,0.11133,0.80588,0.83008
17.896,1,0.15836,0.12109,0.81176,0.82031
17.904,1,0.15934,0.15039,0.79608,0.80469
17.912,1,0.15934,0.16992,0.76667,0.79492
17.92,1,0.16031,0.16992,0.76078,0.78516
17.928,1,0.16227,0.16602,0.76667,0.78516
17.936,1,0.16422,0.16602,0.76667,0.78516
17.944,1,0.16618,0.14062,0.77059,0.79883
17.952,1,0.16813,0.11133,0.7902,0.81445
17.96,1,0.17009,0.064453,0.80588,0.84375
17.968,1,0.17204,0.035156,0.82157,0.86523
17.976,1,0.174,0.019531,0.82549,0.86914
17.984,1,0.17595,0.0097656,0.82549,0.87891
17.992,1,0.17889,0,0.83529,0.88477
18,1,0.18182,-0.0039062,0.84118,0.88867
18.008,1,0.18671,-0.0097656,0.84118,0.88867
18.016,1,0.19453,-0.013672,0.84118,0.89453
18.024,1,0.20919,-0.019531,0.84118,0.88867
18.032,1,0.23167,-0.058594,0.87059,0.93555
18.04,1,0.26197,0.13086,0.88627,0.83008
18.048,1,0.30205,0.91992,0.58431,0.34961
18.056,1,0.34897,1.1992,0.43922,0.16992
18.064,1,0.40078,-0.21484,0.82157,0.93555
18.072,1,0.45455,-0.49805,0.97059,1.0742
18.08,1,0.50049,-0.49805,1.051,1.0547
18.088,1,0.54057,-0.48828,1.0216,1.0254
18.096,1,0.58065,-0.30859,0.96078,0.98438
18.104,1,0.61779,-0.16992,0.91569,0.95898
18.112,1,0.64907,-0.099609,0.87059,0.93945
18.12,1,0.67546,-0.080078,0.85098,0.93555
18.128,1,0.69599,-0.064453,0.84118,0.93555
18.136,1,0.71261,-0.054688,0.84118,0.93555
18.144,1,0.72434,-0.048828,0.83137,0.92969
18.152,1,0.73314,-0.044922,0.83529,0.92383
18.16,1,0.739,-0.035156,0.83137,0.92969
18.168,1,0.74291,-0.035156,0.83137,0.91992
18.176,1,0.74389,-0.025391,0.83137,0.91992
18.184,1,0.74291,-0.025391,0.82549,0.91992
18.192,1,0.739,-0.035156,0.82549,0.92383
18.2,1,0.73412,-0.029297,0.82549,0.91992
18.208,1,0.72727,-0.025391,0.82549,0.91992
18.216,1,0.7175,-0.019531,0.82157,0.91406
18.224,1,0.70577,-0.019531,0.82157,0.91406
18.232,1,0.69208,-0.019531,0.82549,0.91016
18.24,1,0.67546,-0.019531,0.82549,0.91016
18.248,1,0.65787,-0.019531,0.82549,0.91016
18.256,1,0.6393,-0.025391,0.83137,0.91406
18.264,1,0.61975,-0.025391,0.83137,0.91016
18.272,1,0.60117,-0.029297,0.84118,0.91406
18.28,1,0.58456,-0.044922,0.84118,0.91992
18.288,1,0.57087,-0.044922,0.85098,0.92383
18.296,1,0.55718,-0.048828,0.84118,0.91992
18.304,1,0.54448,-0.048828,0.84118,0.91406
18.312,1,0.53372,-0.048828,0.83137,0.91406
18.32,1,0.52493,-0.044922,0.82549,0.91016
18.328,1,0.51808,-0.025391,0.81569,0.89453
18.336,1,0.51222,0.0097656,0.79608,0.875
18.344,1,0.50733,0.041016,0.7902,0.85938
18.352,1,0.50244,0.060547,0.78627,0.84961
18.36,1,0.49853,0.070312,0.78039,0.84375
18.368,1,0.49462,0.070312,0.78039,0.84961
18.376,1,0.48974,0.054688,0.78627,0.85547
18.384,1,0.48583,0.050781,0.7902,0.85938
18.392,1,0.48094,0.041016,0.7902,0.85938
18.4,1,0.47703,0.03125,0.79608,0.86523
18.408,1,0.47116,0.03125,0.80588,0.86523
18.416,1,0.46628,0.015625,0.81176,0.875
18.424,1,0.46041,0.015625,0.81569,0.87891
18.432,1,0.46725,0.015625,0.81569,0.88477
18.44,1,0.47996,0.0058594,0.81569,0.88867
18.448,1,0.48387,0.0058594,0.81176,0.88867
18.456,1,0.48289,0.041016,0.7902,0.875
18.464,1,0.47898,0.089844,0.77059,0.83984
18.472,1,0.4741,0.12109,0.76667,0.83008
18.48,1,0.46921,0.12109,0.76078,0.83398
18.488,0.99707,0.46432,0.12109,0.77059,0.83008
18.496,0.99413,0.45846,0.11523,0.7549,0.83984
18.504,0.9824,0.45259,0.095703,0.7549,0.83398
18.512,0.97165,0.44673,0.070312,0.77059,0.84961
18.52,0.9609,0.44086,0.041016,0.7902,0.86523
18.528,0.95015,0.43597,0.025391,0.79608,0.86523
18.536,0.93939,0.43011,0.0097656,0.80588,0.86914
18.544,0.92864,0.42424,0.0058594,0.81176,0.875
18.552,0.91789,0.41935,0.0058594,0.81176,0.875
18.56,0.90714,0.41447,0,0.81569,0.87891
18.568,0.89638,0.41056,-0.0039062,0.81176,0.87891
18.576,0.88465,0.40762,-0.0039062,0.81569,0.88477
18.584,0.8739,0.40762,-0.035156,0.83137,0.9043
18.592,0.86315,0.41153,-0.048828,0.86078,0.92383
18.6,0.85337,0.41935,0.66406,0.66471,0.5
18.608,0.8436,0.43304,1.2734,0.38431,0.11523
18.616,0.8348,0.45259,0.21094,0.66078,0.68945
18.624,0.826,0.47703,-0.48438,0.90588,1.0293
18.632,0.8172,0.5044,-0.49805,1.0157,1.0449
18.64,0.80841,0.5347,-0.49805,1.0314,1.0254
18.648,0.79961,0.56403,-0.34375,0.95098,0.97461
18.656,0.79081,0.59238,-0.17383,0.90588,0.93555
18.664,0.78299,0.61877,-0.083984,0.86078,0.91992
18.672,0.77517,0.64125,-0.054688,0.84118,0.91016
18.68,0.76735,0.65689,-0.039062,0.83137,0.9043
18.688,0.75953,0.6696,-0.025391,0.82549,0.9043
18.696,0.75073,0.68035,-0.019531,0.82549,0.90039
18.704,0.74194,0.69013,-0.013672,0.82157,0.90039
18.712,0.73216,0.69697,-0.0097656,0.82549,0.89453
18.72,0.72239,0.70283,-0.0097656,0.82549,0.89453
18.728,0.71163,0.70577,-0.013672,0.82157,0.90039
18.736,0.70088,0.70772,-0.0097656,0.82157,0.89453
18.744,0.69013,0.7087,-0.0097656,0.81569,0.88867
18.752,0.6784,0.70772,-0.0039062,0.81569,0.89453
18.76,0.66764,0.70479,-0.0039062,0.81176,0.90039
18.768,0.65787,0.70088,-0.0039062,0.81569,0.90039
18.776,0.64712,0.69501,-0.0039062,0.81569,0.90039
18.784,0.63734,0.68817,0,0.81569,0.90039
18.792,0.62757,0.6784,0,0.81569,0.90039
18.8,0.61681,0.66764,0,0.82157,0.88867
18.808,0.60704,0.65396,0.0058594,0.82157,0.88867
18.816,0.59726,0.63832,-0.0039062,0.82549,0.89453
18.824,0.58749,0.6217,-0.013672,0.83137,0.90039
18.832,0.57771,0.60411,-0.019531,0.83529,0.9043
18.84,0.56794,0.58553,-0.025391,0.83529,0.9043
18.848,0.55914,0.56794,-0.029297,0.84118,0.9043
18.856,0.54936,0.55132,-0.029297,0.83529,0.9043
18.864,0.53959,0.53568,-0.029297,0.82549,0.89453
18.872,0.52981,0.52297,-0.025391,0.82157,0.88867
18.88,0.52004,0.51222,0,0.81569,0.875
18.888,0.51026,0.50342,0.03125,0.79608,0.85938
18.896,0.50049,0.4956,0.064453,0.7902,0.83984
18.904,0.49071,0.4868,0.085938,0.78627,0.83008
18.912,0.48094,0.48094,0.095703,0.78627,0.83008
18.92,0.47214,0.47703,0.095703,0.78627,0.83008
18.928,0.46334,0.47116,0.076172,0.78627,0.83398
18.936,0.45455,0.46823,0.064453,0.7902,0.83984
18.944,0.44575,0.4653,0.050781,0.7902,0.84375
18.952,0.43597,0.46139,0.044922,0.79608,0.84961
18.96,0.42522,0.45846,0.035156,0.8,0.85938
18.968,0.41349,0.45552,0.03125,0.8,0.86523
18.976,0.40176,0.45161,0.019531,0.81176,0.86523
18.984,0.39003,0.44868,0.025391,0.81176,0.86914
18.992,0.3783,0.44477,0.03125,0.80588,0.86523
19,0.36755,0.43988,0.050781,0.80588,0.84961
19.008,0.35582,0.435,0.076172,0.81176,0.84961
19.016,0.34213,0.43011,0.085938,0.8,0.84375
19.024,0.32942,0.42424,0.089844,0.80588,0.83008
19.032,0.31476,0.41838,0.099609,0.78039,0.82031
19.04,0.3001,0.41251,0.10547,0.76667,0.81445
19.048,0.28446,0.40665,0.095703,0.77059,0.81445
19.056,0.26882,0.40078,0.099609,0.77647,0.81055
19.064,0.25318,0.39492,0.099609,0.77059,0.81445
19.072,0.23754,0.39003,0.089844,0.77059,0.82031
19.08,0.22287,0.38514,0.060547,0.7902,0.83984
19.088,0.20919,0.38025,0.035156,0.79608,0.86523
19.096,0.19648,0.37537,0.0097656,0.81176,0.87891
19.104,0.18377,0.3695,0.0058594,0.81176,0.88477
19.112,0.17204,0.36559,0.0058594,0.81176,0.88477
19.12,0.16031,0.36461,0,0.81176,0.88477
19.128,0.14956,0.36657,-0.0039062,0.81176,0.88867
19.136,0.13783,0.37243,0,0.81176,0.88477
19.144,0.12903,0.38514,-0.0097656,0.80588,0.88477
19.152,0.12023,0.40371,-0.048828,0.84118,0.92383
19.16,0.11241,0.42815,0.089844,0.86078,0.85938
19.168,0.10557,0.4565,0.82031,0.60588,0.41016
19.176,0.099707,0.48387,1.1387,0.42549,0.20117
19.184,0.093842,0.52395,-0.10938,0.75098,0.86914
19.192,0.088954,0.5523,-0.49805,0.90196,1.0488
19.2,0.084066,0.57967,-0.49805,1.002,1.0547
19.208,0.079179,0.61486,-0.49805,1.0216,1.0254
19.216,0.074291,0.63343,-0.31445,0.95098,0.98047
19.224,0.069404,0.64907,-0.1543,0.90196,0.93945
19.232,0.065494,0.66178,-0.070312,0.85098,0.91406
19.24,0.060606,0.67058,-0.039062,0.82157,0.91016
19.248,0.056696,0.6784,-0.019531,0.81569,0.9043
19.256,0.052786,0.68328,-0.0097656,0.80588,0.9043
19.264,0.047898,0.68622,-0.0097656,0.80588,0.9043
19.272,0.043011,0.68719,-0.0039062,0.8,0.90039
19.28,0.038123,0.68622,0,0.8,0.90039
19.288,0.032258,0.68524,0,0.79608,0.89453
19.296,0.02737,0.67937,0,0.8,0.89453
19.304,0.022483,0.67351,0.0058594,0.8,0.89453
19.312,0.017595,0.66569,0.0058594,0.8,0.90039
19.32,0.013685,0.65494,0.0058594,0.80588,0.89453
19.328,0.0097752,0.64223,0.0058594,0.8,0.90039
19.336,0.0048876,0.62757,0.0058594,0.8,0.89453
19.344,0.00097752,0.61095,0.0058594,0.8,0.89453
19.352,0,0.59531,0.0097656,0.8,0.88477
19.36,0,0.57967,0.0097656,0.8,0.88477
19.368,0,0.56207,0.0097656,0.80588,0.87891
19.376,0,0.54448,0.0058594,0.81569,0.88477
19.384,0,0.52786,0.0058594,0.81569,0.88867
19.392,0,0.51222,0,0.81569,0.88867
19.4,0,0.49853,-0.013672,0.82157,0.88867
19.408,0,0.4868,-0.019531,0.82157,0.89453
19.416,0,0.47703,-0.025391,0.82157,0.89453
19.424,0,0.46921,-0.025391,0.82157,0.88867
19.432,0,0.46237,-0.019531,0.81569,0.88867
19.44,0,0.45748,-0.0097656,0.80588,0.875
19.448,0,0.45259,0.019531,0.79608,0.85938
19.456,0,0.44966,0.054688,0.78627,0.83984
19.464,0,0.4477,0.080078,0.77059,0.82422
19.472,0,0.44477,0.099609,0.77059,0.82031
19.48,0,0.44184,0.099609,0.77647,0.82031
19.488,0,0.43891,0.099609,0.78039,0.82031
19.496,0,0.435,0.085938,0.78627,0.82422
19.504,0,0.43109,0.070312,0.7902,0.83984
19.512,0,0.42717,0.050781,0.79608,0.84375
19.52,0,0.42229,0.044922,0.79608,0.85547
19.528,0,0.4174,0.041016,0.8,0.85938
19.536,0,0.41251,0.03125,0.81176,0.86523
19.544,0,0.40762,0.03125,0.81176,0.86523
19.552,0,0.40274,0.025391,0.81176,0.86523
19.56,0,0.39883,0.025391,0.81176,0.86523
19.568,0,0.39394,0.03125,0.81176,0.86523
19.576,0,0.38807,0.03125,0.80588,0.85938
19.584,0,0.38221,0.035156,0.80588,0.85938
19.592,0,0.37634,0.041016,0.8,0.85547
19.6,0,0.37048,0.050781,0.7902,0.84375
19.608,0,0.36559,0.054688,0.7902,0.84375
19.616,0,0.3607,0.050781,0.7902,0.83984
19.624,0,0.35582,0.054688,0.7902,0.83984
19.632,0,0.34995,0.054688,0.7902,0.84375
19.64,0,0.34506,0.050781,0.7902,0.84375
19.648,0,0.34018,0.050781,0.79608,0.84961
19.656,0,0.33724,0.044922,0.79608,0.84375
19.664,0,0.33529,0.044922,0.79608,0.84961
19.672,0,0.33627,0.041016,0.79608,0.84961
19.68,0,0.34018,0.041016,0.79608,0.84375
19.688,0,0.34897,0.035156,0.79608,0.84961
19.696,0,0.36461,0.03125,0.79608,0.85547
19.704,0,0.38612,0.03125,0.8,0.85938
19.712,0,0.42913,0.03125,0.8,0.85938
19.72,0,0.46139,0.03125,0.8,0.85938
19.728,0,0.4956,0.025391,0.8,0.85938
19.736,0,0.5435,0.025391,0.80588,0.85938
19.744,0,0.56891,0.019531,0.8,0.86523
19.752,0,0.58944,0.019531,0.80588,0.86523
19.76,0,0.60899,0.019531,0.80588,0.86523
19.768,0,0.62659,0.015625,0.80588,0.86523
19.776,0,0.64125,0.019531,0.80588,0.86523
19.784,0,0.652,0.019531,0.80588,0.86523
19.792,0,0.6608,0.025391,0.80588,0.85938
19.8,0,0.66764,0.035156,0.8,0.84961
19.808,0,0.67155,0.050781,0.8,0.83984
19.816,0,0.67449,0.070312,0.79608,0.83398
19.824,0,0.67546,0.076172,0.78627,0.83984
19.832,0,0.67546,0.089844,0.78039,0.82031
19.84,0,0.67253,0.095703,0.77059,0.81445
19.848,0,0.6696,0.089844,0.76667,0.82031
19.856,0,0.66373,0.080078,0.77059,0.81445
19.864,0,0.65591,0.085938,0.77647,0.81055
19.872,0,0.64614,0.070312,0.77647,0.81445
19.88,0,0.63441,0.041016,0.7902,0.83984
19.888,0,0.61975,0.015625,0.79608,0.85938
19.896,0,0.60313,-0.0097656,0.80588,0.87891
19.904,0,0.58553,-0.025391,0.81569,0.88867
19.912,0,0.56696,-0.035156,0.81569,0.89453
19.92,0,0.54839,-0.035156,0.81569,0.89453
19.928,0,0.52981,-0.035156,0.81569,0.88867
19.936,0,0.5132,-0.039062,0.82549,0.90039
19.944,0,0.49951,-0.054688,0.87059,0.91992
19.952,0,0.48778,0.41992,0.76078,0.65039
19.96,0,0.47703,1.1387,0.47059,0.18945
19.968,0,0.46823,0.45508,0.43922,0.55078
19.976,0,0.46041,-0.45312,0.86667,1.0391
19.984,0,0.45357,-0.49805,0.98627,1.0898
19.992,0,0.44868,-0.49805,1.0373,1.0703
20,0,0.44477,-0.45898,0.98627,1.0254
20.008,0,0.44086,-0.27344,0.92549,0.98047
20.016,0,0.43793,-0.14453,0.8902,0.94922
20.024,0,0.435,-0.083984,0.8451,0.93555
20.032,0,0.43109,-0.058594,0.82549,0.92969
20.04,0,0.42815,-0.044922,0.81569,0.91992
20.048,0,0.42424,-0.035156,0.81569,0.91406
20.056,0,0.42131,-0.029297,0.81176,0.91016
20.064,0,0.4174,-0.035156,0.81176,0.91016
20.072,0,0.41349,-0.025391,0.80588,0.91016
20.08,0,0.4086,-0.035156,0.81176,0.91406
20.088,0,0.40371,-0.039062,0.8,0.91992
20.096,0,0.39883,-0.035156,0.79608,0.91992
20.104,0,0.39296,-0.025391,0.79608,0.91016
20.112,0,0.3871,-0.019531,0.79608,0.9043
20.12,0,0.38221,-0.019531,0.79608,0.9043
20.128,0,0.37634,-0.019531,0.80588,0.9043
20.136,0,0.37146,-0.013672,0.80588,0.90039
20.144,0,0.36755,-0.0097656,0.80588,0.90039
20.152,0,0.36364,-0.0097656,0.81176,0.89453
20.16,0,0.35973,-0.013672,0.81176,0.90039
20.168,0,0.35582,-0.013672,0.81569,0.89453
20.176,0,0.35093,-0.0097656,0.81569,0.88867
20.184,0,0.34702,-0.029297,0.82549,0.90039
20.192,0,0.34213,-0.039062,0.82549,0.90039
20.2,0,0.33822,-0.044922,0.83529,0.9043
20.208,0,0.33431,-0.054688,0.83529,0.9043
20.216,0,0.3304,-0.054688,0.83137,0.90039
20.224,0,0.32649,-0.044922,0.82549,0.88867
20.232,0,0.32356,-0.039062,0.82549,0.88867
20.24,0,0.32063,-0.019531,0.81569,0.86914
20.248,0,0.31867,0.015625,0.8,0.85547
20.256,0,0.31769,0.050781,0.7902,0.83398
20.264,0,0.31476,0.089844,0.78039,0.81445
20.272,0,0.31281,0.099609,0.78627,0.80469
20.28,0,0.31085,0.11133,0.78039,0.79883
20.288,0,0.3089,0.12109,0.78627,0.79883
20.296,0,0.30694,0.10547,0.7902,0.80469
20.304,0,0.30499,0.095703,0.7902,0.81445
20.312,0,0.30401,0.080078,0.79608,0.83008
20.32,0,0.30205,0.076172,0.79608,0.82422
20.328,0,0.3001,0.054688,0.80588,0.83984
20.336,0,0.29912,0.041016,0.81569,0.84375
20.344,0,0.29814,0.044922,0.81569,0.84375
20.352,0,0.29814,0.041016,0.81569,0.84961
20.36,0,0.29717,0.041016,0.81569,0.84961
20.368,0,0.29619,0.050781,0.81569,0.84375
20.376,0,0.29423,0.050781,0.81176,0.83984
20.384,0,0.29326,0.064453,0.80588,0.83984
20.392,0,0.2913,0.070312,0.8,0.83984
20.4,0,0.28935,0.064453,0.80588,0.83398
20.408,0,0.28739,0.070312,0.80588,0.83398
20.416,0,0.28446,0.060547,0.80588,0.83984
20.424,0,0.2825,0.076172,0.81176,0.82422
20.432,0,0.28152,0.076172,0.80588,0.82422
20.44,0,0.28152,0.070312,0.81176,0.82422
20.448,0,0.27761,0.054688,0.81176,0.83398
20.456,0,0.2737,0.044922,0.81569,0.83984
20.464,0,0.2825,0.050781,0.81569,0.83984
20.472,0,0.30303,0.035156,0.81569,0.83984
20.48,0,0.33236,0.035156,0.81569,0.84961
20.488,0,0.37048,0.041016,0.81569,0.84375
20.496,0,0.41447,0.03125,0.82549,0.84961
20.504,0,0.46139,0.03125,0.82157,0.85547
20.512,0,0.50929,0.03125,0.82549,0.84961
20.52,0,0.55425,0.03125,0.83137,0.84375
20.528,0,0.59531,0.03125,0.82157,0.84961
20.536,0,0.6305,0.060547,0.81569,0.83398
20.544,0,0.65689,0.070312,0.81569,0.82422
20.552,0,0.67742,0.064453,0.81176,0.83984
20.56,0,0.69599,0.089844,0.80588,0.82031
20.568,0,0.71163,0.085938,0.80588,0.81445
20.576,0,0.72532,0.089844,0.7902,0.82031
20.584,0,0.73509,0.085938,0.7902,0.81055
20.592,0,0.74389,0.099609,0.79608,0.79883
20.6,0,0.74976,0.076172,0.8,0.81445
20.608,0,0.75367,0.050781,0.81569,0.83398
20.616,0,0.75562,0.019531,0.83137,0.85547
20.624,0,0.75562,-0.019531,0.84118,0.88477
20.632,0,0.75367,-0.039062,0.85098,0.90039
20.64,0,0.74878,-0.025391,0.8451,0.88477
20.648,0,0.74194,-0.025391,0.84118,0.88867
20.656,0,0.73216,-0.035156,0.8451,0.88867
20.664,0,0.71945,-0.025391,0.8451,0.88867
20.672,0,0.70381,-0.044922,0.86667,0.90039
20.68,0,0.68524,0.03125,0.8902,0.91406
20.688,0,0.66471,0.61914,0.7098,0.52539
20.696,0,0.64223,1.125,0.47059,0.18945
20.704,0,0.61975,0.064453,0.7549,0.76562
20.712,0,0.59726,-0.49805,0.96078,1.1094
20.72,0,0.57478,-0.49805,1.0569,1.1289
20.728,0,0.55425,-0.49805,1.0824,1.0742
20.736,0,0.53666,-0.41992,1.0216,1.0039
20.744,0,0.52199,-0.24414,0.95098,0.95898
20.752,0,0.51026,-0.125,0.91569,0.92383
20.76,0,0.50049,-0.070312,0.87059,0.91016
20.768,0.00097752,0.49169,-0.039062,0.85098,0.9043
20.776,0.02346,0.48485,-0.029297,0.84118,0.91016
20.784,0.046921,0.47898,-0.019531,0.84118,0.89453
20.792,0.072336,0.4741,-0.019531,0.84118,0.90039
20.8,0.097752,0.46921,-0.0097656,0.83137,0.89453
20.808,0.12512,0.46432,-0.025391,0.83529,0.9043
20.816,0.15249,0.45943,-0.013672,0.84118,0.89453
20.824,0.18084,0.45455,-0.0039062,0.83137,0.88867
20.832,0.20919,0.44868,-0.019531,0.83529,0.90039
20.84,0.2346,0.44282,-0.013672,0.82549,0.89453
20.848,0.261,0.43793,-0.013672,0.83137,0.90039
20.856,0.28446,0.43206,-0.019531,0.83529,0.90039
20.864,0.30792,0.4262,-0.013672,0.83529,0.90039
20.872,0.33333,0.42033,0,0.83529,0.88867
20.88,0.35875,0.41349,0.0058594,0.83529,0.88867
20.888,0.38514,0.40567,-0.0039062,0.83529,0.88867
20.896,0.41153,0.39785,-0.0097656,0.84118,0.88867
20.904,0.43597,0.39101,0,0.84118,0.88477
20.912,0.46041,0.38319,-0.019531,0.8451,0.88867
20.92,0.48289,0.37537,-0.029297,0.85098,0.89453
20.928,0.50635,0.36852,-0.044922,0.85686,0.9043
20.936,0.53079,0.3607,-0.054688,0.85686,0.91016
20.944,0.55523,0.35484,-0.058594,0.86078,0.9043
20.952,0.58162,0.34995,-0.080078,0.86078,0.91016
20.96,0.60802,0.34506,-0.070312,0.86078,0.91016
20.968,0.63636,0.3392,-0.064453,0.85686,0.9043
20.976,0.66569,0.33333,-0.044922,0.84118,0.88867
20.984,0.69501,0.32747,0,0.82549,0.86523
20.992,0.72434,0.3216,0.03125,0.81569,0.84961
21,0.75171,0.31574,0.050781,0.81176,0.83984
21.008,0.7781,0.31085,0.076172,0.80588,0.83008
21.016,0.80352,0.30596,0.089844,0.81176,0.82031
21.024,0.82796,0.30108,0.076172,0.81569,0.83008
21.032,0.85337,0.29717,0.054688,0.82549,0.83984
21.04,0.87879,0.29326,0.044922,0.83529,0.85547
21.048,0.9042,0.29032,0.041016,0.83529,0.85938
21.056,0.92962,0.28935,0.03125,0.83529,0.86523
21.064,0.9521,0.28641,0.03125,0.83529,0.86523
21.072,0.97458,0.28348,0.03125,0.83529,0.86523
21.08,0.98729,0.27957,0.03125,0.84118,0.86523
21.088,1,0.27664,0.035156,0.84118,0.85938
21.096,1,0.27273,0.044922,0.83529,0.85547
21.104,1,0.26979,0.050781,0.83529,0.84961
21.112,1,0.26686,0.050781,0.83137,0.84375
21.12,1,0.26393,0.054688,0.82549,0.83984
21.128,1,0.261,0.070312,0.82549,0.83984
21.136,1,0.25806,0.070312,0.82549,0.83984
21.144,1,0.25611,0.064453,0.82157,0.83984
21.152,1,0.25513,0.054688,0.82549,0.84375
21.16,1,0.25318,0.054688,0.82549,0.84375
21.168,1,0.25024,0.050781,0.83137,0.84375
21.176,1,0.24731,0.050781,0.82549,0.84375
21.184,1,0.24536,0.041016,0.83137,0.84375
21.192,1,0.24536,0.035156,0.83529,0.85547
21.2,1,0.24829,0.03125,0.84118,0.84961
21.208,1,0.25709,0.03125,0.84118,0.84375
21.216,1,0.27175,0.03125,0.84118,0.85547
21.224,1,0.29521,0.025391,0.84118,0.85547
21.232,1,0.32551,0.041016,0.83137,0.84375
21.24,1,0.35777,0.054688,0.83137,0.83984
21.248,1,0.39101,0.054688,0.83137,0.84375
21.256,1,0.43011,0.060547,0.82549,0.84961
21.264,1,0.47214,0.064453,0.82549,0.83398
21.272,1,0.51222,0.076172,0.81569,0.82031
21.28,1,0.54936,0.080078,0.80588,0.81445
21.288,1,0.5826,0.064453,0.81569,0.82422
21.296,1,0.60997,0.054688,0.81569,0.83008
21.304,1,0.63245,0.044922,0.81569,0.83398
21.312,1,0.65103,0.025391,0.82549,0.84961
21.32,1,0.66471,0,0.84118,0.86914
21.328,1,0.67644,-0.025391,0.8451,0.88867
21.336,1,0.68426,-0.035156,0.85686,0.89453
21.344,1,0.68915,-0.035156,0.85686,0.90039
21.352,1,0.6911,-0.035156,0.86078,0.89453
21.36,1,0.69306,-0.039062,0.85686,0.90039
21.368,1,0.69404,-0.035156,0.86078,0.89453
21.376,1,0.69306,-0.058594,0.85686,0.91992
21.384,1,0.69013,-0.070312,0.89608,0.93555
21.392,1,0.68426,0.53516,0.74118,0.58398
21.4,1,0.67644,1.1348,0.47059,0.20117
21.408,1,0.66471,0.16992,0.72157,0.72461
21.416,1,0.65103,-0.49805,0.93725,1.0801
21.424,1,0.63441,-0.49805,1.0373,1.0938
21.432,1,0.61584,-0.49805,1.0725,1.0703
21.44,1,0.59922,-0.44336,1.0314,1.0254
21.448,1,0.58358,-0.26367,0.96667,0.98047
21.456,1,0.56598,-0.13867,0.92549,0.94922
21.464,1,0.54936,-0.083984,0.88039,0.93555
21.472,1,0.5347,-0.064453,0.86078,0.93555
21.48,1,0.52199,-0.048828,0.85686,0.92969
21.488,1,0.51124,-0.044922,0.85686,0.92383
21.496,1,0.5044,-0.039062,0.85098,0.92383
21.504,1,0.49951,-0.039062,0.84118,0.92383
21.512,1,0.4956,-0.035156,0.84118,0.92383
21.52,1,0.49462,-0.029297,0.84118,0.91992
21.528,1,0.49365,-0.035156,0.84118,0.91406
21.536,1,0.49365,-0.025391,0.84118,0.91406
21.544,1,0.49267,-0.029297,0.84118,0.91992
21.552,1,0.49169,-0.029297,0.84118,0.91406
21.56,1,0.49071,-0.035156,0.83529,0.91016
21.568,1,0.48974,-0.025391,0.83529,0.91016
21.576,1,0.4868,-0.019531,0.83529,0.91016
21.584,1,0.48485,-0.019531,0.83529,0.91016
21.592,1,0.48094,-0.019531,0.83529,0.91016
21.6,1,0.47801,-0.025391,0.83529,0.91016
21.608,1,0.47312,-0.025391,0.84118,0.91016
21.616,1,0.46921,-0.029297,0.8451,0.91016
21.624,1,0.46432,-0.044922,0.84118,0.91992
21.632,1,0.45943,-0.054688,0.84118,0.91992
21.64,1,0.45552,-0.064453,0.8451,0.92383
21.648,1,0.45161,-0.064453,0.84118,0.91992
21.656,1,0.44673,-0.064453,0.84118,0.91992
21.664,1,0.44184,-0.064453,0.84118,0.91406
21.672,1,0.43695,-0.058594,0.83137,0.91016
21.68,1,0.43109,-0.035156,0.82157,0.89453
21.688,1,0.4262,0,0.81176,0.88477
21.696,1,0.42131,0.03125,0.79608,0.86523
21.704,1,0.41544,0.054688,0.7902,0.84961
21.712,1,0.41056,0.070312,0.7902,0.84375
21.72,1,0.40665,0.076172,0.78627,0.84375
21.728,1,0.40176,0.064453,0.7902,0.84961
21.736,1,0.39687,0.050781,0.79608,0.85547
21.744,1,0.39394,0.041016,0.80588,0.86523
21.752,1,0.39101,0.03125,0.80588,0.86523
21.76,1,0.3871,0.025391,0.81176,0.86914
21.768,1,0.38319,0.019531,0.81569,0.875
21.776,1,0.37928,0.015625,0.81569,0.87891
21.784,1,0.37439,0.015625,0.81569,0.87891
21.792,1,0.37048,0.019531,0.81569,0.88477
21.8,1,0.36657,0.025391,0.81569,0.87891
21.808,1,0.36266,0.03125,0.81569,0.87891
21.816,1,0.35875,0.03125,0.81176,0.87891
21.824,1,0.35484,0.035156,0.80588,0.875
21.832,1,0.35093,0.041016,0.80588,0.86914
21.84,1,0.34897,0.044922,0.8,0.86523
21.848,1,0.34702,0.050781,0.8,0.86523
21.856,1,0.34409,0.050781,0.79608,0.85938
21.864,0.99022,0.34115,0.050781,0.79608,0.85938
21.872,0.97947,0.33822,0.044922,0.79608,0.85938
21.88,0.9609,0.33529,0.044922,0.79608,0.85938
21.888,0.94233,0.33529,0.041016,0.79608,0.85938
21.896,0.92375,0.33724,0.035156,0.79608,0.86523
21.904,0.90518,0.34506,0.035156,0.79608,0.86523
21.912,0.88661,0.35973,0.035156,0.79608,0.86523
21.92,0.86901,0.38123,0.035156,0.8,0.86523
21.928,0.85239,0.41153,0.050781,0.79608,0.84961
21.936,0.83675,0.44673,0.070312,0.7902,0.83984
21.944,0.82209,0.48192,0.095703,0.78627,0.83984
21.952,0.80841,0.51515,0.13477,0.76667,0.82031
21.96,0.79765,0.55425,0.15625,0.76078,0.81055
21.968,0.78592,0.59335,0.14062,0.76078,0.81055
21.976,0.77713,0.6305,0.10547,0.77647,0.82031
21.984,0.76833,0.66373,0.060547,0.7902,0.84961
21.992,0.76051,0.69306,0.019531,0.80588,0.86914
22,0.75269,0.71848,-0.0039062,0.81569,0.88477
22.008,0.74682,0.739,-0.013672,0.81569,0.88477
22.016,0.73998,0.7566,-0.013672,0.81569,0.88867
22.024,0.73412,0.77028,-0.019531,0.81569,0.88867
22.032,0.72825,0.78104,-0.019531,0.81569,0.88867
22.04,0.72336,0.7869,-0.019531,0.82157,0.88867
22.048,0.7175,0.79081,-0.019531,0.82157,0.89453
22.056,0.71261,0.79374,-0.039062,0.84118,0.91016
22.064,0.7087,0.7957,-0.054688,0.88039,0.92383
22.072,0.70381,0.7957,0.54492,0.72157,0.58008
22.08,0.69892,0.79472,1.2285,0.42941,0.14062
22.088,0.69306,0.79081,0.33984,0.65098,0.625
22.096,0.68719,0.78495,-0.47461,0.90196,1.0391
22.104,0.68035,0.77517,-0.49805,1.0216,1.0645
22.112,0.67351,0.76246,-0.49805,1.0569,1.0449
22.12,0.66764,0.74682,-0.4043,0.99608,0.99414
22.128,0.66178,0.72825,-0.21875,0.94118,0.95508
22.136,0.65591,0.70772,-0.10352,0.90196,0.92969
22.144,0.65005,0.68719,-0.058594,0.85686,0.91406
22.152,0.64321,0.66764,-0.044922,0.84118,0.91406
22.16,0.63636,0.64614,-0.035156,0.84118,0.91016
22.168,0.62952,0.62366,-0.019531,0.83529,0.91016
22.176,0.6217,0.60215,-0.019531,0.83529,0.9043
22.184,0.61486,0.5826,-0.013672,0.83529,0.9043
22.192,0.60802,0.565,-0.013672,0.83529,0.9043
22.2,0.60117,0.54936,-0.0097656,0.83529,0.90039
22.208,0.59433,0.53666,-0.0097656,0.83529,0.9043
22.216,0.58651,0.5259,-0.013672,0.83529,0.9043
22.224,0.57869,0.51711,-0.0039062,0.83137,0.9043
22.232,0.57087,0.51026,-0.0039062,0.83137,0.90039
22.24,0.56207,0.5044,0,0.82549,0.89453
22.248,0.55327,0.49951,0,0.83137,0.88867
22.256,0.54448,0.4956,0,0.83137,0.89453
22.264,0.53568,0.49071,0,0.83137,0.89453
22.272,0.52688,0.48583,-0.0039062,0.83137,0.90039
22.28,0.51808,0.48094,0,0.83529,0.90039
22.288,0.51026,0.47605,-0.0039062,0.83529,0.90039
