Time [s], RESP, II, V, AVR, PLETH
0,-0.16178,-0.010264,0.99512,0.88477,1.9159
0.008,-0.16479,-0.00048876,0.99512,0.87988,1.9062
0.016,-0.16704,-0.00048876,0.99512,0.875,1.8915
0.024,-0.17005,0.0043988,1,0.875,1.8719
0.032,-0.17306,0.014663,1,0.87012,1.8485
0.04,-0.17607,0.01955,0.99512,0.86475,1.8192
0.048,-0.17908,0.029814,1,0.85986,1.7937
0.056,-0.18284,0.034702,1,0.85986,1.7713
0.064,-0.18585,0.044477,1.0049,0.8501,1.7458
0.072,-0.18886,0.049853,1.0098,0.84473,1.7185
0.08,-0.19187,0.064516,1.0049,0.83984,1.6901
0.088,-0.19413,0.07478,1.0098,0.83008,1.6618
0.096,-0.19639,0.089932,1.0098,0.81982,1.6334
0.104,-0.19789,0.10459,1.0098,0.81006,1.6031
0.112,-0.1994,0.11486,1.02,0.7998,1.5718
0.12,-0.2009,0.12952,1.02,0.7998,1.5425
0.128,-0.20241,0.13978,1.02,0.79492,1.5142
0.136,-0.20391,0.13978,1.02,0.79492,1.4888
0.144,-0.20542,0.14956,1.0249,0.79004,1.4673
0.152,-0.20767,0.13978,1.0249,0.79492,1.4516
0.16,-0.20993,0.13978,1.0298,0.79492,1.4389
0.168,-0.21219,0.11975,1.0249,0.81006,1.4223
0.176,-0.21445,0.10948,1.0249,0.81982,1.4047
0.184,-0.2167,0.084555,1.0249,0.83008,1.3871
0.192,-0.21896,0.064516,1.02,0.84473,1.3705
0.2,-0.22122,0.034702,1.0098,0.86475,1.3519
0.208,-0.22348,0.0097752,1.0098,0.875,1.3353
0.216,-0.22573,-0.0053763,1.0049,0.88477,1.3226
0.224,-0.22799,-0.025415,1.0049,0.89014,1.3099
0.232,-0.23025,-0.035191,1.0049,0.8999,1.2962
0.24,-0.23251,-0.045455,1.0049,0.90967,1.2825
0.248,-0.23476,-0.05523,1,0.91504,1.2727
0.256,-0.23702,-0.060606,1,0.91992,1.2659
0.264,-0.23928,-0.065494,1,0.91992,1.2551
0.272,-0.24153,-0.075269,1,0.9248,1.2444
0.28,-0.24454,-0.070381,1,0.92969,1.2346
0.288,-0.2468,-0.075269,1,0.9248,1.2219
0.296,-0.24906,-0.070381,1,0.91992,1.2092
0.304,-0.25132,-0.075269,1,0.9248,1.1955
0.312,-0.25282,-0.070381,1,0.91992,1.1828
0.32,-0.25433,-0.070381,1,0.91992,1.1711
0.328,-0.25583,-0.060606,1,0.91504,1.1603
0.336,-0.25734,-0.060606,1,0.91504,1.1515
0.344,-0.25809,-0.050342,1,0.91504,1.1496
0.352,-0.25884,-0.050342,1,0.90967,1.1525
0.36,-0.25959,-0.045455,1,0.90967,1.1544
0.368,-0.26035,-0.045455,0.99512,0.90967,1.1623
0.376,-0.2611,-0.040567,1,0.90967,1.1828
0.384,-0.26185,-0.045455,1,0.90967,1.2229
0.392,-0.2626,-0.040567,1,0.90479,1.2864
0.4,-0.26336,-0.040567,1,0.90479,1.3744
0.408,-0.26411,-0.040567,1,0.90967,1.4829
0.416,-0.26411,-0.035191,0.99512,0.90479,1.6129
0.424,-0.26486,-0.040567,0.98975,0.90479,1.7586
0.432,-0.26486,-0.035191,0.98975,0.90967,1.914
0.44,-0.26486,-0.035191,0.98975,0.90967,2.0733
0.448,-0.26486,-0.045455,0.98975,0.90967,2.2082
0.456,-0.26561,-0.050342,0.97998,0.91504,2.3265
0.464,-0.26561,-0.050342,0.98975,0.90967,2.4497
0.472,-0.26561,-0.050342,0.98975,0.90967,2.566
0.48,-0.26561,-0.050342,0.98486,0.90967,2.6676
0.488,-0.26637,-0.050342,0.97998,0.90967,2.7537
0.496,-0.26637,-0.050342,0.98486,0.90967,2.8231
0.504,-0.26712,-0.050342,0.98486,0.90967,2.8749
0.512,-0.26712,-0.050342,0.98486,0.91504,2.9101
0.52,-0.26862,-0.050342,0.98486,0.91504,2.9335
0.528,-0.26938,-0.050342,0.97998,0.91504,2.9482
0.536,-0.27163,-0.050342,0.97998,0.91504,2.955
0.544,-0.27389,-0.050342,0.97998,0.90967,2.955
0.552,-0.2769,-0.050342,0.97998,0.91504,2.9501
0.56,-0.27916,-0.050342,0.97998,0.91504,2.9462
0.568,-0.28217,-0.050342,0.97998,0.91504,2.9443
0.576,-0.28518,-0.050342,0.9751,0.91504,2.9433
0.584,-0.28819,-0.050342,0.98486,0.91504,2.9443
0.592,-0.2912,-0.050342,0.97998,0.91504,2.9482
0.6,-0.29496,-0.050342,0.97998,0.91504,2.955
0.608,-0.29872,-0.050342,0.98486,0.90967,2.9638
0.616,-0.30248,-0.040567,0.99512,0.8999,2.9717
0.624,-0.30625,-0.020528,1.0098,0.89014,2.9775
0.632,-0.31001,-0.00048876,1.02,0.875,2.9824
0.64,-0.31377,0.0097752,1.0249,0.86475,2.9824
0.648,-0.31753,0.01955,1.04,0.86475,2.9746
0.656,-0.32054,0.049853,1.0649,0.85986,2.9599
0.664,-0.3243,0.069892,1.0698,0.84473,2.9384
0.672,-0.32731,0.084555,1.0698,0.83984,2.9081
0.68,-0.33032,0.064516,1.0547,0.83984,2.87
0.688,-0.33333,0.039589,1.0347,0.85986,2.8231
0.696,-0.33559,0.029814,1.02,0.86475,2.7664
0.704,-0.33785,-0.00048876,1,0.88477,2.7019
0.712,-0.34011,-0.030303,0.97998,0.8999,2.6305
0.72,-0.34161,-0.05523,0.96973,0.91504,2.5533
0.728,-0.34236,-0.070381,0.95996,0.91504,2.4751
0.736,-0.34312,-0.075269,0.95508,0.91992,2.3969
0.744,-0.34387,-0.075269,0.94971,0.91992,2.3294
0.752,-0.34462,-0.080645,0.94971,0.9248,2.2698
0.76,-0.34537,-0.085533,0.95508,0.92969,2.2102
0.768,-0.34612,-0.085533,0.94971,0.92969,2.1535
0.776,-0.34688,-0.09042,0.95508,0.93506,2.1036
0.784,-0.34763,-0.11046,1.0049,0.93994,2.0616
0.792,-0.34913,-0.035191,1.0347,0.89502,2.0264
0.8,-0.34989,0.28006,0.9248,0.70996,1.9961
0.808,-0.35064,0.8304,0.75977,0.41016,1.9717
0.816,-0.35139,1.0503,0.70996,0.30029,1.9501
0.824,-0.35139,0.0043988,0.875,0.90967,1.9355
0.832,-0.35139,-0.50049,0.91504,1.23,1.9238
0.84,-0.35139,-0.50049,0.7251,1.27,1.912
0.848,-0.35139,-0.50049,0.69482,1.2046,1.9022
0.856,-0.35214,-0.48583,0.73975,1.1499,1.8925
0.864,-0.3529,-0.37048,0.77979,1.0698,1.8798
0.872,-0.3529,-0.27566,0.83984,1.0146,1.8651
0.88,-0.3529,-0.18035,0.89502,0.96484,1.8475
0.888,-0.3529,-0.10557,0.94971,0.93506,1.825
0.896,-0.3529,-0.065494,0.9751,0.91504,1.7996
0.904,-0.3529,-0.050342,0.9751,0.90967,1.7722
0.912,-0.3529,-0.040567,0.97998,0.8999,1.7439
0.92,-0.3529,-0.035191,0.98486,0.90479,1.7136
0.928,-0.3529,-0.025415,0.98975,0.89502,1.6804
0.936,-0.35214,-0.025415,0.98486,0.8999,1.6471
0.944,-0.35139,-0.025415,0.98975,0.89014,1.6207
0.952,-0.34989,-0.025415,0.98486,0.89502,1.5963
0.96,-0.34838,-0.025415,0.98975,0.89014,1.5679
0.968,-0.34763,-0.025415,0.98975,0.89014,1.5376
0.976,-0.34688,-0.020528,0.98975,0.89014,1.5083
0.984,-0.34688,-0.015152,0.99512,0.89014,1.479
0.992,-0.34688,-0.010264,0.99512,0.88477,1.4497
1,-0.34612,-0.0053763,0.98975,0.88477,1.4203
1.008,-0.34537,-0.00048876,1,0.88477,1.391
1.016,-0.34462,-0.00048876,1,0.875,1.3627
1.024,-0.34387,0.0043988,1,0.87012,1.3343
1.032,-0.34312,0.014663,1,0.86475,1.3089
1.04,-0.34236,0.01955,1,0.86475,1.2835
1.048,-0.34161,0.024438,1.0049,0.85986,1.2649
1.056,-0.34086,0.034702,1.0049,0.85986,1.2522
1.064,-0.34011,0.044477,1.0049,0.8501,1.2385
1.072,-0.33935,0.054741,1.0098,0.83984,1.2239
1.08,-0.3386,0.069892,1.0146,0.83496,1.2102
1.088,-0.33785,0.07478,1.0098,0.82471,1.1955
1.096,-0.3371,0.089932,1.02,0.81982,1.1828
1.104,-0.33634,0.099707,1.0249,0.81494,1.1711
1.112,-0.33559,0.11486,1.0249,0.81006,1.1603
1.12,-0.33484,0.11975,1.0249,0.80469,1.1505
1.128,-0.33409,0.11975,1.0298,0.7998,1.1408
1.136,-0.33258,0.11486,1.0298,0.81006,1.131
1.144,-0.33183,0.11486,1.0347,0.81006,1.1261
1.152,-0.33108,0.099707,1.0347,0.81982,1.1232
1.16,-0.33032,0.084555,1.0347,0.82471,1.1173
1.168,-0.32882,0.069892,1.02,0.83984,1.1095
1.176,-0.32807,0.049853,1.02,0.83984,1.1007
1.184,-0.32731,0.039589,1.0146,0.85498,1.0919
1.192,-0.32656,0.01955,1.0049,0.86475,1.0821
1.2,-0.32581,0.0043988,1,0.87988,1.0723
1.208,-0.32506,-0.0053763,1,0.89014,1.0626
1.216,-0.3243,-0.020528,1,0.89502,1.0518
1.224,-0.32355,-0.025415,1,0.90479,1.0391
1.232,-0.3228,-0.040567,1,0.91504,1.0274
1.24,-0.32205,-0.050342,0.98975,0.91504,1.0196
1.248,-0.32129,-0.050342,0.99512,0.91504,1.0166
1.256,-0.32054,-0.050342,0.99512,0.91504,1.0166
1.264,-0.31979,-0.05523,0.99512,0.91504,1.0147
1.272,-0.31904,-0.060606,0.99512,0.91504,1.0108
1.28,-0.31828,-0.060606,0.99512,0.91504,1.0059
1.288,-0.31753,-0.05523,0.98975,0.91504,0.99804
1.296,-0.31678,-0.05523,0.99512,0.91504,0.98827
1.304,-0.31603,-0.060606,0.99512,0.91504,0.97556
1.312,-0.31527,-0.060606,1,0.91504,0.96481
1.32,-0.31377,-0.05523,1,0.91504,0.95699
1.328,-0.31226,-0.050342,0.99512,0.90967,0.95015
1.336,-0.31076,-0.050342,0.98975,0.90967,0.94819
1.344,-0.30926,-0.050342,0.99512,0.90967,0.95699
1.352,-0.30775,-0.050342,0.99512,0.90479,0.97849
1.36,-0.30625,-0.045455,0.98975,0.8999,1.0117
1.368,-0.30474,-0.040567,0.98975,0.90479,1.0626
1.376,-0.30324,-0.040567,0.98975,0.8999,1.1349
1.384,-0.30173,-0.035191,0.98975,0.90479,1.2307
1.392,-0.30023,-0.035191,0.98975,0.90479,1.347
1.4,-0.29872,-0.040567,0.98975,0.90479,1.4819
1.408,-0.29722,-0.040567,0.98975,0.90479,1.6315
1.416,-0.29571,-0.045455,0.98975,0.90479,1.7918
1.424,-0.29421,-0.045455,0.98975,0.90479,1.955
1.432,-0.29345,-0.045455,0.98975,0.90967,2.1144
1.44,-0.29195,-0.045455,0.98975,0.90967,2.263
1.448,-0.2912,-0.045455,0.98975,0.90479,2.3803
1.456,-0.29044,-0.045455,0.98975,0.91504,2.477
1.464,-0.28969,-0.050342,0.98975,0.91504,2.5699
1.472,-0.28894,-0.045455,0.98975,0.90967,2.65
1.48,-0.28894,-0.050342,0.98975,0.90967,2.7146
1.488,-0.28819,-0.050342,0.98975,0.91504,2.7625
1.496,-0.28894,-0.05523,0.98975,0.90967,2.7957
1.504,-0.28894,-0.05523,0.98975,0.91504,2.8172
1.512,-0.28894,-0.050342,0.98975,0.90967,2.8289
1.52,-0.28894,-0.050342,0.98975,0.91504,2.8348
1.528,-0.28969,-0.050342,0.98975,0.91504,2.8416
1.536,-0.28969,-0.05523,0.98975,0.91504,2.8485
1.544,-0.2912,-0.050342,0.98975,0.91504,2.8485
1.552,-0.29195,-0.060606,0.98975,0.91504,2.8446
1.56,-0.29345,-0.060606,0.99512,0.91504,2.8426
1.568,-0.29496,-0.065494,0.98975,0.91504,2.8446
1.576,-0.29646,-0.050342,0.98975,0.91504,2.8495
1.584,-0.29797,-0.050342,0.98975,0.91504,2.8573
1.592,-0.29872,-0.050342,0.98975,0.91504,2.8671
1.6,-0.29947,-0.05523,0.99512,0.91504,2.8778
1.608,-0.30098,-0.05523,0.99512,0.91504,2.8876
1.616,-0.30248,-0.05523,0.98975,0.91504,2.8974
1.624,-0.30474,-0.050342,0.98975,0.90967,2.9052
1.632,-0.307,-0.05523,0.98486,0.90967,2.9091
1.64,-0.3085,-0.05523,0.98975,0.91504,2.9052
1.648,-0.31001,-0.050342,0.98975,0.91504,2.8915
1.656,-0.31076,-0.050342,0.98975,0.91504,2.871
1.664,-0.31151,-0.050342,0.98975,0.91504,2.8426
1.672,-0.31226,-0.050342,0.98486,0.90967,2.8045
1.68,-0.31302,-0.050342,0.98486,0.90479,2.7576
1.688,-0.31302,-0.050342,0.97998,0.90479,2.7019
1.696,-0.31302,-0.050342,0.98486,0.90479,2.6403
1.704,-0.31226,-0.045455,0.98486,0.90479,2.5738
1.712,-0.31076,-0.050342,0.98975,0.90479,2.5034
1.72,-0.30926,-0.050342,0.98975,0.90967,2.4321
1.728,-0.307,-0.050342,0.98975,0.90967,2.3617
1.736,-0.30549,-0.050342,0.99512,0.90967,2.2942
1.744,-0.30399,-0.050342,0.98975,0.90479,2.2375
1.752,-0.30248,-0.050342,0.98975,0.90479,2.1877
1.76,-0.30098,-0.045455,0.98486,0.90967,2.1408
1.768,-0.29872,-0.040567,0.98486,0.90479,2.1007
1.776,-0.29646,-0.040567,0.98486,0.90479,2.0655
1.784,-0.29421,-0.045455,0.98975,0.90967,2.0362
1.792,-0.2912,-0.040567,0.98486,0.8999,2.0127
1.8,-0.28894,-0.035191,0.97998,0.90479,1.9922
1.808,-0.28668,-0.040567,0.98486,0.90479,1.9756
1.816,-0.28442,-0.040567,0.98975,0.90479,1.9599
1.824,-0.28217,-0.040567,0.98975,0.8999,1.9453
1.832,-0.27991,-0.035191,0.98486,0.8999,1.9306
1.84,-0.27765,-0.030303,0.98486,0.8999,1.9169
1.848,-0.2754,-0.030303,0.97998,0.8999,1.9042
1.856,-0.27239,-0.035191,0.98486,0.8999,1.8895
1.864,-0.26938,-0.035191,0.98486,0.8999,1.87
1.872,-0.26637,-0.040567,0.97998,0.90479,1.8485
1.88,-0.26336,-0.035191,0.98486,0.90479,1.827
1.888,-0.25959,-0.035191,0.97998,0.90479,1.8065
1.896,-0.25658,-0.040567,0.98486,0.90479,1.7869
1.904,-0.25357,-0.040567,0.98975,0.8999,1.7654
1.912,-0.25056,-0.035191,0.98486,0.8999,1.74
1.92,-0.24755,-0.035191,0.97998,0.90479,1.7126
1.928,-0.24454,-0.040567,0.98486,0.90479,1.6823
1.936,-0.24153,-0.030303,0.97998,0.8999,1.651
1.944,-0.23853,-0.025415,0.97998,0.8999,1.6266
1.952,-0.23552,-0.030303,0.97998,0.90479,1.6061
1.96,-0.23251,-0.015152,0.99512,0.89014,1.5836
1.968,-0.2295,0.0043988,1.0098,0.87988,1.5591
1.976,-0.22649,0.034702,1.0249,0.85986,1.5327
1.984,-0.22272,0.054741,1.0449,0.85498,1.5054
1.992,-0.22047,0.079668,1.0649,0.83984,1.478
2,-0.21746,0.089932,1.0601,0.83496,1.4497
2.008,-0.2152,0.094819,1.0698,0.82471,1.4233
2.016,-0.21294,0.07478,1.0601,0.83984,1.3998
2.024,-0.21068,0.064516,1.0449,0.84473,1.3812
2.032,-0.20767,0.034702,1.02,0.85986,1.3646
2.04,-0.20467,0.014663,1.0049,0.875,1.3539
2.048,-0.20166,-0.020528,0.9751,0.89014,1.346
2.056,-0.1994,-0.040567,0.96973,0.8999,1.3363
2.064,-0.19714,-0.045455,0.95996,0.90967,1.3255
2.072,-0.19564,-0.050342,0.95508,0.90967,1.3138
2.08,-0.19338,-0.060606,0.94971,0.90967,1.3001
2.088,-0.19112,-0.060606,0.94971,0.90967,1.2864
2.096,-0.18886,-0.065494,0.94971,0.91504,1.2727
2.104,-0.18585,-0.075269,0.94971,0.91504,1.259
2.112,-0.18284,-0.085533,0.99512,0.9248,1.2463
2.12,-0.18059,-0.030303,1.02,0.89014,1.2356
2.128,-0.17833,0.24487,0.91992,0.7251,1.2297
2.136,-0.17607,0.74536,0.75977,0.4502,1.2239
2.144,-0.17306,0.98534,0.71973,0.33496,1.2209
2.152,-0.17081,0.01955,0.9248,0.90479,1.2209
2.16,-0.16855,-0.50049,0.98486,1.21,1.217
2.168,-0.16629,-0.50049,0.80469,1.25,1.2111
2.176,-0.16403,-0.50049,0.73486,1.1997,1.2014
2.184,-0.16178,-0.4609,0.75977,1.1348,1.1887
2.192,-0.15952,-0.37048,0.77979,1.0698,1.175
2.2,-0.15726,-0.27566,0.82471,1.02,1.1632
2.208,-0.155,-0.19062,0.875,0.97998,1.1505
2.216,-0.1535,-0.10557,0.92969,0.93994,1.1369
2.224,-0.15124,-0.05523,0.95996,0.90479,1.1261
2.232,-0.14974,-0.045455,0.96973,0.89502,1.1153
2.24,-0.14823,-0.035191,0.9751,0.89014,1.1105
2.248,-0.14673,-0.025415,0.97998,0.89014,1.1075
2.256,-0.14522,-0.025415,0.98486,0.89014,1.1017
2.264,-0.14372,-0.020528,0.98975,0.88477,1.0938
2.272,-0.14221,-0.025415,0.97998,0.88477,1.086
2.28,-0.14146,-0.025415,0.97998,0.89014,1.0811
2.288,-0.13995,-0.025415,0.9751,0.89014,1.0772
2.296,-0.1392,-0.020528,0.97998,0.89014,1.0733
2.304,-0.13845,-0.015152,0.9751,0.87988,1.0714
2.312,-0.13845,-0.010264,0.9751,0.87988,1.0704
2.32,-0.1377,-0.010264,0.9751,0.88477,1.0674
2.328,-0.1377,-0.0053763,0.98486,0.87988,1.0635
2.336,-0.1377,-0.00048876,0.98486,0.875,1.0596
2.344,-0.1377,-0.00048876,0.98975,0.875,1.0596
2.352,-0.1377,-0.00048876,0.99512,0.87988,1.0616
2.36,-0.1377,0.0043988,0.99512,0.86475,1.0606
2.368,-0.1377,0.0043988,0.99512,0.87012,1.0577
2.376,-0.1377,0.0097752,0.99512,0.86475,1.0538
2.384,-0.13695,0.014663,0.99512,0.86475,1.0499
2.392,-0.13619,0.01955,1,0.86475,1.045
2.4,-0.13469,0.034702,1,0.85498,1.0401
2.408,-0.13318,0.039589,1.0049,0.8501,1.0371
2.416,-0.13093,0.044477,1.0146,0.84473,1.0352
2.424,-0.12867,0.054741,1.02,0.83984,1.0342
2.432,-0.12641,0.059629,1.02,0.83984,1.0342
2.44,-0.1234,0.064516,1.0249,0.83496,1.0391
2.448,-0.12039,0.069892,1.0298,0.83496,1.0459
2.456,-0.11738,0.064516,1.04,0.83496,1.0508
2.464,-0.11437,0.054741,1.0449,0.83984,1.0528
2.472,-0.11136,0.039589,1.0498,0.8501,1.0518
2.48,-0.10835,0.034702,1.0547,0.8501,1.0489
2.488,-0.10534,0.01955,1.0449,0.85986,1.0469
2.496,-0.10233,-0.00048876,1.0449,0.87012,1.0459
2.504,-0.10008,-0.010264,1.0449,0.87988,1.045
2.512,-0.097818,-0.020528,1.0347,0.88477,1.044
2.52,-0.095561,-0.020528,1.0249,0.89014,1.042
2.528,-0.093303,-0.010264,1.0098,0.88477,1.0391
2.536,-0.091046,-0.0053763,1,0.88477,1.0371
2.544,-0.088789,-0.0053763,1,0.87988,1.0411
2.552,-0.086531,-0.0053763,0.99512,0.88477,1.0459
2.56,-0.084274,-0.0053763,0.98975,0.88477,1.0479
2.568,-0.082017,-0.015152,0.98486,0.89014,1.0508
2.576,-0.079007,-0.020528,0.98486,0.89014,1.0528
2.584,-0.075997,-0.020528,0.98975,0.89014,1.0557
2.592,-0.072987,-0.025415,0.98975,0.89502,1.0577
2.6,-0.069977,-0.035191,0.98486,0.8999,1.0596
2.608,-0.066968,-0.030303,0.98975,0.89502,1.0606
2.616,-0.06471,-0.030303,0.98975,0.8999,1.0626
2.624,-0.061701,-0.0053763,0.99512,0.89014,1.0645
2.632,-0.059443,0.054741,1,0.8501,1.0665
2.64,-0.057186,0.14956,1.02,0.7998,1.0723
2.648,-0.054929,0.26002,1.0249,0.71973,1.0782
2.656,-0.052671,0.45503,0.97998,0.59521,1.0802
2.664,-0.050414,0.65494,0.87012,0.4502,1.0811
2.672,-0.047404,0.90518,0.79004,0.29004,1.0821
2.68,-0.044394,1.1706,0.71484,0.12012,1.089
2.688,-0.041384,1.3304,0.58984,0,1.1056
2.696,-0.039127,0.8651,0.68018,0.22021,1.1369
2.704,-0.036117,0.21457,0.98486,0.6001,1.1887
2.712,-0.034612,-0.12561,1.1851,0.84473,1.26
2.72,-0.033108,-0.23069,1.21,0.95996,1.3539
2.728,-0.032355,-0.32063,0.94482,1.0249,1.4702
2.736,-0.03085,-0.35582,0.83008,1.0498,1.607
2.744,-0.030098,-0.34066,0.82471,1.0449,1.737
2.752,-0.029345,-0.3304,0.84473,1.0449,1.8651
2.76,-0.029345,-0.32063,0.86475,1.0498,2.0137
2.768,-0.028593,-0.30547,0.89502,1.0601,2.1672
2.776,-0.028593,-0.2654,0.92969,1.0498,2.3167
2.784,-0.028593,-0.23558,0.95996,1.0449,2.4585
2.792,-0.028593,-0.22532,0.96973,1.0498,2.5855
2.8,-0.028593,-0.25073,0.94971,1.0547,2.694
2.808,-0.028593,-0.25073,0.93506,1.0547,2.782
2.816,-0.028593,-0.25073,0.94482,1.0547,2.8504
2.824,-0.028593,-0.23069,0.96484,1.04,2.9013
2.832,-0.028593,-0.19062,1.0146,1.0249,2.9365
2.84,-0.029345,-0.15543,1.0547,1.0098,2.9541
2.848,-0.029345,-0.15054,1.0498,1.0098,2.9589
2.856,-0.030098,-0.16569,1.0249,1.02,2.9599
2.864,-0.03085,-0.17058,1.0146,1.0249,2.957
2.872,-0.032355,-0.17058,1,1.0298,2.9511
2.88,-0.03386,-0.16569,1,1.0249,2.9433
2.888,-0.036117,-0.16569,1,1.02,2.9345
2.896,-0.037622,-0.16569,1.0049,1.0249,2.9257
2.904,-0.03988,-0.17058,1.0049,1.0298,2.9159
2.912,-0.042137,-0.18035,1.0049,1.0347,2.9081
2.92,-0.043642,-0.18573,1.0049,1.04,2.9032
2.928,-0.045147,-0.19062,1.0098,1.0498,2.9003
2.936,-0.046652,-0.1955,1.0049,1.0547,2.8993
2.944,-0.048157,-0.1955,1.0146,1.0547,2.8944
2.952,-0.048909,-0.1955,1.02,1.0547,2.8886
2.96,-0.049661,-0.19062,1.02,1.0498,2.8847
2.968,-0.049661,-0.19062,1.0347,1.0449,2.8778
2.976,-0.049661,-0.17546,1.0449,1.0298,2.8661
2.984,-0.049661,-0.16031,1.0449,1.0249,2.8504
2.992,-0.048909,-0.1305,1.0498,1.0049,2.828
3,-0.048157,-0.10557,1.0601,0.98486,2.7977
3.008,-0.047404,-0.070381,1.0649,0.95996,2.7586
3.016,-0.046652,-0.030303,1.0649,0.92969,2.7136
3.024,-0.045899,0.0097752,1.0601,0.90479,2.6637
3.032,-0.044394,0.044477,1.0547,0.87988,2.61
3.04,-0.042889,0.069892,1.0498,0.85498,2.5601
3.048,-0.041384,0.069892,1.04,0.8501,2.5112
3.056,-0.039127,0.07478,1.0347,0.83984,2.4604
3.064,-0.03687,0.069892,1.0249,0.83984,2.4115
3.072,-0.034612,0.059629,1.0298,0.83984,2.3646
3.08,-0.032355,0.049853,1.02,0.84473,2.3206
3.088,-0.030098,0.039589,1.0146,0.85498,2.2835
3.096,-0.02784,0.029814,1.0098,0.85498,2.2532
3.104,-0.025583,0.029814,1.0098,0.85498,2.2287
3.112,-0.024078,0.024438,1.0098,0.85986,2.2092
3.12,-0.021821,0.01955,1.0049,0.85498,2.1935
3.128,-0.021068,0.024438,1.0098,0.85498,2.1818
3.136,-0.019564,0.01955,1,0.85986,2.174
3.144,-0.018059,0.01955,1,0.85986,2.1681
3.152,-0.016554,0.0097752,1,0.86475,2.1613
3.16,-0.015049,0.0097752,1,0.86475,2.1515
3.168,-0.013544,0.0043988,1,0.86475,2.1398
3.176,-0.012792,-0.00048876,0.99512,0.86475,2.1271
3.184,-0.012039,-0.00048876,0.98975,0.86475,2.1134
3.192,-0.011287,-0.00048876,1,0.86475,2.0987
3.2,-0.010534,-0.0053763,0.98975,0.875,2.0821
3.208,-0.010534,-0.010264,0.99512,0.87988,2.0616
3.216,-0.0097818,-0.015152,0.98975,0.88477,2.0371
3.224,-0.0097818,-0.010264,0.98975,0.87988,2.0108
3.232,-0.0097818,-0.020528,0.98975,0.88477,1.9834
3.24,-0.0097818,-0.015152,0.98975,0.87988,1.9589
3.248,-0.0090294,-0.015152,0.98486,0.88477,1.9365
3.256,-0.0082769,-0.020528,0.98975,0.88477,1.911
3.264,-0.0075245,-0.020528,0.98486,0.88477,1.8827
3.272,-0.006772,-0.020528,0.98975,0.88477,1.8543
3.28,-0.0060196,-0.025415,0.97998,0.88477,1.8289
3.288,-0.0060196,-0.025415,0.98486,0.89014,1.8055
3.296,-0.0060196,-0.025415,0.98975,0.89014,1.783
3.304,-0.006772,-0.030303,0.98486,0.89014,1.7605
3.312,-0.006772,-0.030303,0.98975,0.89014,1.74
3.32,-0.0075245,-0.035191,0.98486,0.89014,1.7204
3.328,-0.0082769,-0.030303,0.98486,0.89014,1.7009
3.336,-0.0090294,-0.035191,0.98486,0.89014,1.6833
3.344,-0.0097818,-0.035191,0.98486,0.89014,1.6706
3.352,-0.011287,-0.035191,0.98486,0.89014,1.6608
3.36,-0.012039,-0.030303,0.98486,0.89014,1.65
3.368,-0.014296,-0.035191,0.98486,0.89014,1.6393
3.376,-0.015801,-0.030303,0.98486,0.89014,1.6276
3.384,-0.018811,-0.035191,0.97998,0.89014,1.6168
3.392,-0.021821,-0.035191,0.98486,0.89014,1.608
3.4,-0.026336,-0.030303,0.98975,0.89014,1.6012
3.408,-0.030098,-0.030303,0.98975,0.89014,1.5953
3.416,-0.035365,-0.030303,0.98486,0.89014,1.5904
3.424,-0.03988,-0.030303,0.98486,0.89014,1.5855
3.432,-0.045147,-0.030303,0.98486,0.89014,1.5806
3.44,-0.050414,-0.030303,0.98486,0.89014,1.5767
3.448,-0.055681,-0.030303,0.98975,0.89014,1.5728
3.456,-0.060948,-0.035191,0.98486,0.89014,1.566
3.464,-0.066968,-0.035191,0.98486,0.89502,1.5582
3.472,-0.072235,-0.035191,0.98486,0.89502,1.5484
3.48,-0.078254,-0.035191,0.98975,0.89502,1.5386
3.488,-0.084274,-0.035191,0.98486,0.89502,1.5308
3.496,-0.089541,-0.035191,0.97998,0.89502,1.5249
3.504,-0.094808,-0.040567,0.98975,0.89502,1.521
3.512,-0.10008,-0.035191,0.98486,0.89502,1.5191
3.52,-0.10459,-0.035191,0.98486,0.89502,1.5181
3.528,-0.10986,-0.040567,0.98486,0.89502,1.5171
3.536,-0.11512,-0.040567,0.98486,0.8999,1.5142
3.544,-0.12114,-0.030303,0.98975,0.89502,1.5132
3.552,-0.12716,-0.035191,0.98486,0.89502,1.5152
3.56,-0.13318,-0.030303,0.98975,0.89502,1.5142
3.568,-0.1392,-0.030303,0.98486,0.89502,1.5122
3.576,-0.14447,-0.025415,0.98975,0.89014,1.5044
3.584,-0.14974,-0.030303,0.98486,0.89502,1.4956
3.592,-0.155,-0.035191,0.98975,0.89502,1.4917
3.6,-0.16027,-0.030303,0.98486,0.89502,1.4897
3.608,-0.16554,-0.035191,0.98975,0.8999,1.4888
3.616,-0.17081,-0.030303,0.97998,0.89502,1.4878
3.624,-0.17607,-0.035191,0.98975,0.89502,1.4878
3.632,-0.18059,-0.030303,0.98486,0.89502,1.4878
3.64,-0.1851,-0.040567,0.98486,0.8999,1.4897
3.648,-0.18962,-0.040567,0.98486,0.8999,1.4936
3.656,-0.19338,-0.040567,0.98486,0.8999,1.4956
3.664,-0.19714,-0.040567,0.98486,0.8999,1.4936
3.672,-0.2009,-0.030303,0.98486,0.89502,1.4907
3.68,-0.20391,-0.035191,0.98486,0.89502,1.4888
3.688,-0.20692,-0.035191,0.98486,0.89502,1.4878
3.696,-0.20993,-0.030303,0.98486,0.89502,1.4878
3.704,-0.21219,-0.035191,0.98486,0.89502,1.4878
3.712,-0.21445,-0.030303,0.98975,0.89502,1.4878
3.72,-0.2167,-0.030303,0.98486,0.89502,1.4878
3.728,-0.21896,-0.030303,0.97998,0.89502,1.4858
3.736,-0.22122,-0.025415,0.98975,0.8999,1.4829
3.744,-0.22348,-0.025415,0.98486,0.89502,1.4829
3.752,-0.22573,-0.025415,0.98486,0.8999,1.4829
3.76,-0.22724,-0.030303,0.98486,0.89502,1.479
3.768,-0.22874,-0.025415,0.98486,0.8999,1.4741
3.776,-0.23025,-0.025415,0.98486,0.89502,1.4682
3.784,-0.23251,-0.025415,0.98486,0.89502,1.4604
3.792,-0.23476,-0.030303,0.98486,0.8999,1.4516
3.8,-0.23777,-0.035191,0.98486,0.8999,1.4428
3.808,-0.24078,-0.025415,0.98486,0.89502,1.433
3.816,-0.24304,-0.025415,0.97998,0.89502,1.4233
3.824,-0.2453,-0.030303,0.98486,0.8999,1.4135
3.832,-0.24755,-0.025415,0.9751,0.89502,1.4037
3.84,-0.24906,-0.025415,0.98975,0.89502,1.3978
3.848,-0.25132,-0.025415,0.97998,0.8999,1.3939
3.856,-0.25357,-0.025415,0.97998,0.89502,1.3871
3.864,-0.25583,-0.025415,0.98486,0.89014,1.3803
3.872,-0.25809,-0.025415,0.98486,0.89502,1.3734
3.88,-0.25959,-0.025415,0.97998,0.89502,1.3656
3.888,-0.2611,-0.030303,0.97998,0.89502,1.3587
3.896,-0.2626,-0.025415,0.98486,0.89502,1.3509
3.904,-0.26411,-0.025415,0.97998,0.89502,1.3451
3.912,-0.26561,-0.025415,0.97998,0.89502,1.3412
3.92,-0.26712,-0.025415,0.97998,0.89502,1.3402
3.928,-0.26862,-0.025415,0.97998,0.89502,1.3412
3.936,-0.27013,-0.025415,0.97998,0.89502,1.3421
3.944,-0.27163,-0.025415,0.9751,0.89502,1.3441
3.952,-0.27314,-0.025415,0.98486,0.8999,1.3451
3.96,-0.27389,-0.025415,0.98486,0.89502,1.346
3.968,-0.27464,-0.025415,0.98486,0.89502,1.3451
3.976,-0.2754,-0.025415,0.98486,0.89502,1.3441
3.984,-0.27615,-0.025415,0.98486,0.89502,1.3441
3.992,-0.2769,-0.025415,0.98486,0.89502,1.3441
4,-0.2769,-0.025415,0.98486,0.89502,1.3451
4.008,-0.2769,-0.025415,0.98486,0.89502,1.3441
4.016,-0.2769,-0.025415,0.98486,0.89502,1.3441
4.024,-0.2769,-0.025415,0.98486,0.89502,1.3441
4.032,-0.2769,-0.025415,0.98486,0.8999,1.3431
4.04,-0.27765,-0.025415,0.97998,0.89502,1.3431
4.048,-0.2784,-0.025415,0.98486,0.89502,1.3451
4.056,-0.27916,-0.025415,0.97998,0.89502,1.346
4.064,-0.27991,-0.015152,0.99512,0.89014,1.346
4.072,-0.28066,0.0097752,1.0049,0.87012,1.346
4.08,-0.28141,0.034702,1.0249,0.85498,1.346
4.088,-0.28217,0.049853,1.0449,0.8501,1.346
4.096,-0.28292,0.084555,1.0649,0.83984,1.3451
4.104,-0.28292,0.089932,1.0649,0.83008,1.3431
4.112,-0.28292,0.10459,1.0698,0.81982,1.3412
4.12,-0.28292,0.079668,1.0601,0.83496,1.3372
4.128,-0.28292,0.069892,1.0449,0.83984,1.3333
4.136,-0.28367,0.039589,1.0249,0.85986,1.3324
4.144,-0.28442,0.01955,1.0049,0.87012,1.3333
4.152,-0.28518,-0.015152,0.97998,0.89014,1.3314
4.16,-0.28593,-0.035191,0.96973,0.89502,1.3275
4.168,-0.28668,-0.050342,0.96484,0.90967,1.3255
4.176,-0.28743,-0.050342,0.96973,0.90967,1.3245
4.184,-0.28819,-0.05523,0.95508,0.91504,1.3245
4.192,-0.28894,-0.05523,0.95508,0.91504,1.3245
4.2,-0.28969,-0.060606,0.94971,0.91504,1.3236
4.208,-0.29044,-0.075269,0.95508,0.91992,1.3216
4.216,-0.2912,-0.095308,1.0098,0.93506,1.3196
4.224,-0.29195,-0.0053763,1.0249,0.875,1.3167
4.232,-0.2927,0.34506,0.8999,0.6748,1.3148
4.24,-0.29345,0.88025,0.75488,0.38525,1.3157
4.248,-0.29421,1.0655,0.71484,0.30029,1.3196
4.256,-0.29496,-0.085533,0.90479,0.95996,1.3216
4.264,-0.29571,-0.50049,0.9248,1.2246,1.3226
4.272,-0.29646,-0.50049,0.7251,1.2549,1.3255
4.28,-0.29722,-0.50049,0.7002,1.1797,1.3294
4.288,-0.29797,-0.45552,0.75,1.1299,1.3343
4.296,-0.29872,-0.34066,0.79004,1.0547,1.3363
4.304,-0.29947,-0.25562,0.83984,1.0098,1.3372
4.312,-0.29947,-0.17058,0.90479,0.96484,1.3382
4.32,-0.29947,-0.095308,0.94971,0.92969,1.3372
4.328,-0.29947,-0.060606,0.9751,0.91504,1.3372
4.336,-0.29947,-0.045455,0.97998,0.8999,1.3392
4.344,-0.29947,-0.030303,0.98975,0.89502,1.3431
4.352,-0.29947,-0.025415,0.98975,0.89014,1.3431
4.36,-0.30023,-0.025415,0.99512,0.89014,1.3421
4.368,-0.30023,-0.025415,0.98975,0.89014,1.3421
4.376,-0.30098,-0.025415,0.99512,0.89014,1.3431
4.384,-0.30173,-0.030303,0.98975,0.89502,1.3431
4.392,-0.30248,-0.030303,1,0.89502,1.3431
4.4,-0.30324,-0.030303,0.99512,0.89502,1.3451
4.408,-0.30399,-0.025415,1,0.89014,1.346
4.416,-0.30399,-0.030303,1,0.89014,1.346
4.424,-0.30549,-0.025415,1,0.89014,1.346
4.432,-0.30625,-0.025415,1,0.89014,1.346
4.44,-0.30775,-0.020528,1,0.89014,1.349
4.448,-0.30926,-0.020528,1,0.89014,1.35
4.456,-0.31076,-0.010264,1,0.88477,1.348
4.464,-0.31151,-0.0053763,1.0049,0.87988,1.347
4.472,-0.31226,-0.00048876,1,0.875,1.347
4.48,-0.31302,-0.00048876,1.0049,0.875,1.347
4.488,-0.31377,0.0043988,1.0049,0.87012,1.347
4.496,-0.31452,0.01955,1.0146,0.86475,1.347
4.504,-0.31603,0.01955,1.02,0.86475,1.3451
4.512,-0.31678,0.034702,1.02,0.85498,1.3441
4.52,-0.31828,0.039589,1.0249,0.85498,1.3451
4.528,-0.31979,0.044477,1.04,0.84473,1.346
4.536,-0.32129,0.044477,1.0449,0.84473,1.347
4.544,-0.32205,0.049853,1.0547,0.83984,1.348
4.552,-0.3228,0.049853,1.0498,0.83984,1.346
4.56,-0.32355,0.044477,1.0649,0.83984,1.3451
4.568,-0.3243,0.034702,1.0698,0.8501,1.346
4.576,-0.3243,0.01955,1.0747,0.85498,1.346
4.584,-0.3243,0.0097752,1.0801,0.86475,1.346
4.592,-0.3243,-0.00048876,1.0747,0.875,1.346
4.6,-0.3243,-0.020528,1.085,0.88477,1.3451
4.608,-0.3243,-0.030303,1.0698,0.89014,1.3441
4.616,-0.3243,-0.050342,1.0601,0.90479,1.3441
4.624,-0.3243,-0.045455,1.0449,0.90479,1.3431
4.632,-0.32506,-0.040567,1.0347,0.8999,1.3421
4.64,-0.32581,-0.025415,1.02,0.89014,1.3441
4.648,-0.32581,-0.010264,1.0049,0.88477,1.346
4.656,-0.32581,-0.00048876,1,0.875,1.346
4.664,-0.32581,0.014663,0.98975,0.875,1.346
4.672,-0.32581,0.01955,0.98975,0.87012,1.346
4.68,-0.32506,0.01955,0.98486,0.87012,1.346
4.688,-0.3243,0.01955,0.97998,0.875,1.346
4.696,-0.3228,0.014663,0.97998,0.87012,1.346
4.704,-0.32129,0.014663,0.97998,0.87988,1.346
4.712,-0.31979,-0.00048876,0.97998,0.88477,1.346
4.72,-0.31828,-0.00048876,0.97998,0.87988,1.3451
4.728,-0.31753,-0.00048876,0.97998,0.87988,1.3431
4.736,-0.31603,-0.0053763,0.97998,0.88477,1.3431
4.744,-0.31452,-0.0053763,0.97998,0.88477,1.3451
4.752,-0.31226,-0.0053763,0.97998,0.88477,1.346
4.76,-0.30926,-0.00048876,0.97998,0.87988,1.347
4.768,-0.30625,-0.00048876,0.9751,0.87988,1.3529
4.776,-0.30324,-0.00048876,0.9751,0.875,1.3675
4.784,-0.30023,-0.00048876,0.9751,0.875,1.3969
4.792,-0.29797,-0.00048876,0.9751,0.87988,1.4418
4.8,-0.29496,-0.00048876,0.9751,0.87988,1.5064
4.808,-0.2927,-0.00048876,0.9751,0.87988,1.5914
4.816,-0.29044,-0.00048876,0.9751,0.88477,1.6999
4.824,-0.28819,-0.010264,0.9751,0.89014,1.8309
4.832,-0.28593,-0.010264,0.96973,0.89014,1.9804
4.84,-0.28367,-0.015152,0.96484,0.89014,2.1193
4.848,-0.28141,-0.025415,0.96973,0.89502,2.2542
4.856,-0.27916,-0.025415,0.96973,0.8999,2.4106
4.864,-0.2769,-0.025415,0.96973,0.8999,2.5728
4.872,-0.2754,-0.030303,0.96973,0.8999,2.7292
4.88,-0.27314,-0.035191,0.9751,0.8999,2.8749
4.888,-0.27163,-0.035191,0.96973,0.90479,3.0049
4.896,-0.27013,-0.030303,0.9751,0.8999,3.1163
4.904,-0.27013,-0.040567,0.9751,0.90967,3.2082
4.912,-0.26938,-0.045455,0.96973,0.90479,3.2825
4.92,-0.26938,-0.045455,0.96484,0.90967,3.3402
4.928,-0.26938,-0.045455,0.96973,0.90967,3.3822
4.936,-0.26938,-0.050342,0.96973,0.90967,3.4037
4.944,-0.26938,-0.050342,0.9751,0.91504,3.4106
4.952,-0.27013,-0.050342,0.9751,0.91504,3.4135
4.96,-0.27013,-0.050342,0.9751,0.91504,3.4106
4.968,-0.27088,-0.050342,0.96973,0.91504,3.4018
4.976,-0.27163,-0.050342,0.9751,0.91504,3.39
4.984,-0.27239,-0.050342,0.96973,0.91504,3.3773
4.992,-0.27314,-0.05523,0.96973,0.91504,3.3636
5,-0.27464,-0.050342,0.96973,0.91504,3.349
5.008,-0.27615,-0.050342,0.96973,0.90967,3.3372
5.016,-0.27765,-0.050342,0.96484,0.91504,3.3284
5.024,-0.27916,-0.045455,0.96973,0.91504,3.3216
5.032,-0.28066,-0.050342,0.96973,0.91504,3.3157
5.04,-0.28141,-0.050342,0.96484,0.90967,3.3069
5.048,-0.28217,-0.050342,0.96484,0.90479,3.2991
5.056,-0.28292,-0.050342,0.96973,0.90479,3.2962
5.064,-0.28367,-0.050342,0.96484,0.90479,3.2952
5.072,-0.28367,-0.050342,0.96484,0.90967,3.2942
5.08,-0.28367,-0.050342,0.96973,0.8999,3.2942
5.088,-0.28367,-0.050342,0.96973,0.90967,3.2913
5.096,-0.28367,-0.045455,0.96973,0.90479,3.2825
5.104,-0.28367,-0.045455,0.96484,0.90479,3.2669
5.112,-0.28367,-0.050342,0.96484,0.8999,3.2444
5.12,-0.28367,-0.050342,0.96484,0.91504,3.2151
5.128,-0.28367,-0.050342,0.96973,0.90967,3.1799
5.136,-0.28292,-0.050342,0.96484,0.90967,3.1417
5.144,-0.28217,-0.030303,0.9751,0.89502,3.1017
5.152,-0.28066,-0.0053763,0.99512,0.87988,3.0616
5.16,-0.27916,0.014663,1.0146,0.86475,3.0205
5.168,-0.2769,0.039589,1.0347,0.85498,2.9795
5.176,-0.27464,0.07478,1.0547,0.83984,2.9394
5.184,-0.27239,0.079668,1.0547,0.83984,2.9003
5.192,-0.27013,0.089932,1.0649,0.83008,2.8651
5.2,-0.26787,0.069892,1.0498,0.83984,2.8348
5.208,-0.26561,0.059629,1.0449,0.84473,2.8074
5.216,-0.26336,0.034702,1.02,0.86475,2.781
5.224,-0.26035,0.0043988,1.0049,0.88477,2.7556
5.232,-0.25734,-0.025415,0.98486,0.89502,2.7322
5.24,-0.25433,-0.050342,0.96973,0.90479,2.7107
5.248,-0.25132,-0.05523,0.95508,0.91504,2.6891
5.256,-0.24831,-0.060606,0.95508,0.91504,2.6657
5.264,-0.2453,-0.070381,0.94971,0.91504,2.6413
5.272,-0.24229,-0.075269,0.94971,0.91992,2.6168
5.28,-0.23928,-0.075269,0.93994,0.9248,2.5934
5.288,-0.23627,-0.075269,0.93994,0.9248,2.5709
5.296,-0.23326,-0.09042,0.96484,0.93506,2.5503
5.304,-0.231,-0.1002,1.0098,0.91992,2.5308
5.312,-0.22799,0.12952,0.95508,0.79492,2.5103
5.32,-0.22573,0.58504,0.79004,0.53516,2.4888
5.328,-0.22348,0.98534,0.70996,0.33984,2.4663
5.336,-0.22122,0.28495,0.85986,0.75488,2.4438
5.344,-0.21896,-0.4609,0.98486,1.1699,2.4233
5.352,-0.2167,-0.50049,0.86475,1.2646,2.4027
5.36,-0.21445,-0.50049,0.75,1.2197,2.3832
5.368,-0.21219,-0.50049,0.73486,1.1597,2.3617
5.376,-0.20918,-0.41056,0.77002,1.1001,2.3392
5.384,-0.20617,-0.31036,0.7998,1.0347,2.3148
5.392,-0.20316,-0.23069,0.84473,0.98975,2.2884
5.4,-0.20015,-0.13539,0.90967,0.95508,2.2639
5.408,-0.19714,-0.070381,0.94482,0.91504,2.2395
5.416,-0.19488,-0.050342,0.95508,0.90967,2.2151
5.424,-0.19187,-0.035191,0.96484,0.8999,2.1906
5.432,-0.18962,-0.025415,0.96973,0.89502,2.1662
5.44,-0.18736,-0.020528,0.9751,0.89014,2.1437
5.448,-0.1851,-0.020528,0.9751,0.89014,2.1241
5.456,-0.18284,-0.015152,0.9751,0.89014,2.1046
5.464,-0.17983,-0.020528,0.9751,0.89014,2.085
5.472,-0.17682,-0.020528,0.97998,0.89014,2.0645
5.48,-0.17457,-0.020528,0.97998,0.89014,2.042
5.488,-0.17156,-0.020528,0.97998,0.89014,2.0186
5.496,-0.1693,-0.020528,0.9751,0.89014,1.9941
5.504,-0.16629,-0.015152,0.9751,0.88477,1.9717
5.512,-0.16479,-0.010264,0.9751,0.88477,1.9511
5.52,-0.16253,-0.0053763,0.9751,0.88477,1.9316
5.528,-0.16102,-0.010264,0.97998,0.88477,1.913
5.536,-0.15952,-0.0053763,0.97998,0.88477,1.8974
5.544,-0.15801,-0.00048876,0.98486,0.875,1.8827
5.552,-0.15651,-0.00048876,0.98486,0.87012,1.8661
5.56,-0.155,0.0043988,0.98975,0.87012,1.8504
5.568,-0.1535,0.014663,0.99512,0.86475,1.8358
5.576,-0.15199,0.024438,0.99512,0.85498,1.8211
5.584,-0.15049,0.034702,1,0.8501,1.8055
5.592,-0.14823,0.039589,0.99512,0.84473,1.7889
5.6,-0.14597,0.044477,1,0.84473,1.7722
5.608,-0.14372,0.054741,1.0049,0.83984,1.7546
5.616,-0.14146,0.059629,1.02,0.83984,1.738
5.624,-0.13845,0.064516,1.02,0.83496,1.6383
5.632,-0.13544,0.064516,1.02,0.83496,1.5015
5.64,-0.13243,0.064516,1.0249,0.83496,1.4291
5.648,-0.12867,0.069892,1.0347,0.83496,1.3861
5.656,-0.12491,0.049853,1.0449,0.83984,1.3578
5.664,-0.12114,0.039589,1.0449,0.85498,1.3372
5.672,-0.11813,0.01955,1.0449,0.86475,1.3226
5.68,-0.11512,0.0043988,1.0449,0.875,1.3109
5.688,-0.11211,-0.020528,1.04,0.89014,1.3001
5.696,-0.1091,-0.030303,1.0298,0.89502,1.2913
5.704,-0.10609,-0.035191,1.02,0.8999,1.2825
5.712,-0.10309,-0.035191,1.0098,0.90479,1.2737
5.72,-0.099323,-0.035191,1,0.90967,1.2659
5.728,-0.095561,-0.035191,0.99512,0.90967,1.2571
5.736,-0.092551,-0.035191,0.98975,0.90967,1.2512
5.744,-0.089541,-0.040567,0.98975,0.90967,1.2463
5.752,-0.086531,-0.045455,0.98975,0.91504,1.2395
5.76,-0.083521,-0.045455,0.98975,0.91504,1.2336
5.768,-0.081264,-0.050342,0.98975,0.91504,1.2258
5.776,-0.079007,-0.050342,0.98975,0.91504,1.218
5.784,-0.076749,-0.050342,0.98975,0.91504,1.2111
5.792,-0.074492,-0.050342,0.98975,0.91504,1.2053
5.8,-0.071482,-0.05523,0.98975,0.91504,1.2004
5.808,-0.068473,-0.050342,0.98975,0.90967,1.1955
5.816,-0.065463,-0.050342,0.97998,0.91504,1.1906
5.824,-0.062453,-0.045455,0.97998,0.90479,1.1848
5.832,-0.060196,-0.040567,0.98975,0.90967,1.1799
5.84,-0.057186,-0.035191,0.98975,0.90479,1.176
5.848,-0.055681,-0.035191,0.97998,0.90479,1.1711
5.856,-0.054176,-0.035191,0.97998,0.90479,1.1662
5.864,-0.051919,-0.030303,0.98486,0.90479,1.1642
5.872,-0.049661,-0.035191,0.97998,0.8999,1.1662
5.88,-0.046652,-0.025415,0.97998,0.89502,1.175
5.888,-0.043642,-0.025415,0.97998,0.89014,1.1935
5.896,-0.041384,-0.025415,0.9751,0.89502,1.2268
5.904,-0.039127,-0.025415,0.9751,0.8999,1.2776
5.912,-0.03687,-0.025415,0.9751,0.8999,1.346
5.92,-0.034612,-0.030303,0.9751,0.90479,1.4301
5.928,-0.032355,-0.025415,0.9751,0.8999,1.5308
5.936,-0.030098,-0.035191,0.9751,0.90479,1.6276
5.944,-0.02784,-0.040567,0.9751,0.90479,1.7283
5.952,-0.025583,-0.030303,0.9751,0.90479,1.8495
5.96,-0.024078,-0.035191,0.9751,0.90967,1.9785
5.968,-0.021821,-0.035191,0.9751,0.90967,2.1085
5.976,-0.021068,-0.035191,0.9751,0.90967,2.2346
5.984,-0.019564,-0.035191,0.9751,0.90479,2.3509
5.992,-0.018811,-0.040567,0.9751,0.90967,2.4536
6,-0.018059,-0.045455,0.9751,0.90967,2.5415
6.008,-0.018059,-0.030303,0.9751,0.90479,2.6129
6.016,-0.017306,-0.035191,0.9751,0.8999,2.6667
6.024,-0.018059,-0.035191,0.9751,0.90479,2.7028
6.032,-0.018059,-0.035191,0.9751,0.90967,2.7214
6.04,-0.018811,-0.040567,0.9751,0.90967,2.7292
6.048,-0.019564,-0.040567,0.9751,0.90967,2.7331
6.056,-0.020316,-0.040567,0.9751,0.90479,2.7322
6.064,-0.021068,-0.045455,0.9751,0.91504,2.7253
6.072,-0.021821,-0.040567,0.9751,0.91504,2.7155
6.08,-0.022573,-0.040567,0.9751,0.91504,2.7038
6.088,-0.024078,-0.035191,0.9751,0.90967,2.6911
6.096,-0.025583,-0.035191,0.9751,0.90967,2.6755
6.104,-0.02784,-0.035191,0.9751,0.90967,2.6579
6.112,-0.029345,-0.030303,0.9751,0.90479,2.6422
6.12,-0.031603,-0.035191,0.9751,0.90479,2.6266
6.128,-0.03386,-0.030303,0.97998,0.8999,2.6109
6.136,-0.036117,-0.035191,0.97998,0.90479,2.5953
6.144,-0.038375,-0.040567,0.97998,0.90479,2.5806
6.152,-0.040632,-0.040567,0.97998,0.90967,2.5679
6.16,-0.042889,-0.040567,0.97998,0.90479,2.5572
6.168,-0.045147,-0.035191,0.97998,0.90479,2.5474
6.176,-0.047404,-0.030303,0.97998,0.90479,2.5357
6.184,-0.049661,-0.025415,0.9751,0.8999,2.5191
6.192,-0.051919,-0.00048876,1,0.88477,2.4985
6.2,-0.054176,0.014663,1.0098,0.87012,2.4731
6.208,-0.055681,0.039589,1.0298,0.85986,2.4418
6.216,-0.057186,0.07478,1.0547,0.84473,2.4047
6.224,-0.058691,0.089932,1.0649,0.83984,2.3627
6.232,-0.060196,0.094819,1.0649,0.82471,2.3216
6.24,-0.060948,0.089932,1.0649,0.83008,2.2805
6.248,-0.061701,0.07478,1.0547,0.83984,2.2356
6.256,-0.062453,0.049853,1.0347,0.85498,2.1906
6.264,-0.062453,0.024438,1.02,0.87012,2.1476
6.272,-0.062453,-0.00048876,1,0.88477,2.1065
6.28,-0.062453,-0.025415,0.9751,0.8999,2.0694
6.288,-0.062453,-0.045455,0.96973,0.90967,2.0391
6.296,-0.062453,-0.050342,0.95996,0.91504,2.0147
6.304,-0.062453,-0.050342,0.95508,0.91504,1.9941
6.312,-0.063205,-0.060606,0.94971,0.91504,1.9765
6.32,-0.063205,-0.065494,0.94971,0.91992,1.9629
6.328,-0.063958,-0.060606,0.94971,0.91504,1.9492
6.336,-0.063958,-0.075269,0.95996,0.91992,1.9355
6.344,-0.06471,-0.080645,1.0146,0.9248,1.9238
6.352,-0.06471,0.049853,1.02,0.84473,1.9091
6.36,-0.065463,0.435,0.83496,0.625,1.8954
6.368,-0.066215,0.95015,0.71484,0.35986,1.8827
6.376,-0.066968,0.95552,0.80469,0.5752,1.87
6.384,-0.066968,-0.32551,1.0098,1.105,1.8583
6.392,-0.06772,-0.50049,0.94482,1.2446,1.8456
6.4,-0.06772,-0.50049,0.79492,1.2246,1.8328
6.408,-0.06772,-0.50049,0.75,1.1699,1.8192
6.416,-0.06772,-0.41544,0.7749,1.1099,1.8045
6.424,-0.066968,-0.32063,0.79492,1.0449,1.7869
6.432,-0.066215,-0.23069,0.83496,1,1.7683
6.44,-0.066215,-0.15054,0.89014,0.95508,1.7507
6.448,-0.066215,-0.075269,0.94482,0.91992,1.7331
6.456,-0.066215,-0.040567,0.95996,0.89502,1.7155
6.464,-0.066215,-0.025415,0.96973,0.89014,1.697
6.472,-0.066215,-0.015152,0.9751,0.88477,1.6784
6.48,-0.065463,-0.0053763,0.9751,0.87988,1.6588
6.488,-0.06471,-0.00048876,0.97998,0.87988,1.6393
6.496,-0.063958,-0.00048876,0.9751,0.87988,1.6207
6.504,-0.063205,-0.00048876,0.98486,0.87988,1.6022
6.512,-0.061701,-0.00048876,0.9751,0.875,1.5826
6.52,-0.060196,0.0097752,0.97998,0.87988,1.5611
6.528,-0.058691,0.0043988,0.97998,0.875,1.5386
6.536,-0.057938,0.0043988,0.97998,0.87988,1.52
6.544,-0.057186,0.0097752,0.98486,0.875,1.5024
6.552,-0.056433,0.014663,0.97998,0.87012,1.4829
6.56,-0.055681,0.01955,0.98486,0.87012,1.4643
6.568,-0.055681,0.01955,0.98486,0.86475,1.4457
6.576,-0.055681,0.024438,0.98486,0.86475,1.4272
6.584,-0.055681,0.029814,0.98486,0.86475,1.4106
6.592,-0.055681,0.034702,0.98975,0.86475,1.3959
6.6,-0.055681,0.044477,0.98486,0.85986,1.3842
6.608,-0.055681,0.044477,0.99512,0.8501,1.3734
6.616,-0.055681,0.054741,0.99512,0.84473,1.3636
6.624,-0.055681,0.069892,1,0.83984,1.3539
6.632,-0.056433,0.069892,1,0.83984,1.347
6.64,-0.056433,0.084555,1.0049,0.82471,1.3412
6.648,-0.057186,0.089932,1,0.82471,1.3333
6.656,-0.057186,0.094819,1.0049,0.81982,1.3245
6.664,-0.057938,0.094819,1.0146,0.81982,1.3148
6.672,-0.057938,0.099707,1.02,0.81494,1.3079
6.68,-0.058691,0.10459,1.0249,0.81982,1.3021
6.688,-0.059443,0.099707,1.0298,0.81494,1.2962
6.696,-0.060948,0.089932,1.0298,0.81982,1.2893
6.704,-0.061701,0.07478,1.04,0.82471,1.2835
6.712,-0.063205,0.059629,1.0347,0.83984,1.2786
6.72,-0.06471,0.039589,1.0449,0.8501,1.2737
6.728,-0.066215,0.01955,1.0347,0.86475,1.2688
6.736,-0.06772,0.0097752,1.0298,0.87012,1.2678
6.744,-0.069977,-0.00048876,1.0249,0.87988,1.2698
6.752,-0.072235,-0.00048876,1.02,0.89014,1.2698
6.76,-0.075245,-0.0053763,1.0098,0.89014,1.2698
6.768,-0.078254,-0.010264,1,0.89014,1.2698
6.776,-0.081264,-0.0053763,1,0.89502,1.2669
6.784,-0.084274,-0.010264,1,0.8999,1.263
6.792,-0.087284,-0.020528,0.99512,0.8999,1.26
6.8,-0.089541,-0.025415,0.98975,0.90479,1.259
6.808,-0.091798,-0.025415,0.99512,0.90479,1.2581
6.816,-0.094056,-0.025415,0.98975,0.90967,1.2581
6.824,-0.096313,-0.025415,1,0.90967,1.2581
6.832,-0.09857,-0.030303,1,0.90967,1.26
6.84,-0.10083,-0.035191,1,0.90967,1.262
6.848,-0.10309,-0.035191,1,0.90967,1.261
6.856,-0.10534,-0.035191,0.99512,0.90967,1.2581
6.864,-0.10685,-0.030303,0.98975,0.90479,1.2542
6.872,-0.10835,-0.025415,0.98486,0.8999,1.2502
6.88,-0.10986,-0.025415,0.98486,0.90479,1.2454
6.888,-0.11061,-0.025415,0.98486,0.8999,1.2424
6.896,-0.11136,-0.025415,0.98486,0.8999,1.2414
6.904,-0.11136,-0.015152,0.98486,0.89502,1.2454
6.912,-0.11136,-0.015152,0.98975,0.89502,1.2532
6.92,-0.11136,-0.015152,0.97998,0.89502,1.2659
6.928,-0.11136,-0.015152,0.98486,0.89502,1.2854
6.936,-0.11136,-0.010264,0.97998,0.89014,1.3109
6.944,-0.11136,-0.010264,0.98486,0.89014,1.3451
6.952,-0.11211,-0.015152,0.98486,0.89014,1.3969
6.96,-0.11211,-0.010264,0.97998,0.89014,1.4673
6.968,-0.11287,-0.025415,0.97998,0.89502,1.5562
6.976,-0.11362,-0.025415,0.98486,0.89502,1.6598
6.984,-0.11437,-0.025415,0.97998,0.8999,1.7761
6.992,-0.11512,-0.025415,0.97998,0.8999,1.9013
7,-0.11663,-0.025415,0.97998,0.8999,2.0293
7.008,-0.11813,-0.030303,0.97998,0.90479,2.1554
7.016,-0.11964,-0.035191,0.9751,0.90967,2.2757
7.024,-0.12114,-0.035191,0.98486,0.90967,2.3871
7.032,-0.1234,-0.040567,0.97998,0.90967,2.4741
7.04,-0.12566,-0.035191,0.97998,0.90967,2.5425
7.048,-0.12942,-0.040567,0.97998,0.91504,2.609
7.056,-0.13243,-0.035191,0.97998,0.91504,2.6647
7.064,-0.13695,-0.035191,0.97998,0.90967,2.7077
7.072,-0.14071,-0.035191,0.97998,0.90479,2.737
7.08,-0.14597,-0.035191,0.97998,0.90479,2.7546
7.088,-0.15124,-0.035191,0.97998,0.90967,2.7625
7.096,-0.15651,-0.035191,0.97998,0.90967,2.7615
7.104,-0.16178,-0.035191,0.97998,0.90967,2.7537
7.112,-0.16704,-0.035191,0.97998,0.90479,2.7429
7.12,-0.17156,-0.040567,0.97998,0.90967,2.7312
7.128,-0.17607,-0.035191,0.9751,0.90967,2.7185
7.136,-0.18059,-0.040567,0.97998,0.90967,2.7038
7.144,-0.18585,-0.035191,0.98975,0.90967,2.6891
7.152,-0.19112,-0.025415,0.99512,0.8999,2.6784
7.16,-0.19714,-0.00048876,1.0098,0.89014,2.6696
7.168,-0.20241,0.014663,1.0249,0.87988,2.6618
7.176,-0.20767,0.01955,1.0298,0.87012,2.6559
7.184,-0.21294,0.044477,1.0498,0.86475,2.6481
7.192,-0.21821,0.064516,1.0698,0.85498,2.6403
7.2,-0.22348,0.084555,1.0698,0.83984,2.6315
7.208,-0.22874,0.089932,1.0601,0.83984,2.6197
7.216,-0.23401,0.049853,1.0449,0.85986,2.607
7.224,-0.23928,0.039589,1.02,0.86475,2.5934
7.232,-0.24454,0.014663,1,0.87988,2.5748
7.24,-0.24906,-0.0053763,0.98486,0.89014,2.5513
7.248,-0.25357,-0.040567,0.96484,0.90479,2.523
7.256,-0.25734,-0.050342,0.96484,0.90967,2.4878
7.264,-0.2611,-0.060606,0.95996,0.91504,2.4487
7.272,-0.26411,-0.065494,0.95508,0.91992,2.4047
7.28,-0.26712,-0.075269,0.94971,0.9248,2.3587
7.288,-0.26938,-0.075269,0.94971,0.9248,2.3128
7.296,-0.27163,-0.075269,0.94971,0.9248,2.2669
7.304,-0.27389,-0.080645,0.94971,0.9248,2.2239
7.312,-0.27615,-0.095308,0.98975,0.93506,2.1867
7.32,-0.2784,-0.040567,1.0298,0.8999,2.1515
7.328,-0.28066,0.24487,0.93506,0.72998,2.1183
7.336,-0.28217,0.78006,0.76514,0.43994,2.088
7.344,-0.28367,1.0254,0.71973,0.31494,2.0626
7.352,-0.28442,0.079668,0.875,0.87012,2.0411
7.36,-0.28518,-0.50049,0.93506,1.2197,2.0215
7.368,-0.28668,-0.50049,0.75488,1.2646,2.0059
7.376,-0.28819,-0.50049,0.70996,1.2046,1.9941
7.384,-0.28969,-0.48583,0.74512,1.1499,1.9844
7.392,-0.2912,-0.37586,0.77979,1.0801,1.9765
7.4,-0.2927,-0.27566,0.82471,1.0249,1.9668
7.408,-0.29421,-0.18573,0.89014,0.96973,1.9541
7.416,-0.29571,-0.10557,0.94482,0.92969,1.9384
7.424,-0.29722,-0.065494,0.96973,0.90967,1.9208
7.432,-0.29872,-0.050342,0.9751,0.90479,1.9042
7.44,-0.30023,-0.030303,0.97998,0.89502,1.8866
7.448,-0.30173,-0.025415,0.98486,0.89014,1.8671
7.456,-0.30324,-0.020528,0.98486,0.89014,1.8456
7.464,-0.30474,-0.015152,0.98486,0.89014,1.8231
7.472,-0.30549,-0.010264,0.98975,0.89014,1.8006
7.48,-0.30625,-0.015152,0.98486,0.89014,1.7781
7.488,-0.307,-0.010264,0.98486,0.89014,1.7556
7.496,-0.30775,-0.015152,0.98486,0.88477,1.7361
7.504,-0.30775,-0.010264,0.98486,0.89014,1.7146
7.512,-0.30775,-0.0053763,0.98486,0.88477,1.6901
7.52,-0.30775,-0.0053763,0.99512,0.87988,1.6637
7.528,-0.30775,-0.0053763,0.99512,0.87988,1.6403
7.536,-0.30775,-0.00048876,0.99512,0.875,1.6197
7.544,-0.30775,0.0043988,1,0.87012,1.5982
7.552,-0.30775,0.01955,0.99512,0.86475,1.5758
7.56,-0.30775,0.024438,0.99512,0.86475,1.5533
7.568,-0.30775,0.024438,1,0.86475,1.5308
7.576,-0.307,0.034702,1,0.85498,1.5073
7.584,-0.30625,0.044477,1.0049,0.8501,1.4858
7.592,-0.30625,0.054741,1.0049,0.8501,1.4653
7.6,-0.30549,0.059629,1.0098,0.84473,1.4467
7.608,-0.30474,0.069892,1.0098,0.83984,1.4282
7.616,-0.30399,0.084555,1.0146,0.83008,1.4096
7.624,-0.30399,0.094819,1.02,0.81982,1.391
7.632,-0.30324,0.10459,1.0249,0.81982,1.3763
7.64,-0.30248,0.11486,1.0298,0.81006,1.3636
7.648,-0.30173,0.11486,1.0249,0.80469,1.35
7.656,-0.30173,0.11975,1.0298,0.81006,1.3363
7.664,-0.30098,0.11975,1.0347,0.81006,1.3245
7.672,-0.30098,0.10948,1.04,0.81494,1.2825
7.68,-0.30023,0.089932,1.0449,0.82471,1.2239
7.688,-0.30023,0.079668,1.0449,0.83008,1.1896
7.696,-0.30023,0.064516,1.0347,0.83984,1.1662
7.704,-0.30098,0.044477,1.0347,0.85498,1.1486
7.712,-0.30173,0.029814,1.02,0.86475,1.1349
7.72,-0.30248,0.0097752,1.02,0.875,1.1232
7.728,-0.30324,-0.00048876,1.0098,0.89014,1.1163
7.736,-0.30399,-0.015152,1,0.89502,1.1095
7.744,-0.30474,-0.025415,1,0.90479,1.0997
7.752,-0.30625,-0.030303,1,0.90967,1.087
7.76,-0.307,-0.040567,1,0.90967,1.0733
7.768,-0.3085,-0.050342,1,0.91504,1.0596
7.776,-0.31001,-0.05523,0.99512,0.91992,1.0459
7.784,-0.31076,-0.060606,0.98975,0.9248,1.0323
7.792,-0.31151,-0.065494,0.98975,0.91504,1.0205
7.8,-0.31226,-0.065494,0.98486,0.91992,1.0117
7.808,-0.31226,-0.065494,1,0.91992,1.0049
7.816,-0.31226,-0.070381,0.99512,0.9248,0.99707
7.824,-0.31226,-0.070381,0.99512,0.9248,0.98729
7.832,-0.31226,-0.065494,0.98975,0.92969,0.98143
7.84,-0.31226,-0.065494,0.99512,0.9248,0.97654
7.848,-0.31151,-0.060606,0.99512,0.91992,0.96872
7.856,-0.31076,-0.05523,1,0.91504,0.95894
7.864,-0.30926,-0.05523,1,0.91504,0.95112
7.872,-0.30775,-0.050342,1,0.91504,0.94917
7.88,-0.30625,-0.045455,1,0.91504,0.95308
7.888,-0.30474,-0.045455,1,0.91504,0.96676
7.896,-0.30324,-0.040567,0.99512,0.91504,0.99218
7.904,-0.30098,-0.040567,0.98975,0.90967,1.0352
7.912,-0.29872,-0.035191,0.98975,0.90479,1.0987
7.92,-0.29646,-0.035191,0.98486,0.90967,1.1848
7.928,-0.29421,-0.035191,0.98486,0.90479,1.2757
7.936,-0.29195,-0.035191,0.97998,0.90479,1.3744
7.944,-0.29044,-0.040567,0.97998,0.90967,1.5005
7.952,-0.28894,-0.045455,0.9751,0.90967,1.6461
7.96,-0.28743,-0.050342,0.9751,0.90967,1.8045
7.968,-0.28593,-0.050342,0.9751,0.90967,1.9677
7.976,-0.28518,-0.050342,0.9751,0.90967,2.1281
7.984,-0.28442,-0.050342,0.9751,0.91504,2.2796
7.992,-0.28367,-0.050342,0.9751,0.91504,2.4184
8,-0.28292,-0.050342,0.97998,0.91504,2.5406
8.008,-0.28292,-0.050342,0.97998,0.91504,2.6442
8.016,-0.28292,-0.05523,0.97998,0.91504,2.7292
8.024,-0.28367,-0.050342,0.97998,0.91504,2.7957
8.032,-0.28367,-0.050342,0.97998,0.91504,2.8377
8.04,-0.28442,-0.050342,0.97998,0.91504,2.8622
8.048,-0.28518,-0.050342,0.9751,0.91504,2.8837
8.056,-0.28593,-0.050342,0.97998,0.91504,2.8983
8.064,-0.28668,-0.050342,0.97998,0.91504,2.9071
8.072,-0.28819,-0.040567,0.98975,0.90479,2.9101
8.08,-0.28969,-0.020528,1,0.89502,2.9091
8.088,-0.2912,-0.00048876,1.02,0.87988,2.9052
8.096,-0.2927,0.0097752,1.02,0.87988,2.9003
8.104,-0.29496,0.024438,1.04,0.87012,2.8964
8.112,-0.29646,0.044477,1.0649,0.86475,2.8964
8.12,-0.29872,0.069892,1.0747,0.84473,2.8993
8.128,-0.30098,0.089932,1.0801,0.83984,2.8974
8.136,-0.30324,0.064516,1.0601,0.84473,2.8935
8.144,-0.30549,0.044477,1.0449,0.85986,2.8964
8.152,-0.30775,0.034702,1.0298,0.86475,2.9052
8.16,-0.31001,-0.00048876,1.0049,0.88477,2.915
8.168,-0.31302,-0.030303,0.98486,0.89502,2.9228
8.176,-0.31527,-0.050342,0.9751,0.90479,2.9296
8.184,-0.31828,-0.060606,0.96973,0.91504,2.9326
8.192,-0.32129,-0.070381,0.95508,0.91992,2.9286
8.2,-0.32355,-0.075269,0.95508,0.9248,2.915
8.208,-0.32581,-0.075269,0.95508,0.9248,2.8925
8.216,-0.32807,-0.075269,0.95508,0.91992,2.8612
8.224,-0.33032,-0.080645,0.95508,0.91992,2.8211
8.232,-0.33183,-0.09042,0.95996,0.92969,2.7771
8.24,-0.33333,-0.1002,1.02,0.93506,2.7283
8.248,-0.33484,0.01955,1.0298,0.87012,2.6725
8.256,-0.33634,0.3998,0.87012,0.64502,2.61
8.264,-0.33785,0.92033,0.72998,0.37012,2.5425
8.272,-0.33935,1.0103,0.71484,0.33008,2.4731
8.28,-0.34086,-0.25562,0.94971,1.0547,2.4066
8.288,-0.34236,-0.50049,0.88477,1.2598,2.3451
8.296,-0.34387,-0.50049,0.75488,1.2749,2.2864
8.304,-0.34462,-0.50049,0.72998,1.1948,2.2317
8.312,-0.34537,-0.4609,0.76514,1.1348,2.1799
8.32,-0.34537,-0.34555,0.7998,1.0601,2.1339
8.328,-0.34537,-0.25562,0.84473,1.0146,2.0968
8.336,-0.34537,-0.16569,0.90479,0.96484,2.0655
8.344,-0.34537,-0.09042,0.95508,0.92969,2.0371
8.352,-0.34537,-0.060606,0.96973,0.91504,2.0117
8.36,-0.34537,-0.045455,0.9751,0.90479,1.9892
8.368,-0.34537,-0.035191,0.97998,0.8999,1.9707
8.376,-0.34537,-0.025415,0.98975,0.8999,1.9531
8.384,-0.34537,-0.025415,0.98975,0.8999,1.9345
8.392,-0.34537,-0.025415,0.98486,0.89502,1.9159
8.4,-0.34537,-0.025415,0.98975,0.89502,1.8983
8.408,-0.34537,-0.025415,0.99512,0.89014,1.8807
8.416,-0.34537,-0.025415,0.98975,0.89502,1.8641
8.424,-0.34537,-0.025415,0.99512,0.89014,1.8456
8.432,-0.34537,-0.020528,0.99512,0.89014,1.826
8.44,-0.34537,-0.015152,1,0.89014,1.8045
8.448,-0.34537,-0.010264,0.99512,0.89014,1.7801
8.456,-0.34537,-0.0053763,0.99512,0.88477,1.7546
8.464,-0.34537,-0.00048876,1,0.88477,1.7292
8.472,-0.34537,0.0043988,1,0.875,1.7009
8.48,-0.34462,0.0043988,1,0.875,1.6696
8.488,-0.34387,0.0097752,1,0.87012,1.6364
8.496,-0.34312,0.01955,1.0049,0.86475,1.6031
8.504,-0.34236,0.034702,1.0049,0.85986,1.5709
8.512,-0.34161,0.039589,1.0049,0.85498,1.5396
8.52,-0.34086,0.044477,1,0.8501,1.5064
8.528,-0.33935,0.059629,1.0098,0.83984,1.477
8.536,-0.33785,0.069892,1.0146,0.83496,1.4497
8.544,-0.33634,0.079668,1.02,0.82471,1.4194
8.552,-0.33484,0.089932,1.02,0.81982,1.39
8.56,-0.33333,0.094819,1.0249,0.81494,1.3617
8.568,-0.33183,0.10459,1.02,0.81494,1.3353
8.576,-0.33032,0.11486,1.02,0.81006,1.3109
8.584,-0.32882,0.11486,1.0298,0.80469,1.2854
8.592,-0.32731,0.10948,1.0298,0.81006,1.26
8.6,-0.32656,0.10459,1.04,0.81494,1.2356
8.608,-0.32506,0.089932,1.0449,0.81982,1.2141
8.616,-0.3243,0.069892,1.04,0.83496,1.1945
8.624,-0.32355,0.054741,1.0347,0.84473,1.176
8.632,-0.3228,0.029814,1.0298,0.85986,1.1623
8.64,-0.32205,0.014663,1.0249,0.86475,1.1515
8.648,-0.32129,-0.00048876,1.02,0.87988,1.1378
8.656,-0.32054,-0.010264,1.0146,0.89014,1.1222
8.664,-0.31979,-0.025415,1.0049,0.8999,1.1056
8.672,-0.31904,-0.035191,1,0.90479,1.0899
8.68,-0.31828,-0.050342,1.0049,0.91504,1.0753
8.688,-0.31753,-0.05523,1.0098,0.91504,1.0626
8.696,-0.31678,-0.060606,1.0049,0.91992,1.0518
8.704,-0.31527,-0.065494,1.0049,0.9248,1.0401
8.712,-0.31377,-0.070381,1.0049,0.9248,1.0293
8.72,-0.31226,-0.075269,1.0049,0.92969,1.0176
8.728,-0.31076,-0.075269,1.0098,0.91992,1.0108
8.736,-0.3085,-0.075269,1,0.91992,1.0059
8.744,-0.30625,-0.070381,1,0.91992,0.99804
8.752,-0.30324,-0.075269,1,0.9248,0.98631
8.76,-0.30023,-0.075269,1.0049,0.9248,0.97361
8.768,-0.29722,-0.070381,1.0049,0.91992,0.95992
8.776,-0.29421,-0.05523,1,0.91504,0.94624
8.784,-0.2912,-0.060606,1,0.91992,0.93353
8.792,-0.28819,-0.060606,1,0.91504,0.92278
8.8,-0.28518,-0.060606,1,0.91504,0.91593
8.808,-0.28217,-0.050342,1,0.90967,0.91593
8.816,-0.27916,-0.050342,1,0.90967,0.92571
8.824,-0.2754,-0.045455,1,0.90479,0.9521
8.832,-0.27163,-0.040567,1,0.90967,0.99022
8.84,-0.26787,-0.040567,1,0.90479,1.044
8.848,-0.26411,-0.045455,1,0.91504,1.1202
8.856,-0.26035,-0.040567,0.99512,0.90479,1.217
8.864,-0.25658,-0.050342,0.98975,0.90967,1.3353
8.872,-0.25357,-0.045455,0.99512,0.90479,1.4741
8.88,-0.25056,-0.05523,0.98975,0.91504,1.6276
8.888,-0.24831,-0.050342,0.98975,0.91504,1.7898
8.896,-0.24605,-0.050342,0.98975,0.90967,1.9521
8.904,-0.24304,-0.050342,0.98975,0.91504,2.1095
8.912,-0.24003,-0.050342,0.98975,0.91504,2.2581
8.92,-0.23702,-0.05523,0.98486,0.91504,2.393
8.928,-0.23401,-0.05523,0.98975,0.91504,2.4966
8.936,-0.23175,-0.050342,0.99512,0.91504,2.5767
8.944,-0.22874,-0.035191,1.0098,0.8999,2.654
8.952,-0.22724,-0.020528,1.02,0.89014,2.7165
8.96,-0.22498,-0.00048876,1.0298,0.88477,2.7625
8.968,-0.22272,0.0043988,1.04,0.875,2.7918
8.976,-0.22047,0.039589,1.0698,0.86475,2.8065
8.984,-0.21896,0.069892,1.0898,0.84473,2.8113
8.992,-0.2167,0.084555,1.085,0.83496,2.8094
9,-0.2152,0.07478,1.0898,0.83984,2.8025
9.008,-0.21369,0.044477,1.0649,0.85498,2.7947
9.016,-0.21294,0.024438,1.0498,0.86475,2.7898
9.024,-0.21144,0.0043988,1.0347,0.88477,2.7879
9.032,-0.21068,-0.025415,0.99512,0.89502,2.782
9.04,-0.20993,-0.050342,0.9751,0.90479,2.7752
9.048,-0.20918,-0.065494,0.9751,0.91504,2.7713
9.056,-0.20843,-0.075269,0.9751,0.91504,2.7713
9.064,-0.20843,-0.080645,0.96484,0.9248,2.7752
9.072,-0.20767,-0.085533,0.95996,0.92969,2.781
9.08,-0.20767,-0.09042,0.95508,0.9248,2.7869
9.088,-0.20767,-0.085533,0.95508,0.9248,2.7918
9.096,-0.20767,-0.09042,0.95508,0.9248,2.7928
9.104,-0.20767,-0.10557,1,0.93506,2.7898
9.112,-0.20767,-0.05523,1.0298,0.90479,2.7849
9.12,-0.20767,0.20968,0.9248,0.74512,2.7722
9.128,-0.20692,0.70528,0.75977,0.4751,2.7498
9.136,-0.20617,0.91544,0.71973,0.36523,2.7185
9.144,-0.20542,-0.040567,0.94482,0.93506,2.6774
9.152,-0.20467,-0.50049,1.0098,1.23,2.6256
9.16,-0.20316,-0.50049,0.87012,1.2646,2.564
9.168,-0.20166,-0.50049,0.77002,1.21,2.4976
9.176,-0.20015,-0.48583,0.77979,1.1499,2.4272
9.184,-0.19865,-0.40078,0.79004,1.0898,2.3539
9.192,-0.19789,-0.30059,0.81982,1.0298,2.2796
9.2,-0.19639,-0.22043,0.87012,0.98975,2.2053
9.208,-0.19564,-0.13539,0.92969,0.93994,2.1339
9.216,-0.19488,-0.080645,0.95996,0.91504,2.0684
9.224,-0.19413,-0.060606,0.9751,0.90967,2.0088
9.232,-0.19263,-0.050342,0.96973,0.90479,1.9609
9.24,-0.19112,-0.040567,0.9751,0.89502,1.9208
9.248,-0.18962,-0.040567,0.97998,0.89502,1.8817
9.256,-0.18811,-0.025415,0.9751,0.89014,1.8465
9.264,-0.18661,-0.025415,0.9751,0.89014,1.8182
9.272,-0.1851,-0.025415,0.97998,0.89014,1.7957
9.28,-0.1836,-0.025415,0.97998,0.89014,1.7752
9.288,-0.18209,-0.025415,0.97998,0.89014,1.7566
9.296,-0.18059,-0.015152,0.97998,0.88477,1.74
9.304,-0.17983,-0.010264,0.9751,0.87988,1.7263
9.312,-0.17908,-0.0053763,0.9751,0.87988,1.7126
9.32,-0.17833,-0.00048876,0.97998,0.875,1.695
9.328,-0.17682,-0.0053763,0.98975,0.875,1.6784
9.336,-0.17532,-0.00048876,0.98975,0.87988,1.6608
9.344,-0.17381,0.0097752,0.98975,0.875,1.6413
9.352,-0.17306,0.014663,0.98486,0.87012,1.6197
9.36,-0.17231,0.01955,0.99512,0.87012,1.5973
9.368,-0.17156,0.024438,1,0.85986,1.5738
9.376,-0.17081,0.044477,1,0.8501,1.5484
9.384,-0.1693,0.049853,1,0.84473,1.521
9.392,-0.1678,0.064516,1,0.83496,1.4927
9.4,-0.16554,0.07478,1.0049,0.83008,1.4633
9.408,-0.16328,0.079668,1.0098,0.81982,1.4301
9.416,-0.16102,0.094819,1.0098,0.81982,1.3949
9.424,-0.15877,0.11486,1.02,0.80469,1.3656
9.432,-0.15651,0.11486,1.02,0.80469,1.3431
9.44,-0.15425,0.12463,1.02,0.7998,1.3167
9.448,-0.15199,0.12463,1.0298,0.79492,1.2864
9.456,-0.14898,0.12463,1.04,0.7998,1.2542
9.464,-0.14597,0.11486,1.0347,0.80469,1.2239
9.472,-0.14296,0.10459,1.0298,0.81494,1.1975
9.48,-0.1392,0.089932,1.0298,0.81982,1.172
9.488,-0.13544,0.069892,1.0249,0.83496,1.1447
9.496,-0.13168,0.044477,1.0298,0.8501,1.1193
9.504,-0.12792,0.024438,1.02,0.86475,1.0958
9.512,-0.12415,0.0097752,1.02,0.875,1.0723
9.52,-0.12039,-0.0053763,1.0146,0.89014,1.0508
9.528,-0.11663,-0.025415,1.0146,0.89502,1.0342
9.536,-0.11287,-0.030303,1.0146,0.90479,1.0205
9.544,-0.1091,-0.050342,1.0049,0.91504,1.0049
9.552,-0.10534,-0.05523,1.0098,0.91504,0.98827
9.56,-0.10233,-0.05523,1.0049,0.91992,0.96872
9.568,-0.099323,-0.060606,1.0049,0.9248,0.95015
9.576,-0.096313,-0.065494,1.0098,0.91992,0.93255
9.584,-0.092551,-0.075269,1,0.9248,0.91496
9.592,-0.088789,-0.075269,1.0098,0.9248,0.89834
9.6,-0.085026,-0.075269,1.0098,0.92969,0.88074
9.608,-0.082017,-0.075269,1.0098,0.92969,0.8651
9.616,-0.079007,-0.075269,1.0049,0.9248,0.84848
9.624,-0.075997,-0.075269,1.0049,0.91992,0.83773
9.632,-0.072987,-0.065494,1.0049,0.91504,0.82893
9.64,-0.069977,-0.065494,1.0049,0.91992,0.81623
9.648,-0.066968,-0.060606,1.0098,0.91504,0.8045
9.656,-0.063958,-0.05523,1.0098,0.91504,0.7957
9.664,-0.060196,-0.050342,1.0049,0.91504,0.78886
9.672,-0.057938,-0.050342,1.0049,0.91504,0.78495
9.68,-0.054929,-0.045455,1,0.90479,0.78886
9.688,-0.053424,-0.040567,0.99512,0.90479,0.80352
9.696,-0.051166,-0.035191,1,0.8999,0.83089
9.704,-0.049661,-0.040567,1,0.90479,0.87488
9.712,-0.047404,-0.035191,0.99512,0.90479,0.93939
9.72,-0.045899,-0.040567,0.99512,0.8999,1.0753
9.728,-0.043642,-0.040567,0.99512,0.90967,1.2395
9.736,-0.042137,-0.045455,0.98975,0.90479,1.3763
9.744,-0.040632,-0.045455,0.98975,0.90967,1.52
9.752,-0.03988,-0.045455,0.98975,0.90967,1.6706
9.76,-0.039127,-0.045455,0.99512,0.90967,1.8289
9.768,-0.038375,-0.045455,1,0.90967,1.9883
9.776,-0.03687,-0.045455,0.99512,0.90967,2.1427
9.784,-0.035365,-0.035191,1,0.91504,2.2884
9.792,-0.03386,-0.015152,1.0098,0.89014,2.4203
9.8,-0.033108,-0.00048876,1.02,0.88477,2.5357
9.808,-0.032355,0.0043988,1.0249,0.875,2.6325
9.816,-0.031603,0.024438,1.0498,0.87012,2.7097
9.824,-0.03085,0.059629,1.085,0.85498,2.7615
9.832,-0.03085,0.07478,1.0898,0.83984,2.7957
9.84,-0.03085,0.089932,1.0898,0.83496,2.8231
9.848,-0.03085,0.069892,1.0747,0.84473,2.8407
9.856,-0.03085,0.049853,1.0547,0.85986,2.8495
9.864,-0.03085,0.024438,1.0449,0.87012,2.8514
9.872,-0.03085,-0.00048876,1.02,0.88477,2.8465
9.88,-0.031603,-0.025415,0.99512,0.8999,2.8377
9.888,-0.031603,-0.050342,0.9751,0.90967,2.826
9.896,-0.032355,-0.075269,0.97998,0.91992,2.8133
9.904,-0.033108,-0.075269,0.96973,0.91992,2.8016
9.912,-0.034612,-0.075269,0.95996,0.9248,2.7908
9.92,-0.036117,-0.085533,0.95508,0.92969,2.7801
9.928,-0.037622,-0.085533,0.94971,0.9248,2.7664
9.936,-0.038375,-0.09042,0.94971,0.92969,2.7517
9.944,-0.03988,-0.095308,0.95996,0.93506,2.739
9.952,-0.040632,-0.11046,1.0146,0.93994,2.7273
9.96,-0.042137,-0.00048876,1.0298,0.87012,2.7165
9.968,-0.043642,0.35973,0.85498,0.66504,2.7048
9.976,-0.045147,0.88025,0.71973,0.38525,2.6891
9.984,-0.046652,0.96041,0.71484,0.3501,2.6667
9.992,-0.048157,-0.28543,0.99512,1.0747,2.6344
10,-0.049661,-0.50049,1.0049,1.2446,2.5934
10.008,-0.051166,-0.50049,0.81982,1.2646,2.5435
10.016,-0.052671,-0.50049,0.76514,1.1851,2.4858
10.024,-0.054176,-0.44086,0.78516,1.1196,2.4291
10.032,-0.055681,-0.3607,0.79492,1.0649,2.3734
10.04,-0.057938,-0.27077,0.83496,1.0098,2.3109
10.048,-0.060196,-0.18035,0.88477,0.96973,2.2463
10.056,-0.061701,-0.1002,0.93994,0.92969,2.1828
10.064,-0.063205,-0.065494,0.96484,0.91504,2.1232
10.072,-0.06471,-0.050342,0.9751,0.90479,2.0694
10.08,-0.066215,-0.040567,0.9751,0.8999,2.0186
10.088,-0.06772,-0.030303,0.9751,0.89502,1.9726
10.096,-0.069225,-0.025415,0.9751,0.89014,1.9335
10.104,-0.069977,-0.025415,0.97998,0.89014,1.9032
10.112,-0.07073,-0.020528,0.97998,0.88477,1.8817
10.12,-0.071482,-0.015152,0.97998,0.89014,1.8671
10.128,-0.072235,-0.015152,0.97998,0.88477,1.8583
10.136,-0.072987,-0.015152,0.9751,0.88477,1.8514
10.144,-0.07374,-0.010264,0.98486,0.87988,1.8426
10.152,-0.074492,-0.0053763,0.98486,0.87988,1.8328
10.16,-0.075245,-0.00048876,0.98486,0.87988,1.8231
10.168,-0.075997,0.0043988,0.98975,0.87012,1.8123
10.176,-0.076749,0.014663,0.98975,0.86475,1.7996
10.184,-0.077502,0.01955,0.98975,0.86475,1.782
10.192,-0.078254,0.01955,0.98975,0.85986,1.7634
10.2,-0.079007,0.029814,0.99512,0.85498,1.7429
10.208,-0.079759,0.034702,0.99512,0.85986,1.7214
10.216,-0.080512,0.044477,0.99512,0.85498,1.697
10.224,-0.081264,0.049853,0.99512,0.84473,1.6764
10.232,-0.082017,0.059629,0.99512,0.83984,1.6569
10.24,-0.082017,0.069892,0.99512,0.83008,1.6334
10.248,-0.082017,0.089932,1,0.81982,1.609
10.256,-0.082017,0.099707,1,0.81006,1.5816
10.264,-0.081264,0.10948,1.0049,0.81006,1.5533
10.272,-0.080512,0.11975,1.0098,0.79492,1.5259
10.28,-0.079759,0.12952,1.0049,0.79492,1.4985
10.288,-0.079007,0.12952,1.0098,0.79492,1.4702
10.296,-0.078254,0.12952,1.0146,0.79492,1.4428
10.304,-0.077502,0.11975,1.0146,0.7998,1.4174
10.312,-0.075997,0.10948,1.02,0.81006,1.3939
10.32,-0.074492,0.089932,1.02,0.81982,1.3724
10.328,-0.072987,0.07478,1.0249,0.83008,1.3568
10.336,-0.071482,0.049853,1.02,0.83984,1.3421
10.344,-0.069977,0.034702,1.02,0.85986,1.3245
10.352,-0.068473,0.01955,1.0146,0.87012,1.306
10.36,-0.066968,-0.00048876,1.0098,0.88477,1.2864
10.368,-0.065463,-0.010264,1,0.89014,1.2659
10.376,-0.06471,-0.020528,1.0146,0.89502,1.2483
10.384,-0.063205,-0.025415,1.0049,0.90479,1.2317
10.392,-0.062453,-0.030303,1,0.90479,1.2151
10.4,-0.061701,-0.045455,1,0.91504,1.2004
10.408,-0.060948,-0.050342,1,0.91504,1.1867
10.416,-0.060196,-0.050342,1,0.91504,1.173
10.424,-0.059443,-0.05523,1.0049,0.91504,1.1642
10.432,-0.057938,-0.05523,1.0049,0.91504,1.1584
10.44,-0.057186,-0.05523,1,0.91504,1.1505
10.448,-0.056433,-0.05523,1,0.91504,1.1417
10.456,-0.055681,-0.050342,1,0.91504,1.132
10.464,-0.054929,-0.060606,1,0.91992,1.1212
10.472,-0.054176,-0.050342,0.99512,0.91504,1.1105
10.48,-0.053424,-0.05523,1,0.91504,1.0997
10.488,-0.052671,-0.050342,1,0.90967,1.0899
10.496,-0.051919,-0.050342,1,0.90967,1.0792
10.504,-0.051919,-0.050342,1,0.90479,1.0714
10.512,-0.051919,-0.040567,0.99512,0.90479,1.0684
10.52,-0.052671,-0.035191,0.98975,0.8999,1.0723
10.528,-0.053424,-0.030303,0.98975,0.8999,1.0841
10.536,-0.054176,-0.025415,0.98975,0.8999,1.1046
10.544,-0.054929,-0.030303,0.98975,0.89502,1.1378
10.552,-0.055681,-0.030303,0.99512,0.8999,1.1906
10.56,-0.056433,-0.030303,0.98975,0.89502,1.263
10.568,-0.057938,-0.030303,0.97998,0.8999,1.3548
10.576,-0.058691,-0.035191,0.98975,0.89502,1.4673
10.584,-0.060196,-0.035191,0.98975,0.90479,1.5963
10.592,-0.061701,-0.035191,0.98975,0.89502,1.74
10.6,-0.063958,-0.035191,0.98975,0.90479,1.8954
10.608,-0.066215,-0.035191,0.98975,0.8999,2.0557
10.616,-0.069225,-0.025415,1,0.89502,2.2141
10.624,-0.072235,-0.0053763,1.02,0.88477,2.346
10.632,-0.075245,0.0097752,1.0298,0.87012,2.4614
10.64,-0.078254,0.01955,1.0347,0.87012,2.5797
10.648,-0.081264,0.034702,1.0449,0.86475,2.6872
10.656,-0.084274,0.064516,1.0698,0.8501,2.7771
10.664,-0.088036,0.084555,1.0801,0.83984,2.8465
10.672,-0.091798,0.094819,1.085,0.83008,2.8974
10.68,-0.095561,0.064516,1.0649,0.84473,2.9326
10.688,-0.099323,0.044477,1.0498,0.85986,2.955
10.696,-0.10309,0.029814,1.0347,0.86475,2.9658
10.704,-0.10685,0.0097752,1.0098,0.87988,2.9687
10.712,-0.11061,-0.025415,0.97998,0.89502,2.9677
10.72,-0.11437,-0.050342,0.9751,0.90479,2.9619
10.728,-0.11889,-0.065494,0.96484,0.91504,2.9482
10.736,-0.12265,-0.070381,0.96484,0.91504,2.9316
10.744,-0.12792,-0.075269,0.95508,0.91504,2.915
10.752,-0.13318,-0.080645,0.95508,0.91992,2.9003
10.76,-0.1392,-0.085533,0.94971,0.9248,2.8886
10.768,-0.14447,-0.085533,0.93994,0.9248,2.8798
10.776,-0.15049,-0.080645,0.95508,0.92969,2.8729
10.784,-0.15651,-0.10557,1.0098,0.93994,2.8671
10.792,-0.16253,-0.010264,1.0347,0.875,2.8612
10.8,-0.16855,0.34506,0.8999,0.66992,2.8543
10.808,-0.17457,0.89541,0.73975,0.375,2.8446
10.816,-0.17983,1.0704,0.70508,0.29004,2.8289
10.824,-0.1851,-0.12023,0.89014,0.96973,2.8065
10.832,-0.18962,-0.50049,0.91504,1.25,2.7781
10.84,-0.19413,-0.50049,0.72998,1.2749,2.7429
10.848,-0.19865,-0.50049,0.70508,1.1948,2.6989
10.856,-0.20241,-0.46579,0.75,1.1348,2.6461
10.864,-0.20617,-0.34555,0.79004,1.0601,2.5875
10.872,-0.20993,-0.25562,0.83984,1.0098,2.522
10.88,-0.21369,-0.16569,0.90479,0.96484,2.4536
10.888,-0.21746,-0.09042,0.95508,0.9248,2.3851
10.896,-0.22122,-0.060606,0.9751,0.91504,2.3196
10.904,-0.22423,-0.045455,0.97998,0.8999,2.259
10.912,-0.22724,-0.035191,0.98486,0.89502,2.2033
10.92,-0.23025,-0.025415,0.98486,0.89502,2.1535
10.928,-0.23326,-0.020528,0.98486,0.89502,2.1114
10.936,-0.23627,-0.020528,0.98486,0.89014,2.0772
10.944,-0.23928,-0.015152,0.98486,0.89014,2.0469
10.952,-0.24229,-0.015152,0.98486,0.89014,2.0205
10.96,-0.2453,-0.010264,0.98486,0.88477,2
10.968,-0.24831,-0.0053763,0.97998,0.88477,1.9814
10.976,-0.25132,-0.0053763,0.98975,0.87988,1.9648
10.984,-0.25433,-0.0053763,0.99512,0.87988,1.9482
10.992,-0.25734,-0.0053763,0.99512,0.87988,1.9316
11,-0.25959,-0.0053763,0.99512,0.875,1.913
11.008,-0.26185,0.0043988,0.99512,0.87012,1.8915
11.016,-0.26411,0.0097752,0.99512,0.875,1.871
11.024,-0.26561,0.01955,0.99512,0.87012,1.8524
11.032,-0.26712,0.024438,0.99512,0.86475,1.8348
11.04,-0.26862,0.029814,0.99512,0.85986,1.8143
11.048,-0.27013,0.039589,1,0.8501,1.7898
11.056,-0.27163,0.049853,1,0.83984,1.7615
11.064,-0.27314,0.059629,1,0.83984,1.7302
11.072,-0.27464,0.07478,1.0098,0.83008,1.697
11.08,-0.27615,0.089932,1.0098,0.81982,1.6618
11.088,-0.27765,0.094819,1.0146,0.81982,1.6256
11.096,-0.2784,0.11486,1.0146,0.81006,1.5904
11.104,-0.27916,0.12463,1.02,0.79492,1.5572
11.112,-0.28066,0.12952,1.02,0.79492,1.5269
11.12,-0.28141,0.13978,1.02,0.79492,1.5034
11.128,-0.28292,0.13978,1.02,0.79492,1.4819
11.136,-0.28442,0.13978,1.02,0.79492,1.4565
11.144,-0.28593,0.12952,1.0249,0.7998,1.4301
11.152,-0.28668,0.11486,1.02,0.81006,1.4037
11.16,-0.28743,0.099707,1.0298,0.81982,1.3803
11.168,-0.28819,0.079668,1.02,0.83008,1.3578
11.176,-0.28894,0.059629,1.0146,0.84473,1.3363
11.184,-0.28894,0.029814,1.0098,0.85986,1.3148
11.192,-0.28894,0.0043988,1.0049,0.875,1.2933
11.2,-0.28894,-0.015152,1.0049,0.89014,1.2717
11.208,-0.28894,-0.025415,1,0.89502,1.2512
11.216,-0.28894,-0.045455,0.99512,0.90479,1.2326
11.224,-0.28894,-0.050342,0.99512,0.90479,1.2209
11.232,-0.28894,-0.05523,0.98975,0.91504,1.2121
11.24,-0.28894,-0.065494,0.98975,0.91504,1.2014
11.248,-0.28894,-0.070381,0.98486,0.9248,1.1906
11.256,-0.28894,-0.070381,0.99512,0.91992,1.1789
11.264,-0.28894,-0.075269,0.98975,0.9248,1.1662
11.272,-0.28894,-0.070381,0.99512,0.91992,1.1515
11.28,-0.28894,-0.070381,0.99512,0.91992,1.1349
11.288,-0.28894,-0.070381,0.99512,0.9248,1.1193
11.296,-0.28894,-0.070381,1,0.91504,1.1017
11.304,-0.28894,-0.065494,1,0.9248,1.085
11.312,-0.28894,-0.065494,0.99512,0.91992,1.0704
11.32,-0.28894,-0.065494,0.99512,0.91504,1.0606
11.328,-0.28819,-0.060606,0.98975,0.91992,1.0557
11.336,-0.28819,-0.060606,0.98975,0.91504,1.0508
11.344,-0.28819,-0.05523,1,0.91504,1.0469
11.352,-0.28743,-0.045455,1,0.90479,1.0469
11.36,-0.28668,-0.040567,1,0.90479,1.0567
11.368,-0.28593,-0.040567,0.99512,0.90967,1.0811
11.376,-0.28518,-0.040567,0.98975,0.90479,1.1261
11.384,-0.28367,-0.040567,0.98975,0.90479,1.1955
11.392,-0.28217,-0.035191,0.98975,0.90479,1.2893
11.4,-0.28141,-0.040567,0.98486,0.90479,1.4066
11.408,-0.28066,-0.040567,0.98975,0.90479,1.5396
11.416,-0.27991,-0.035191,0.98975,0.90479,1.6852
11.424,-0.27916,-0.040567,0.98975,0.90479,1.8192
11.432,-0.2784,-0.025415,1,0.89502,1.9453
11.44,-0.27765,-0.015152,1.0049,0.89014,2.086
11.448,-0.27765,-0.00048876,1.02,0.88477,2.2278
11.456,-0.2769,0.0043988,1.02,0.87988,2.3607
11.464,-0.27765,0.01955,1.04,0.875,2.48
11.472,-0.27765,0.049853,1.0698,0.86475,2.5836
11.48,-0.2784,0.069892,1.0747,0.8501,2.6696
11.488,-0.27916,0.089932,1.0801,0.83984,2.739
11.496,-0.27991,0.054741,1.0601,0.85498,2.7918
11.504,-0.28066,0.044477,1.0449,0.86475,2.8289
11.512,-0.28141,0.024438,1.0298,0.87012,2.8534
11.52,-0.28141,-0.0053763,1,0.89014,2.8612
11.528,-0.28292,-0.035191,0.9751,0.90479,2.8602
11.536,-0.28367,-0.05523,0.96484,0.91504,2.8592
11.544,-0.28593,-0.070381,0.95996,0.91992,2.8592
11.552,-0.28743,-0.075269,0.95508,0.9248,2.8602
11.56,-0.28969,-0.080645,0.95996,0.92969,2.8631
11.568,-0.29195,-0.09042,0.94971,0.93506,2.8671
11.576,-0.29496,-0.09042,0.94971,0.93506,2.8749
11.584,-0.29797,-0.095308,0.94971,0.93506,2.8847
11.592,-0.30023,-0.1002,0.94971,0.93506,2.8944
11.6,-0.30248,-0.11535,1.0098,0.95508,2.9013
11.608,-0.30474,-0.030303,1.0298,0.8999,2.9081
11.616,-0.307,0.30499,0.90479,0.7002,2.914
11.624,-0.31001,0.8651,0.73975,0.39502,2.914
11.632,-0.31302,1.0455,0.70996,0.31006,2.9091
11.64,-0.31603,-0.095308,0.88477,0.96484,2.9032
11.648,-0.31904,-0.50049,0.91992,1.2549,2.8954
11.656,-0.32129,-0.50049,0.75,1.29,2.8827
11.664,-0.3228,-0.50049,0.71484,1.2046,2.8641
11.672,-0.3243,-0.48094,0.75977,1.1499,2.8358
11.68,-0.32581,-0.37048,0.79004,1.0747,2.7957
11.688,-0.32731,-0.27566,0.83984,1.02,2.7439
11.696,-0.32882,-0.18035,0.8999,0.9751,2.6813
11.704,-0.33108,-0.10557,0.94971,0.93506,2.6119
11.712,-0.33333,-0.075269,0.96973,0.91992,2.5376
11.72,-0.33484,-0.05523,0.9751,0.90967,2.4663
11.728,-0.33634,-0.045455,0.97998,0.90479,2.3969
11.736,-0.3371,-0.035191,0.9751,0.8999,2.3226
11.744,-0.33785,-0.035191,0.98486,0.89502,2.2473
11.752,-0.3386,-0.035191,0.98486,0.89014,2.175
11.76,-0.33935,-0.025415,0.98486,0.89014,2.1085
11.768,-0.34011,-0.030303,0.97998,0.89014,2.0459
11.776,-0.34086,-0.025415,0.97998,0.89014,1.9892
11.784,-0.34161,-0.025415,0.97998,0.89014,1.9404
11.792,-0.34236,-0.025415,0.98486,0.89014,1.8983
11.8,-0.34312,-0.020528,0.98486,0.89014,1.8631
11.808,-0.34387,-0.020528,0.98486,0.89014,1.8348
11.816,-0.34462,-0.015152,0.98975,0.89014,1.8094
11.824,-0.34537,-0.0053763,0.98975,0.88477,1.7898
11.832,-0.34537,-0.00048876,0.98486,0.88477,1.7752
11.84,-0.34537,0.0043988,1,0.87988,1.7595
11.848,-0.34537,0.0097752,0.99512,0.875,1.7419
11.856,-0.34537,0.024438,0.99512,0.86475,1.7234
11.864,-0.34462,0.034702,0.99512,0.85986,1.7077
11.872,-0.34387,0.044477,1,0.8501,1.6931
11.88,-0.34312,0.049853,1,0.84473,1.6774
11.888,-0.34161,0.069892,1,0.83984,1.6588
11.896,-0.34011,0.079668,1.0049,0.83008,1.6364
11.904,-0.3386,0.099707,1.0098,0.81982,1.61
11.912,-0.3371,0.10948,1.02,0.81494,1.5787
11.92,-0.33559,0.12463,1.0146,0.7998,1.5513
11.928,-0.33409,0.13978,1.02,0.79492,1.5269
11.936,-0.33258,0.13978,1.02,0.79492,1.4976
11.944,-0.33108,0.14467,1.02,0.79492,1.4673
11.952,-0.32957,0.13978,1.0249,0.79492,1.435
11.96,-0.32882,0.1349,1.0249,0.7998,1.4027
11.968,-0.32807,0.11486,1.0249,0.81494,1.3724
11.976,-0.32731,0.094819,1.02,0.82471,1.3421
11.984,-0.32656,0.07478,1.02,0.83984,1.3089
11.992,-0.32656,0.044477,1.0098,0.85498,1.2727
12,-0.32656,0.01955,1.0049,0.87012,1.2375
12.008,-0.32656,-0.00048876,1.0098,0.89014,1.2053
12.016,-0.32656,-0.020528,1,0.8999,1.174
12.024,-0.32581,-0.035191,1,0.90967,1.1496
12.032,-0.32506,-0.050342,1,0.91504,1.132
12.04,-0.3243,-0.060606,1,0.91992,1.1124
12.048,-0.32355,-0.060606,1,0.91992,1.0919
12.056,-0.3228,-0.070381,0.99512,0.91992,1.0704
12.064,-0.32205,-0.075269,0.99512,0.92969,1.0489
12.072,-0.32129,-0.075269,0.99512,0.92969,1.0283
12.08,-0.32054,-0.075269,0.99512,0.92969,1.0098
12.088,-0.31979,-0.075269,0.98975,0.93506,0.99218
12.096,-0.31904,-0.080645,1,0.92969,0.97556
12.104,-0.31753,-0.080645,1,0.93506,0.95699
12.112,-0.31603,-0.080645,1,0.92969,0.93353
12.12,-0.31377,-0.075269,1,0.92969,0.91593
12.128,-0.31151,-0.075269,1,0.92969,0.90518
12.136,-0.31001,-0.075269,1,0.9248,0.8915
12.144,-0.30775,-0.070381,1,0.9248,0.87586
12.152,-0.30625,-0.065494,1,0.9248,0.86315
12.16,-0.30474,-0.060606,1,0.91992,0.8563
12.168,-0.30248,-0.060606,1,0.91504,0.85826
12.176,-0.30023,-0.050342,1,0.91504,0.87195
12.184,-0.29722,-0.050342,1,0.91504,0.90323
12.192,-0.29421,-0.050342,0.98975,0.91504,0.95601
12.2,-0.2912,-0.050342,0.98486,0.91504,1.0283
12.208,-0.28819,-0.050342,1,0.91504,1.1232
12.216,-0.28593,-0.050342,0.98975,0.91504,1.2405
12.224,-0.28292,-0.040567,1,0.90479,1.3578
12.232,-0.28141,-0.025415,1.0098,0.8999,1.48
12.24,-0.27916,-0.0053763,1.02,0.88477,1.6266
12.248,-0.27765,-0.00048876,1.02,0.88477,1.7859
12.256,-0.27615,0.01955,1.04,0.875,1.9462
12.264,-0.2754,0.039589,1.0601,0.86475,2.0987
12.272,-0.27464,0.064516,1.0747,0.8501,2.2375
12.28,-0.27464,0.079668,1.0801,0.83984,2.3597
12.288,-0.27464,0.064516,1.0649,0.8501,2.4653
12.296,-0.27464,0.034702,1.0449,0.86475,2.5503
12.304,-0.27464,0.024438,1.0347,0.87012,2.6158
12.312,-0.27464,-0.0053763,1.0049,0.89014,2.6637
12.32,-0.27464,-0.040567,0.97998,0.90967,2.6901
12.328,-0.27615,-0.060606,0.95996,0.91992,2.7038
12.336,-0.2769,-0.075269,0.96484,0.9248,2.7146
12.344,-0.27916,-0.080645,0.95996,0.92969,2.7214
12.352,-0.28066,-0.09042,0.94971,0.93506,2.7253
12.36,-0.28292,-0.095308,0.94971,0.93506,2.7273
12.368,-0.28518,-0.1002,0.94971,0.93506,2.7283
12.376,-0.28819,-0.095308,0.94482,0.93506,2.7283
12.384,-0.2912,-0.10557,0.93994,0.93506,2.7292
12.392,-0.29345,-0.12023,0.98975,0.94971,2.7331
12.4,-0.29571,-0.12561,1.0298,0.95508,2.738
12.408,-0.29797,0.17498,0.94482,0.7749,2.7429
12.416,-0.30023,0.6652,0.77979,0.49512,2.7488
12.424,-0.30324,0.99022,0.71484,0.33984,2.7517
12.432,-0.30625,0.12463,0.85986,0.83496,2.7527
12.44,-0.30926,-0.50049,0.93994,1.21,2.7546
12.448,-0.31226,-0.50049,0.79492,1.2847,2.7537
12.456,-0.31452,-0.50049,0.7251,1.23,2.7478
12.464,-0.31603,-0.50049,0.75488,1.1699,2.7341
12.472,-0.31753,-0.41056,0.77979,1.1001,2.7116
12.48,-0.31904,-0.31036,0.81494,1.04,2.6813
12.488,-0.32054,-0.22043,0.87012,0.98975,2.6403
12.496,-0.32205,-0.1305,0.91992,0.94971,2.5885
12.504,-0.32355,-0.080645,0.95508,0.91992,2.5279
12.512,-0.32506,-0.070381,0.96484,0.91504,2.4575
12.52,-0.32656,-0.05523,0.96973,0.90967,2.39
12.528,-0.32731,-0.050342,0.9751,0.90967,2.3236
12.536,-0.32882,-0.045455,0.9751,0.90479,2.2493
12.544,-0.32957,-0.035191,0.9751,0.8999,2.172
12.552,-0.33032,-0.035191,0.9751,0.89502,2.0968
12.56,-0.33108,-0.035191,0.9751,0.89502,2.0235
12.568,-0.33108,-0.035191,0.9751,0.89502,1.956
12.576,-0.33108,-0.035191,0.9751,0.89502,1.8964
12.584,-0.33108,-0.030303,0.9751,0.89014,1.8436
12.592,-0.33108,-0.025415,0.9751,0.89014,1.7947
12.6,-0.33108,-0.025415,0.9751,0.89014,1.7517
12.608,-0.33032,-0.020528,0.9751,0.88477,1.7165
12.616,-0.32957,-0.015152,0.9751,0.89014,1.6891
12.624,-0.32882,-0.0053763,0.97998,0.87988,1.6706
12.632,-0.32731,-0.0053763,0.97998,0.87988,1.6559
12.64,-0.32581,0.0043988,0.98486,0.87012,1.6403
12.648,-0.32355,0.014663,0.98486,0.86475,1.6246
12.656,-0.32129,0.024438,0.98975,0.86475,1.608
12.664,-0.31828,0.034702,0.98486,0.85986,1.5914
12.672,-0.31527,0.044477,0.99512,0.8501,1.5728
12.68,-0.31226,0.059629,0.99512,0.83984,1.5523
12.688,-0.3085,0.069892,1,0.83008,1.5327
12.696,-0.30474,0.089932,1,0.81982,1.5122
12.704,-0.30098,0.099707,1,0.81006,1.4907
12.712,-0.29722,0.10948,1.0049,0.80469,1.4682
12.72,-0.2927,0.11975,1.0049,0.79492,1.4467
12.728,-0.28819,0.12952,1.0049,0.79492,1.4252
12.736,-0.28367,0.13978,1.0098,0.7998,1.3978
12.744,-0.27916,0.13978,1.0146,0.79492,1.3685
12.752,-0.27464,0.12952,1.0146,0.7998,1.3372
12.76,-0.27088,0.11486,1.0146,0.81006,1.304
12.768,-0.26637,0.094819,1.02,0.81982,1.2678
12.776,-0.2626,0.064516,1.0146,0.83984,1.2317
12.784,-0.25884,0.039589,1.0049,0.85498,1.1975
12.792,-0.25583,0.01955,1.0049,0.87012,1.1642
12.8,-0.25207,-0.00048876,1.0049,0.87988,1.131
12.808,-0.24906,-0.025415,1,0.89502,1.0987
12.816,-0.24605,-0.035191,1,0.90479,1.0655
12.824,-0.24304,-0.050342,1,0.90967,1.0411
12.832,-0.24003,-0.060606,1,0.91504,1.0225
12.84,-0.23702,-0.065494,1,0.91504,1.002
12.848,-0.23401,-0.075269,1,0.9248,0.98338
12.856,-0.23175,-0.075269,1,0.92969,0.96481
12.864,-0.22874,-0.085533,0.99512,0.92969,0.94428
12.872,-0.22649,-0.09042,0.98975,0.93506,0.92278
12.88,-0.22423,-0.085533,0.98975,0.92969,0.90029
12.888,-0.22197,-0.080645,0.99512,0.92969,0.87781
12.896,-0.21896,-0.085533,0.98975,0.92969,0.85728
12.904,-0.21595,-0.080645,0.98975,0.9248,0.83578
12.912,-0.21219,-0.080645,0.98975,0.9248,0.8172
12.92,-0.20767,-0.075269,0.99512,0.91992,0.80645
12.928,-0.20316,-0.075269,0.99512,0.91992,0.79863
12.936,-0.1994,-0.075269,0.99512,0.91504,0.78788
12.944,-0.19564,-0.065494,0.99512,0.91504,0.77615
12.952,-0.19187,-0.060606,1,0.91504,0.76833
12.96,-0.18811,-0.060606,0.99512,0.91504,0.76637
12.968,-0.18435,-0.060606,0.99512,0.91504,0.77517
12.976,-0.17983,-0.050342,0.98975,0.91504,0.79863
12.984,-0.17532,-0.05523,0.99512,0.90967,0.84262
12.992,-0.17081,-0.050342,0.99512,0.90967,0.90616
13,-0.16704,-0.05523,0.99512,0.90967,0.99022
13.008,-0.16253,-0.050342,0.99512,0.90967,1.0958
13.016,-0.15877,-0.050342,0.99512,0.90479,1.2053
13.024,-0.155,-0.040567,1,0.8999,1.3226
13.032,-0.15199,-0.030303,1.0098,0.89502,1.4653
13.04,-0.14898,-0.0053763,1.02,0.88477,1.6207
13.048,-0.14673,-0.00048876,1.02,0.875,1.782
13.056,-0.14447,0.01955,1.04,0.86475,1.9404
13.064,-0.14221,0.044477,1.0649,0.85986,2.089
13.072,-0.13995,0.069892,1.0747,0.84473,2.2219
13.08,-0.13845,0.079668,1.0801,0.83984,2.3372
13.088,-0.13619,0.054741,1.0698,0.8501,2.434
13.096,-0.13469,0.034702,1.0498,0.86475,2.5103
13.104,-0.13318,0.01955,1.04,0.87012,2.567
13.112,-0.13243,-0.0053763,1.0098,0.88477,2.609
13.12,-0.13168,-0.035191,0.98975,0.8999,2.6344
13.128,-0.13093,-0.065494,0.9751,0.91504,2.6481
13.136,-0.13017,-0.080645,0.96484,0.91992,2.6598
13.144,-0.13017,-0.085533,0.95508,0.9248,2.6657
13.152,-0.12942,-0.09042,0.94971,0.9248,2.6686
13.16,-0.13017,-0.095308,0.94971,0.92969,2.6725
13.168,-0.13017,-0.095308,0.94971,0.92969,2.6774
13.176,-0.13093,-0.095308,0.94971,0.92969,2.6823
13.184,-0.13168,-0.095308,0.94971,0.93506,2.6872
13.192,-0.13243,-0.11535,0.98975,0.92969,2.6931
13.2,-0.13318,-0.060606,1.0249,0.93506,2.6979
13.208,-0.13394,0.22483,0.9248,0.73975,2.7019
13.216,-0.13469,0.72532,0.75488,0.46484,2.7009
13.224,-0.13544,0.94526,0.70996,0.3501,2.6979
13.232,-0.13619,-0.020528,0.91992,0.91992,2.695
13.24,-0.13695,-0.50049,0.99512,1.2197,2.6911
13.248,-0.1377,-0.50049,0.8501,1.2646,2.6833
13.256,-0.13845,-0.50049,0.76514,1.2046,2.6686
13.264,-0.13845,-0.48583,0.75488,1.1499,2.6442
13.272,-0.1392,-0.39052,0.78516,1.0898,2.607
13.28,-0.1392,-0.30059,0.81494,1.0347,2.5582
13.288,-0.13995,-0.21554,0.86475,0.98975,2.4985
13.296,-0.13995,-0.13539,0.91992,0.94971,2.4291
13.304,-0.14071,-0.080645,0.95508,0.91992,2.3509
13.312,-0.14146,-0.060606,0.96973,0.91504,2.2669
13.32,-0.14221,-0.050342,0.96973,0.90479,2.1906
13.328,-0.14296,-0.040567,0.9751,0.8999,2.1202
13.336,-0.14447,-0.030303,0.96973,0.89502,2.044
13.344,-0.14597,-0.035191,0.96973,0.89502,1.9687
13.352,-0.14673,-0.030303,0.9751,0.89502,1.8983
13.36,-0.14748,-0.025415,0.9751,0.89014,1.8319
13.368,-0.14823,-0.010264,0.9751,0.88477,1.7713
13.376,-0.14898,-0.015152,0.96973,0.89014,1.7185
13.384,-0.14974,-0.020528,0.96973,0.89014,1.6716
13.392,-0.14974,-0.010264,0.9751,0.88477,1.6315
13.4,-0.14974,-0.0053763,0.97998,0.87988,1.5982
13.408,-0.14974,-0.00048876,0.9751,0.875,1.5709
13.416,-0.14974,-0.00048876,0.9751,0.87988,1.5513
13.424,-0.14974,0.0043988,0.9751,0.87012,1.5376
13.432,-0.14974,0.0097752,0.9751,0.87012,1.5249
13.44,-0.14974,0.01955,0.97998,0.86475,1.5132
13.448,-0.14898,0.01955,0.98486,0.86475,1.4995
13.456,-0.14748,0.039589,0.98975,0.85498,1.4819
13.464,-0.14597,0.044477,0.98486,0.84473,1.4624
13.472,-0.14372,0.054741,0.98486,0.83984,1.4409
13.48,-0.14221,0.059629,0.98975,0.83984,1.4194
13.488,-0.13995,0.079668,0.99512,0.82471,1.3978
13.496,-0.1377,0.089932,0.98975,0.81982,1.3754
13.504,-0.13544,0.10948,0.99512,0.81006,1.35
13.512,-0.13394,0.11486,0.99512,0.80469,1.3236
13.52,-0.13168,0.12952,1,0.79492,1.3021
13.528,-0.12942,0.1349,1.0049,0.79492,1.2835
13.536,-0.12716,0.13978,1.0146,0.79004,1.2571
13.544,-0.12566,0.1349,1.02,0.79492,1.2278
13.552,-0.1234,0.12463,1.02,0.7998,1.1984
13.56,-0.12114,0.11486,1.0146,0.81006,1.1672
13.568,-0.11889,0.094819,1.0146,0.81982,1.1359
13.576,-0.11738,0.069892,1.0146,0.83984,1.1036
13.584,-0.11512,0.044477,1.0146,0.84473,1.0714
13.592,-0.11287,0.01955,1.0146,0.86475,1.0401
13.6,-0.11061,-0.00048876,1.02,0.87988,1.0117
13.608,-0.10835,-0.010264,1.0146,0.89014,0.98534
13.616,-0.10609,-0.025415,1.0049,0.89502,0.96579
13.624,-0.10309,-0.035191,1.0049,0.90479,0.94917
13.632,-0.10008,-0.050342,1,0.91504,0.92864
13.64,-0.097065,-0.060606,1.0049,0.91504,0.90616
13.648,-0.094056,-0.065494,1.0049,0.91992,0.8827
13.656,-0.090293,-0.070381,1.0098,0.9248,0.85924
13.664,-0.086531,-0.075269,1.0098,0.9248,0.83773
13.672,-0.083521,-0.075269,1.0098,0.9248,0.81916
13.68,-0.080512,-0.075269,1.0049,0.9248,0.80156
13.688,-0.077502,-0.070381,1.0049,0.9248,0.78495
13.696,-0.074492,-0.070381,1.0049,0.9248,0.76931
13.704,-0.071482,-0.075269,1.0049,0.91992,0.7566
13.712,-0.068473,-0.070381,1.0098,0.91504,0.74194
13.72,-0.065463,-0.05523,1.0146,0.91504,0.73216
13.728,-0.061701,-0.065494,1.0049,0.91504,0.72532
13.736,-0.058691,-0.060606,1.0049,0.91504,0.71359
13.744,-0.055681,-0.05523,1.0049,0.91504,0.6999
13.752,-0.052671,-0.050342,1,0.90479,0.68817
13.76,-0.049661,-0.050342,1,0.90967,0.68231
13.768,-0.047404,-0.045455,1,0.90479,0.68426
13.776,-0.045147,-0.035191,1,0.8999,0.69892
13.784,-0.042889,-0.035191,1,0.89502,0.73118
13.792,-0.040632,-0.035191,1,0.89502,0.78201
13.8,-0.038375,-0.035191,1,0.89502,0.85728
13.808,-0.036117,-0.030303,1,0.89502,0.95699
13.816,-0.03386,-0.035191,1,0.89502,1.1378
13.824,-0.031603,-0.025415,0.99512,0.89014,1.3627
13.832,-0.030098,-0.015152,1.0098,0.88477,1.5533
13.84,-0.02784,-0.00048876,1.02,0.875,1.7312
13.848,-0.027088,0.0097752,1.0298,0.87012,1.9022
13.856,-0.025583,0.01955,1.04,0.85986,2.0655
13.864,-0.024831,0.039589,1.0698,0.8501,2.2209
13.872,-0.024078,0.07478,1.0898,0.83984,2.3627
13.88,-0.024078,0.089932,1.085,0.83496,2.4858
13.888,-0.023326,0.084555,1.0898,0.83008,2.5904
13.896,-0.023326,0.054741,1.0649,0.8501,2.6755
13.904,-0.023326,0.039589,1.0547,0.85498,2.739
13.912,-0.023326,0.014663,1.0347,0.87012,2.784
13.92,-0.023326,-0.015152,1.0049,0.89014,2.8104
13.928,-0.024078,-0.045455,0.97998,0.90479,2.8231
13.936,-0.024831,-0.060606,0.9751,0.90967,2.8309
13.944,-0.026336,-0.070381,0.9751,0.91504,2.8338
13.952,-0.027088,-0.070381,0.96973,0.91504,2.8319
13.96,-0.028593,-0.075269,0.96484,0.91992,2.827
13.968,-0.030098,-0.085533,0.94971,0.9248,2.8211
13.976,-0.032355,-0.085533,0.95508,0.9248,2.8152
13.984,-0.034612,-0.075269,0.95508,0.9248,2.8104
13.992,-0.03687,-0.095308,0.9751,0.92969,2.8045
14,-0.039127,-0.1002,1.0347,0.93506,2.7996
14.008,-0.041384,0.079668,1,0.82471,2.7947
14.016,-0.043642,0.51515,0.82471,0.56982,2.7879
14.024,-0.045899,1.0103,0.70996,0.31494,2.782
14.032,-0.047404,0.49511,0.80469,0.625,2.7781
14.04,-0.048909,-0.40567,0.98486,1.1348,2.7703
14.048,-0.050414,-0.50049,0.89014,1.2598,2.7556
14.056,-0.051919,-0.50049,0.77002,1.23,2.7331
14.064,-0.053424,-0.50049,0.73975,1.1748,2.7009
14.072,-0.054929,-0.4306,0.78516,1.1099,2.6598
14.08,-0.056433,-0.32551,0.80469,1.0449,2.609
14.088,-0.057938,-0.24536,0.8501,1,2.5484
14.096,-0.059443,-0.15543,0.90479,0.95996,2.4819
14.104,-0.060948,-0.085533,0.95508,0.91992,2.4106
14.112,-0.062453,-0.060606,0.96973,0.90967,2.3363
14.12,-0.063958,-0.045455,0.9751,0.8999,2.2688
14.128,-0.065463,-0.030303,0.9751,0.89502,2.2072
14.136,-0.066968,-0.025415,0.9751,0.89502,2.1437
14.144,-0.068473,-0.020528,0.97998,0.89014,2.0821
14.152,-0.069977,-0.015152,0.98486,0.89014,2.0254
14.16,-0.071482,-0.015152,0.98486,0.89014,1.9765
14.168,-0.072987,-0.010264,0.98486,0.88477,1.9355
14.176,-0.07374,-0.010264,0.98975,0.88477,1.9013
14.184,-0.075245,-0.010264,0.98486,0.89014,1.8749
14.192,-0.076749,-0.00048876,0.98975,0.88477,1.8563
14.2,-0.078254,-0.00048876,0.98486,0.87988,1.8446
14.208,-0.079759,-0.00048876,1,0.87988,1.8368
14.216,-0.081264,0.0043988,0.99512,0.875,1.8299
14.224,-0.082769,0.014663,1,0.87012,1.8221
14.232,-0.084274,0.01955,1,0.86475,1.8133
14.24,-0.085026,0.024438,1,0.85986,1.8035
14.248,-0.085779,0.029814,1,0.85986,1.7937
14.256,-0.086531,0.044477,1,0.8501,1.784
14.264,-0.087284,0.049853,1,0.8501,1.7722
14.272,-0.088036,0.059629,1,0.83984,1.7576
14.28,-0.088789,0.069892,1,0.83496,1.737
14.288,-0.089541,0.089932,1,0.82471,1.7107
14.296,-0.090293,0.094819,1,0.81982,1.6833
14.304,-0.091046,0.11486,1.0049,0.80469,1.6569
14.312,-0.091046,0.12463,1,0.7998,1.6305
14.32,-0.091046,0.1349,1.0049,0.79492,1.609
14.328,-0.091046,0.13978,1.0049,0.79492,1.5904
14.336,-0.090293,0.14467,1.0098,0.79004,1.5679
14.344,-0.089541,0.13978,1.0098,0.79492,1.5435
14.352,-0.088789,0.1349,1.0146,0.79492,1.52
14.36,-0.088036,0.11486,1.0146,0.80469,1.4966
14.368,-0.087284,0.099707,1.0146,0.81494,1.4731
14.376,-0.086531,0.079668,1.0098,0.83008,1.4506
14.384,-0.085779,0.054741,1.0049,0.84473,1.4291
14.392,-0.085026,0.029814,1,0.86475,1.4076
14.4,-0.084274,0.0097752,1,0.875,1.3871
14.408,-0.083521,-0.010264,1,0.89014,1.3656
14.416,-0.082769,-0.020528,0.99512,0.89014,1.35
14.424,-0.082017,-0.025415,1,0.8999,1.3382
14.432,-0.081264,-0.045455,1,0.91504,1.3245
14.44,-0.080512,-0.050342,1,0.91504,1.3099
14.448,-0.079759,-0.050342,1,0.91504,1.2962
14.456,-0.079759,-0.05523,1,0.91504,1.2854
14.464,-0.079759,-0.065494,1,0.91992,1.2747
14.472,-0.079759,-0.065494,1,0.91992,1.263
14.48,-0.079759,-0.065494,1,0.9248,1.2512
14.488,-0.079759,-0.060606,1,0.91992,1.2395
14.496,-0.079759,-0.065494,1,0.91992,1.2258
14.504,-0.080512,-0.060606,1,0.91504,1.2111
14.512,-0.081264,-0.060606,1,0.91992,1.1965
14.52,-0.082017,-0.060606,0.99512,0.91504,1.1896
14.528,-0.082769,-0.05523,0.99512,0.91504,1.1877
14.536,-0.083521,-0.050342,0.99512,0.91504,1.1838
14.544,-0.084274,-0.050342,1,0.91504,1.1789
14.552,-0.085026,-0.040567,0.99512,0.90479,1.176
14.56,-0.085779,-0.040567,1,0.90479,1.1769
14.568,-0.087284,-0.035191,0.99512,0.90479,1.1867
14.576,-0.088789,-0.035191,0.98975,0.90967,1.2082
14.584,-0.090293,-0.030303,0.98975,0.90479,1.2454
14.592,-0.091798,-0.030303,0.98975,0.90479,1.3011
14.6,-0.094056,-0.030303,0.98975,0.8999,1.3773
14.608,-0.096313,-0.035191,0.98486,0.90479,1.4751
14.616,-0.09857,-0.040567,0.98486,0.90479,1.5748
14.624,-0.10083,-0.040567,0.98486,0.90967,1.6794
14.632,-0.10233,-0.040567,0.98486,0.90967,1.8074
14.64,-0.10384,-0.035191,0.97998,0.90967,1.9511
14.648,-0.10534,-0.040567,0.98975,0.90967,2.1026
14.656,-0.10685,-0.040567,0.98975,0.90967,2.2522
14.664,-0.1091,-0.045455,0.98486,0.90967,2.3969
14.672,-0.11136,-0.045455,0.98975,0.91504,2.5308
14.68,-0.11437,-0.030303,1,0.8999,2.6481
14.688,-0.11738,-0.010264,1.0146,0.89014,2.7488
14.696,-0.12039,0.0043988,1.02,0.87988,2.8299
14.704,-0.1234,0.0097752,1.0249,0.875,2.8915
14.712,-0.12641,0.024438,1.0449,0.875,2.9355
14.72,-0.12942,0.054741,1.0698,0.85986,2.9599
14.728,-0.13318,0.07478,1.0747,0.84473,2.9717
14.736,-0.13695,0.084555,1.0801,0.83984,2.9785
14.744,-0.14071,0.054741,1.0601,0.85498,2.9824
14.752,-0.14447,0.039589,1.0449,0.86475,2.9824
14.76,-0.14974,0.024438,1.0347,0.87988,2.9795
14.768,-0.15425,-0.0053763,1.0049,0.89014,2.9775
14.776,-0.15952,-0.035191,0.9751,0.90479,2.9765
14.784,-0.16479,-0.050342,0.96973,0.91504,2.9756
14.792,-0.1693,-0.070381,0.96484,0.91992,2.9756
14.8,-0.17381,-0.075269,0.95508,0.9248,2.9775
14.808,-0.17833,-0.080645,0.95996,0.92969,2.9824
14.816,-0.18284,-0.085533,0.95508,0.93506,2.9824
14.824,-0.18811,-0.095308,0.94971,0.93506,2.9785
14.832,-0.19263,-0.095308,0.94971,0.93506,2.9765
14.84,-0.19789,-0.095308,0.95508,0.93506,2.9726
14.848,-0.20316,-0.11535,1.0098,0.94971,2.9648
14.856,-0.20843,-0.030303,1.04,0.8999,2.9501
14.864,-0.21294,0.31476,0.90967,0.69482,2.9267
14.872,-0.21746,0.87048,0.75,0.39502,2.8944
14.88,-0.22197,1.0704,0.70996,0.29492,2.8534
14.888,-0.22649,-0.070381,0.87012,0.94971,2.8045
14.896,-0.231,-0.50049,0.8999,1.25,2.7458
14.904,-0.23552,-0.50049,0.71973,1.2749,2.6794
14.912,-0.24003,-0.50049,0.69482,1.1997,2.6168
14.92,-0.24379,-0.48583,0.74512,1.145,2.5523
14.928,-0.24755,-0.3607,0.78516,1.0698,2.48
14.936,-0.25056,-0.2654,0.83984,1.02,2.4057
14.944,-0.25357,-0.17058,0.90479,0.9751,2.3333
14.952,-0.25658,-0.1002,0.95508,0.93506,2.2659
14.96,-0.25959,-0.075269,0.9751,0.91992,2.2072
14.968,-0.26185,-0.050342,0.9751,0.91504,2.1593
14.976,-0.26411,-0.045455,0.98486,0.90967,2.1212
14.984,-0.26637,-0.030303,0.98975,0.90479,2.0909
14.992,-0.26787,-0.025415,0.98486,0.8999,2.0645
15,-0.26938,-0.025415,0.98486,0.8999,2.044
15.008,-0.27088,-0.025415,0.98975,0.8999,2.0254
15.016,-0.27239,-0.025415,0.98486,0.8999,2.0088
15.024,-0.27314,-0.025415,0.98486,0.8999,1.9941
15.032,-0.27389,-0.025415,0.98975,0.8999,1.9795
15.04,-0.27464,-0.015152,0.98975,0.89014,1.9638
15.048,-0.27615,-0.015152,0.98975,0.89014,1.9482
15.056,-0.2769,-0.010264,0.98975,0.89014,1.9326
15.064,-0.2784,-0.010264,0.98975,0.89014,1.9159
15.072,-0.27991,-0.00048876,1,0.88477,1.8954
15.08,-0.28066,0.0043988,1.0049,0.87988,1.8719
15.088,-0.28141,0.0043988,1.0049,0.875,1.8465
15.096,-0.28217,0.01955,1,0.87012,1.8182
15.104,-0.28292,0.024438,1,0.86475,1.7879
15.112,-0.28367,0.034702,1,0.86475,1.7625
15.12,-0.28367,0.044477,1,0.85498,1.739
15.128,-0.28367,0.054741,1.0098,0.8501,1.7116
15.136,-0.28367,0.069892,1.0146,0.83984,1.6833
15.144,-0.28367,0.084555,1.0146,0.82471,1.6549
15.152,-0.28367,0.094819,1.02,0.81982,1.6266
15.16,-0.28367,0.10948,1.02,0.81494,1.5992
15.168,-0.28367,0.12463,1.02,0.80469,1.5699
15.176,-0.28367,0.1349,1.02,0.79492,1.5396
15.184,-0.28367,0.13978,1.0298,0.79492,1.5112
15.192,-0.28367,0.13978,1.0298,0.79492,1.4839
15.2,-0.28367,0.13978,1.0298,0.79492,1.4585
15.208,-0.28442,0.12952,1.0298,0.7998,1.434
15.216,-0.28442,0.11486,1.0249,0.81494,1.4154
15.224,-0.28518,0.094819,1.02,0.81982,1.4008
15.232,-0.28593,0.07478,1.0146,0.83984,1.3832
15.24,-0.28668,0.054741,1.0146,0.8501,1.3636
15.248,-0.28743,0.029814,1.0098,0.86475,1.348
15.256,-0.28819,-0.00048876,1.0049,0.87988,1.3343
15.264,-0.28894,-0.015152,1.0049,0.89014,1.3196
15.272,-0.28969,-0.030303,1,0.89502,1.305
15.28,-0.29044,-0.045455,0.99512,0.90967,1.2893
15.288,-0.2912,-0.050342,1,0.91504,1.2737
15.296,-0.29195,-0.065494,1,0.91504,1.2581
15.304,-0.2927,-0.065494,1,0.91992,1.2424
15.312,-0.29345,-0.065494,1,0.9248,1.2326
15.32,-0.29421,-0.075269,1,0.9248,1.2278
15.328,-0.29421,-0.075269,1,0.9248,1.2199
15.336,-0.29421,-0.075269,0.99512,0.92969,1.2082
15.344,-0.29421,-0.075269,0.98975,0.9248,1.1945
15.352,-0.29421,-0.075269,0.99512,0.92969,1.1808
15.36,-0.29421,-0.075269,0.98975,0.92969,1.1691
15.368,-0.29421,-0.075269,0.99512,0.92969,1.1574
15.376,-0.29421,-0.065494,1,0.92969,1.1466
15.384,-0.29421,-0.065494,0.98975,0.9248,1.1359
15.392,-0.29421,-0.060606,1,0.91992,1.1281
15.4,-0.29345,-0.065494,1,0.91992,1.1241
15.408,-0.2927,-0.05523,0.99512,0.91992,1.1232
15.416,-0.29195,-0.050342,0.98975,0.91504,1.131
15.424,-0.29044,-0.050342,0.98975,0.91504,1.1496
15.432,-0.28894,-0.050342,0.99512,0.91504,1.1808
15.44,-0.28743,-0.050342,0.98975,0.91504,1.2317
15.448,-0.28593,-0.050342,0.98975,0.91504,1.305
15.456,-0.28442,-0.050342,0.98975,0.91504,1.4027
15.464,-0.28292,-0.050342,0.98486,0.91504,1.5239
15.472,-0.28141,-0.045455,0.98486,0.90967,1.6647
15.48,-0.27991,-0.045455,0.9751,0.91504,1.8211
15.488,-0.2784,-0.050342,0.98486,0.91504,1.9863
15.496,-0.2769,-0.050342,0.98486,0.91504,2.1515
15.504,-0.2754,-0.050342,0.97998,0.91504,2.3079
15.512,-0.27464,-0.050342,0.97998,0.91504,2.436
15.52,-0.27314,-0.05523,0.98486,0.91504,2.5415
15.528,-0.27314,-0.060606,0.97998,0.91504,2.6442
15.536,-0.27239,-0.05523,0.98486,0.91504,2.7361
15.544,-0.27314,-0.050342,0.98486,0.91504,2.8133
15.552,-0.27314,-0.05523,0.98486,0.91504,2.8739
15.56,-0.27464,-0.05523,0.98486,0.91504,2.9189
15.568,-0.2754,-0.060606,0.98486,0.91504,2.9492
15.576,-0.27765,-0.060606,0.98486,0.91504,2.9677
15.584,-0.27991,-0.065494,0.98486,0.91504,2.9765
15.592,-0.28217,-0.060606,0.97998,0.91992,2.9814
15.6,-0.28442,-0.060606,0.98486,0.91504,2.9834
15.608,-0.28668,-0.060606,0.98486,0.91504,2.9853
15.616,-0.28894,-0.065494,0.98486,0.91992,2.9853
15.624,-0.2912,-0.065494,0.98486,0.91504,2.9853
15.632,-0.29345,-0.060606,0.98486,0.91992,2.9922
15.64,-0.29646,-0.05523,0.98486,0.91504,3.0039
15.648,-0.29947,-0.060606,0.97998,0.91504,3.0205
15.656,-0.30173,-0.05523,0.98486,0.91504,3.0391
15.664,-0.30399,-0.05523,0.97998,0.91504,3.0587
15.672,-0.30625,-0.050342,0.97998,0.91504,3.0782
15.68,-0.3085,-0.050342,0.9751,0.91504,3.0929
15.688,-0.31151,-0.050342,0.98486,0.90967,3.1017
15.696,-0.31377,-0.050342,0.98486,0.91504,3.1046
15.704,-0.31678,-0.050342,0.98486,0.91504,3.1007
15.712,-0.31979,-0.050342,0.97998,0.90967,3.089
15.72,-0.3228,-0.040567,0.97998,0.8999,3.0684
15.728,-0.32581,-0.045455,0.98486,0.90479,3.0401
15.736,-0.32882,-0.040567,0.98486,0.8999,3.002
15.744,-0.33183,-0.045455,0.98486,0.90479,2.9541
15.752,-0.33409,-0.040567,0.98486,0.8999,2.8964
15.76,-0.33634,-0.040567,0.97998,0.90479,2.8299
15.768,-0.33785,-0.045455,0.97998,0.90479,2.7556
15.776,-0.33935,-0.045455,0.98486,0.90967,2.6755
15.784,-0.34086,-0.045455,0.9751,0.90967,2.5934
15.792,-0.34236,-0.045455,0.98486,0.90967,2.5152
15.8,-0.34387,-0.045455,0.98486,0.90479,2.4389
15.808,-0.34462,-0.045455,0.98486,0.90479,2.3675
15.816,-0.34537,-0.040567,0.97998,0.90479,2.3089
15.824,-0.34612,-0.040567,0.97998,0.90967,2.262
15.832,-0.34612,-0.040567,0.98486,0.90479,2.216
15.84,-0.34612,-0.035191,0.98486,0.8999,2.175
15.848,-0.34612,-0.040567,0.98486,0.90479,2.1388
15.856,-0.34612,-0.040567,0.9751,0.90967,2.1075
15.864,-0.34537,-0.040567,0.9751,0.90967,2.0518
15.872,-0.34462,-0.045455,0.97998,0.90479,1.9853
15.88,-0.34387,-0.040567,0.9751,0.90967,1.9413
15.888,-0.34312,-0.035191,0.9751,0.90479,1.9091
15.896,-0.34236,-0.040567,0.9751,0.90967,1.8856
15.904,-0.34161,-0.040567,0.9751,0.90967,1.8671
15.912,-0.34086,-0.040567,0.9751,0.90967,1.8524
15.92,-0.34011,-0.040567,0.97998,0.90967,1.8397
15.928,-0.33935,-0.035191,0.97998,0.90967,1.826
15.936,-0.3386,-0.040567,0.9751,0.90967,1.8084
15.944,-0.33785,-0.035191,0.97998,0.90967,1.7869
15.952,-0.3371,-0.040567,0.97998,0.90479,1.7625
15.96,-0.33634,-0.035191,0.97998,0.90967,1.737
15.968,-0.33559,-0.030303,0.97998,0.90479,1.7107
15.976,-0.33484,-0.030303,0.9751,0.90479,1.6813
15.984,-0.33409,-0.035191,0.98486,0.90967,1.651
15.992,-0.33333,-0.035191,0.97998,0.90967,1.6197
16,-0.33258,-0.035191,0.97998,0.90479,1.5875
16.008,-0.33183,-0.030303,0.9751,0.90479,1.5523
16.016,-0.33108,-0.030303,0.97998,0.90479,1.5249
16.024,-0.33108,-0.035191,0.97998,0.90479,1.5005
16.032,-0.33108,-0.035191,0.9751,0.90479,1.4712
16.04,-0.33032,-0.035191,0.97998,0.90479,1.4409
16.048,-0.32957,-0.035191,0.9751,0.90479,1.4096
16.056,-0.32807,-0.035191,0.9751,0.90479,1.3812
16.064,-0.32656,-0.040567,0.9751,0.90967,1.3539
16.072,-0.32581,-0.030303,0.9751,0.90479,1.3265
16.08,-0.3243,-0.035191,0.97998,0.90479,1.3001
16.088,-0.32355,-0.030303,0.9751,0.90479,1.2737
16.096,-0.3228,-0.035191,0.9751,0.90479,1.2483
16.104,-0.32205,-0.035191,0.9751,0.90479,1.2239
16.112,-0.32129,-0.035191,0.9751,0.90479,1.2082
16.12,-0.32054,-0.035191,0.9751,0.90479,1.1975
16.128,-0.31979,-0.035191,0.9751,0.90967,1.1848
16.136,-0.31904,-0.025415,0.9751,0.8999,1.1701
16.144,-0.31828,-0.025415,0.9751,0.8999,1.1544
16.152,-0.31753,-0.030303,0.9751,0.8999,1.1388
16.16,-0.31678,-0.025415,0.9751,0.8999,1.1241
16.168,-0.31603,-0.030303,0.9751,0.8999,1.1134
16.176,-0.31527,-0.030303,0.97998,0.90479,1.1026
16.184,-0.31452,-0.035191,0.97998,0.90479,1.0899
16.192,-0.31377,-0.030303,0.9751,0.90479,1.0753
16.2,-0.31302,-0.030303,0.9751,0.8999,1.0616
16.208,-0.31226,-0.030303,0.9751,0.90479,1.0489
16.216,-0.31151,-0.030303,0.9751,0.90479,1.043
16.224,-0.31076,-0.030303,0.9751,0.90479,1.043
16.232,-0.31001,-0.030303,0.9751,0.90479,1.0401
16.24,-0.30926,-0.030303,0.9751,0.90967,1.0332
16.248,-0.3085,-0.030303,0.9751,0.90479,1.0274
16.256,-0.30775,-0.030303,0.9751,0.90479,1.0215
16.264,-0.30775,-0.030303,0.9751,0.90479,1.0137
16.272,-0.307,-0.0053763,0.98486,0.89014,1.0039
16.28,-0.307,0.014663,1.0098,0.87012,0.99413
16.288,-0.307,0.044477,1.0249,0.85986,0.98436
16.296,-0.307,0.064516,1.0449,0.8501,0.97361
16.304,-0.307,0.089932,1.0601,0.83984,0.96285
16.312,-0.307,0.089932,1.0547,0.83008,0.95797
16.32,-0.307,0.099707,1.0601,0.82471,0.95503
16.328,-0.307,0.064516,1.0449,0.84473,0.94819
16.336,-0.307,0.049853,1.02,0.85498,0.94037
16.344,-0.307,0.01955,1,0.875,0.9306
16.352,-0.307,-0.00048876,0.97998,0.89014,0.9218
16.36,-0.307,-0.030303,0.95996,0.8999,0.91496
16.368,-0.30625,-0.045455,0.95508,0.91504,0.90714
16.376,-0.30549,-0.050342,0.94971,0.91504,0.90127
16.384,-0.30474,-0.060606,0.94971,0.91504,0.89541
16.392,-0.30474,-0.070381,0.94482,0.91504,0.89052
16.4,-0.30399,-0.070381,0.94482,0.91992,0.88759
16.408,-0.30324,-0.065494,0.93994,0.91504,0.88661
16.416,-0.30248,-0.080645,0.95508,0.92969,0.88954
16.424,-0.30248,-0.095308,1.0146,0.93506,0.89345
16.432,-0.30173,0.07478,1.02,0.83496,0.89443
16.44,-0.30098,0.47019,0.8501,0.6001,0.89247
16.448,-0.30023,1.0103,0.7251,0.3252,0.88759
16.456,-0.30023,0.64027,0.71973,0.56006,0.88172
16.464,-0.29947,-0.31036,0.90479,1.0947,0.87683
16.472,-0.29947,-0.50049,0.78516,1.2646,0.87195
16.48,-0.29872,-0.50049,0.68506,1.2397,0.86608
16.488,-0.29872,-0.50049,0.70996,1.1851,0.86315
16.496,-0.29872,-0.43548,0.74512,1.1196,0.86217
16.504,-0.29947,-0.32063,0.7998,1.0449,0.86119
16.512,-0.30023,-0.24047,0.85986,1.0098,0.86608
16.52,-0.30098,-0.15054,0.91992,0.95996,0.8739
16.528,-0.30098,-0.09042,0.95508,0.93506,0.87977
16.536,-0.30098,-0.075269,0.9751,0.91504,0.8827
16.544,-0.30098,-0.05523,0.97998,0.91504,0.88368
16.552,-0.30098,-0.045455,0.98486,0.90967,0.88465
16.56,-0.30098,-0.045455,0.97998,0.90967,0.88465
16.568,-0.30098,-0.040567,0.98975,0.90479,0.88368
16.576,-0.30098,-0.045455,0.98486,0.90479,0.8827
16.584,-0.30098,-0.035191,0.98486,0.89502,0.8827
16.592,-0.30098,-0.030303,0.98486,0.89502,0.88074
16.6,-0.30173,-0.040567,0.98486,0.8999,0.87977
16.608,-0.30248,-0.040567,0.98486,0.8999,0.88172
16.616,-0.30324,-0.035191,0.98486,0.8999,0.88563
16.624,-0.30324,-0.030303,0.98975,0.8999,0.88661
16.632,-0.30324,-0.025415,0.99512,0.89502,0.88563
16.64,-0.30324,-0.025415,0.99512,0.8999,0.88563
16.648,-0.30399,-0.025415,0.99512,0.89502,0.88563
16.656,-0.30474,-0.020528,1,0.89502,0.88563
16.664,-0.30549,-0.015152,1,0.89502,0.88563
16.672,-0.30625,-0.015152,1,0.89014,0.88563
16.68,-0.307,-0.010264,1.0049,0.89014,0.88563
16.688,-0.30775,-0.00048876,1,0.87988,0.88563
16.696,-0.30926,0.0043988,1,0.87012,0.88563
16.704,-0.31001,0.014663,1.0049,0.86475,0.88563
16.712,-0.31076,0.01955,1,0.86475,0.88759
16.72,-0.31151,0.029814,1.02,0.85498,0.88954
16.728,-0.31226,0.034702,1.02,0.85498,0.88856
16.736,-0.31226,0.044477,1.0298,0.84473,0.88661
16.744,-0.31226,0.049853,1.0298,0.8501,0.88563
16.752,-0.31151,0.054741,1.0347,0.83984,0.88563
16.76,-0.31076,0.054741,1.0449,0.83984,0.88563
16.768,-0.31001,0.054741,1.0449,0.83984,0.88563
16.776,-0.30926,0.044477,1.0498,0.84473,0.88563
16.784,-0.3085,0.039589,1.0601,0.8501,0.88563
16.792,-0.30775,0.024438,1.0601,0.85986,0.88563
16.8,-0.30625,0.014663,1.0498,0.87012,0.88563
16.808,-0.30474,-0.0053763,1.0449,0.87988,0.88954
16.816,-0.30248,-0.015152,1.04,0.88477,0.89541
16.824,-0.30023,-0.020528,1.0298,0.89014,0.89638
16.832,-0.29797,-0.015152,1.02,0.89014,0.89541
16.84,-0.29571,-0.010264,1.0098,0.89014,0.89541
16.848,-0.29345,-0.0053763,1,0.88477,0.89541
16.856,-0.2912,-0.00048876,0.99512,0.89014,0.89541
16.864,-0.28894,-0.010264,0.98975,0.89014,0.89541
16.872,-0.28668,-0.010264,0.98975,0.89014,0.89541
16.88,-0.28442,-0.015152,0.98486,0.89014,0.89541
16.888,-0.28217,-0.020528,0.97998,0.89014,0.89541
16.896,-0.27916,-0.025415,0.97998,0.8999,0.89345
16.904,-0.27615,-0.025415,0.97998,0.8999,0.8915
16.912,-0.27239,-0.025415,0.98486,0.8999,0.89443
16.92,-0.26787,-0.030303,0.97998,0.8999,0.90029
16.928,-0.26336,-0.035191,0.97998,0.90479,0.90323
16.936,-0.25959,-0.035191,0.98486,0.90479,0.9042
16.944,-0.25583,-0.040567,0.98486,0.90479,0.90518
16.952,-0.25207,-0.040567,0.97998,0.90967,0.9042
16.96,-0.24831,-0.040567,0.97998,0.90479,0.90225
16.968,-0.24379,-0.035191,0.98486,0.8999,0.90127
16.976,-0.23928,-0.030303,0.98486,0.89502,0.90225
16.984,-0.23401,-0.025415,0.97998,0.8999,0.90811
16.992,-0.22874,-0.025415,0.98486,0.89502,0.92375
17,-0.22348,-0.020528,0.97998,0.89502,0.95699
17.008,-0.21821,-0.025415,0.9751,0.89502,1.002
17.016,-0.21294,-0.020528,0.9751,0.89502,1.0626
17.024,-0.20692,-0.015152,0.9751,0.89502,1.1496
17.032,-0.20241,-0.020528,0.97998,0.89014,1.263
17.04,-0.19714,-0.015152,0.9751,0.89014,1.4008
17.048,-0.19263,-0.020528,0.9751,0.89014,1.5591
17.056,-0.18811,-0.020528,0.97998,0.89502,1.7331
17.064,-0.18435,-0.020528,0.9751,0.89502,1.915
17.072,-0.18059,-0.025415,0.9751,0.89502,2.0978
17.08,-0.17758,-0.030303,0.9751,0.90479,2.2747
17.088,-0.17381,-0.030303,0.9751,0.8999,2.4409
17.096,-0.17081,-0.035191,0.96973,0.90967,2.5934
17.104,-0.1678,-0.030303,0.9751,0.90479,2.7292
17.112,-0.16479,-0.035191,0.9751,0.90479,2.8309
17.12,-0.16178,-0.035191,0.9751,0.90479,2.9081
17.128,-0.15952,-0.040567,0.96973,0.90967,2.9785
17.136,-0.15726,-0.035191,0.9751,0.90967,3.0362
17.144,-0.15576,-0.045455,0.9751,0.90967,3.0802
17.152,-0.15425,-0.045455,0.9751,0.90967,3.1134
17.16,-0.1535,-0.045455,0.9751,0.91504,3.1349
17.168,-0.15199,-0.050342,0.9751,0.91504,3.1486
17.176,-0.15124,-0.050342,0.9751,0.91504,3.1564
17.184,-0.15049,-0.045455,0.9751,0.90967,3.1603
17.192,-0.15049,-0.050342,0.9751,0.91504,3.1623
17.2,-0.14974,-0.050342,0.9751,0.91504,3.1632
17.208,-0.14974,-0.050342,0.9751,0.91504,3.1593
17.216,-0.14974,-0.050342,0.9751,0.90967,3.1574
17.224,-0.14974,-0.050342,0.9751,0.91504,3.1632
17.232,-0.14974,-0.050342,0.97998,0.91504,3.173
17.24,-0.14974,-0.045455,0.9751,0.91504,3.1867
17.248,-0.14974,-0.045455,0.9751,0.90967,3.2033
17.256,-0.14974,-0.050342,0.9751,0.91504,3.219
17.264,-0.14974,-0.050342,0.9751,0.90967,3.2336
17.272,-0.14974,-0.050342,0.9751,0.91504,3.2463
17.28,-0.14974,-0.050342,0.9751,0.91504,3.2551
17.288,-0.14974,-0.050342,0.9751,0.91504,3.2571
17.296,-0.14898,-0.050342,0.9751,0.91504,3.2483
17.304,-0.14823,-0.050342,0.9751,0.91504,3.2297
17.312,-0.14748,-0.050342,0.9751,0.90967,3.2033
17.32,-0.14673,-0.050342,0.9751,0.90967,3.1691
17.328,-0.14597,-0.050342,0.96973,0.90967,3.1271
17.336,-0.14597,-0.045455,0.9751,0.90479,3.0782
17.344,-0.14597,-0.050342,0.96973,0.91504,3.0225
17.352,-0.14597,-0.045455,0.9751,0.90967,2.9589
17.36,-0.14597,-0.045455,0.96973,0.90479,2.8925
17.368,-0.14597,-0.045455,0.96973,0.90967,2.8221
17.376,-0.14597,-0.045455,0.9751,0.90967,2.7498
17.384,-0.14522,-0.045455,0.9751,0.90967,2.6813
17.392,-0.14372,-0.045455,0.96973,0.90967,2.6149
17.4,-0.14221,-0.040567,0.9751,0.90479,2.5543
17.408,-0.14071,-0.045455,0.9751,0.90967,2.5054
17.416,-0.1392,-0.045455,0.9751,0.90967,2.4653
17.424,-0.1377,-0.050342,0.9751,0.90479,2.4301
17.432,-0.13695,-0.045455,0.96973,0.90479,2.3988
17.44,-0.13619,-0.045455,0.9751,0.90479,2.3715
17.448,-0.13544,-0.045455,0.9751,0.90967,2.35
17.456,-0.13469,-0.045455,0.9751,0.90479,2.3314
17.464,-0.13394,-0.050342,0.96973,0.90967,2.3128
17.472,-0.13318,-0.045455,0.9751,0.90479,2.2942
17.48,-0.13243,-0.045455,0.9751,0.90967,2.2747
17.488,-0.13168,-0.040567,0.9751,0.90479,2.2542
17.496,-0.13093,-0.040567,0.96973,0.90967,2.2336
17.504,-0.13017,-0.035191,0.9751,0.8999,2.2131
17.512,-0.12942,-0.035191,0.9751,0.90967,2.1935
17.52,-0.12867,-0.030303,0.96973,0.90479,2.176
17.528,-0.12792,-0.035191,0.9751,0.90967,2.1564
17.536,-0.12716,-0.035191,0.9751,0.90479,2.1329
17.544,-0.12716,-0.040567,0.9751,0.90479,2.1085
17.552,-0.12641,-0.035191,0.9751,0.90479,2.0811
17.56,-0.12641,-0.040567,0.96973,0.90967,2.0499
17.568,-0.12641,-0.045455,0.9751,0.90967,2.0186
17.576,-0.12566,-0.035191,0.9751,0.91504,1.9873
17.584,-0.12491,-0.030303,0.9751,0.90967,1.956
17.592,-0.12415,-0.025415,0.9751,0.90479,1.9247
17.6,-0.1234,-0.030303,0.96973,0.8999,1.8944
17.608,-0.12265,-0.0053763,0.98975,0.88477,1.87
17.616,-0.12114,0.014663,1,0.87012,1.8485
17.624,-0.11964,0.029814,1.02,0.86475,1.825
17.632,-0.11813,0.064516,1.04,0.84473,1.7996
17.64,-0.11588,0.084555,1.0498,0.83984,1.7713
17.648,-0.11362,0.089932,1.0449,0.83008,1.74
17.656,-0.11136,0.079668,1.0547,0.83984,1.7116
17.664,-0.10835,0.069892,1.0449,0.8501,1.6852
17.672,-0.10609,0.049853,1.02,0.85986,1.6608
17.68,-0.10384,0.01955,1,0.86475,1.6383
17.688,-0.10158,-0.0053763,0.97998,0.88477,1.6158
17.696,-0.099323,-0.030303,0.95508,0.89502,1.5934
17.704,-0.096313,-0.050342,0.94971,0.90479,1.5699
17.712,-0.093303,-0.05523,0.94482,0.91504,1.5513
17.72,-0.090293,-0.05523,0.93994,0.91504,1.5357
17.728,-0.087284,-0.065494,0.94482,0.91992,1.5171
17.736,-0.085026,-0.070381,0.93506,0.91992,1.4976
17.744,-0.082017,-0.070381,0.93506,0.91992,1.479
17.752,-0.080512,-0.075269,0.94482,0.9248,1.4614
17.76,-0.079007,-0.09042,0.99512,0.92969,1.4448
17.768,-0.077502,0.054741,1,0.83984,1.4272
17.776,-0.075997,0.43988,0.81006,0.62012,1.4096
17.784,-0.074492,0.93548,0.7002,0.35986,1.3939
17.792,-0.072987,0.565,0.79492,0.6001,1.3812
17.8,-0.071482,-0.34555,0.99512,1.1147,1.3695
17.808,-0.069225,-0.50049,0.91504,1.2446,1.3617
17.816,-0.06772,-0.50049,0.7749,1.25,1.3568
17.824,-0.065463,-0.50049,0.73486,1.165,1.349
17.832,-0.063958,-0.41544,0.75977,1.1099,1.3402
17.84,-0.062453,-0.32551,0.77979,1.0449,1.3304
17.848,-0.061701,-0.24536,0.82471,1,1.3206
17.856,-0.060948,-0.15543,0.87988,0.95996,1.3099
17.864,-0.060196,-0.085533,0.92969,0.9248,1.2991
17.872,-0.058691,-0.050342,0.94971,0.90479,1.2884
17.88,-0.057186,-0.040567,0.94971,0.89502,1.2786
17.888,-0.055681,-0.025415,0.95996,0.89014,1.2678
17.896,-0.054929,-0.015152,0.96484,0.89014,1.2571
17.904,-0.054176,-0.010264,0.96484,0.88477,1.2463
17.912,-0.054176,-0.015152,0.96484,0.88477,1.26
17.92,-0.053424,-0.010264,0.96484,0.88477,1.2854
17.928,-0.054176,-0.0053763,0.96484,0.88477,1.2942
17.936,-0.054176,-0.0053763,0.96484,0.87988,1.2952
17.944,-0.054929,-0.0053763,0.96484,0.88477,1.2933
17.952,-0.055681,-0.010264,0.96484,0.88477,1.2903
17.96,-0.056433,-0.0053763,0.95996,0.88477,1.2874
17.968,-0.057186,-0.0053763,0.9751,0.87988,1.2854
17.976,-0.057938,-0.00048876,0.9751,0.875,1.2815
17.984,-0.058691,-0.00048876,0.9751,0.875,1.2776
17.992,-0.059443,0.0097752,0.9751,0.875,1.2737
18,-0.060196,0.0097752,0.9751,0.875,1.2698
18.008,-0.060948,0.014663,0.9751,0.87012,1.2688
18.016,-0.061701,0.01955,0.9751,0.86475,1.2708
18.024,-0.061701,0.024438,0.9751,0.86475,1.2717
18.032,-0.061701,0.01955,0.98975,0.85986,1.2727
18.04,-0.061701,0.039589,0.98975,0.8501,1.2737
18.048,-0.060948,0.039589,0.99512,0.85498,1.2737
18.056,-0.060196,0.044477,1,0.84473,1.2737
18.064,-0.059443,0.054741,1.0049,0.83984,1.2727
18.072,-0.058691,0.064516,1.0098,0.83496,1.2727
18.08,-0.057938,0.069892,1.0146,0.83496,1.2708
18.088,-0.057186,0.069892,1.0249,0.83008,1.2688
18.096,-0.055681,0.064516,1.02,0.83496,1.2678
18.104,-0.054176,0.059629,1.0347,0.83008,1.2678
18.112,-0.052671,0.044477,1.04,0.84473,1.2698
18.12,-0.051166,0.034702,1.0449,0.8501,1.2737
18.128,-0.049661,0.014663,1.0449,0.86475,1.2776
18.136,-0.048157,-0.00048876,1.0449,0.87012,1.2796
18.144,-0.046652,-0.025415,1.0449,0.89014,1.2786
18.152,-0.045899,-0.030303,1.0298,0.89014,1.2776
18.16,-0.044394,-0.040567,1.0249,0.8999,1.2766
18.168,-0.043642,-0.035191,1.02,0.8999,1.2757
18.176,-0.042889,-0.030303,1.0098,0.8999,1.2737
18.184,-0.042137,-0.025415,1.0049,0.89502,1.2727
18.192,-0.041384,-0.025415,0.99512,0.89502,1.2727
18.2,-0.040632,-0.020528,0.98975,0.89502,1.2727
18.208,-0.039127,-0.020528,0.98486,0.89502,1.2757
18.216,-0.038375,-0.015152,0.98486,0.89502,1.2796
18.224,-0.037622,-0.025415,0.97998,0.8999,1.2815
18.232,-0.03687,-0.025415,0.98975,0.90479,1.2825
18.24,-0.036117,-0.025415,0.98486,0.90479,1.2815
18.248,-0.035365,-0.025415,0.98486,0.90479,1.2815
18.256,-0.034612,-0.025415,0.98486,0.8999,1.2796
18.264,-0.03386,-0.030303,0.98975,0.90479,1.2776
18.272,-0.033108,-0.025415,0.98975,0.90479,1.2766
18.28,-0.031603,-0.030303,0.98486,0.90479,1.2757
18.288,-0.030098,-0.025415,0.98486,0.90479,1.2737
18.296,-0.028593,-0.025415,0.98486,0.89502,1.2717
18.304,-0.027088,-0.020528,0.97998,0.89014,1.2688
18.312,-0.026336,-0.020528,0.97998,0.89014,1.2678
18.32,-0.025583,-0.010264,0.98486,0.89014,1.2688
18.328,-0.024831,-0.010264,0.9751,0.89014,1.2688
18.336,-0.024078,-0.00048876,0.97998,0.88477,1.2727
18.344,-0.023326,-0.0053763,0.98486,0.89014,1.2796
18.352,-0.022573,-0.00048876,0.97998,0.88477,1.2942
18.36,-0.021821,-0.00048876,0.9751,0.89014,1.3226
18.368,-0.021068,-0.00048876,0.97998,0.89014,1.3675
18.376,-0.020316,-0.0053763,0.9751,0.89014,1.4291
18.384,-0.019564,-0.0053763,0.97998,0.89014,1.5064
18.392,-0.018811,-0.0053763,0.97998,0.89014,1.6002
18.4,-0.018059,-0.010264,0.9751,0.89014,1.7077
18.408,-0.018059,-0.010264,0.9751,0.89014,1.8104
18.416,-0.018059,-0.015152,0.97998,0.89014,1.914
18.424,-0.018059,-0.015152,0.98486,0.89014,2.0362
18.432,-0.018059,-0.015152,0.9751,0.89014,2.1652
18.44,-0.018059,-0.020528,0.98486,0.89014,2.2913
18.448,-0.018059,-0.020528,0.98486,0.89502,2.4106
18.456,-0.018059,-0.020528,0.98486,0.89502,2.5181
18.464,-0.018059,-0.020528,0.98486,0.89502,2.6129
18.472,-0.018811,-0.025415,0.97998,0.8999,2.6911
18.48,-0.018811,-0.025415,0.97998,0.89502,2.7527
18.488,-0.019564,-0.025415,0.98486,0.8999,2.7986
18.496,-0.020316,-0.025415,0.98486,0.8999,2.8309
18.504,-0.021068,-0.025415,0.98975,0.89502,2.8475
18.512,-0.021821,-0.030303,0.98486,0.90479,2.8524
18.52,-0.023326,-0.025415,0.98486,0.8999,2.8534
18.528,-0.024831,-0.030303,0.98486,0.90479,2.8495
18.536,-0.026336,-0.030303,0.98486,0.90479,2.8416
18.544,-0.02784,-0.030303,0.98486,0.90479,2.8289
18.552,-0.029345,-0.025415,0.97998,0.8999,2.8133
18.56,-0.030098,-0.025415,0.98975,0.8999,2.8006
18.568,-0.032355,-0.025415,0.98486,0.8999,2.7898
18.576,-0.03386,-0.030303,0.98486,0.90479,2.7801
18.584,-0.03687,-0.025415,0.98975,0.8999,2.7703
18.592,-0.03988,-0.025415,0.98486,0.90479,2.7625
18.6,-0.043642,-0.025415,0.98486,0.8999,2.7566
18.608,-0.046652,-0.025415,0.97998,0.8999,2.7488
18.616,-0.050414,-0.025415,0.98486,0.89502,2.74
18.624,-0.054176,-0.025415,0.97998,0.89502,2.7322
18.632,-0.057938,-0.025415,0.97998,0.89502,2.7243
18.64,-0.061701,-0.025415,0.97998,0.89502,2.7155
18.648,-0.065463,-0.025415,0.9751,0.89502,2.7038
18.656,-0.069225,-0.025415,0.97998,0.8999,2.6862
18.664,-0.072235,-0.025415,0.9751,0.89502,2.6637
18.672,-0.075245,-0.025415,0.9751,0.89502,2.6373
18.68,-0.078254,-0.025415,0.9751,0.8999,2.608
18.688,-0.081264,-0.025415,0.9751,0.89502,2.5748
18.696,-0.084274,-0.025415,0.9751,0.89502,2.5396
18.704,-0.087284,-0.025415,0.9751,0.8999,2.5064
18.712,-0.090293,-0.030303,0.9751,0.90479,2.4741
18.72,-0.093303,-0.030303,0.9751,0.8999,2.4409
18.728,-0.096313,-0.030303,0.9751,0.8999,2.4086
18.736,-0.099323,-0.030303,0.9751,0.89502,2.3803
18.744,-0.10233,-0.035191,0.96973,0.90479,2.3558
18.752,-0.10534,-0.025415,0.9751,0.89502,2.3343
18.76,-0.1091,-0.0053763,0.98975,0.88477,2.3167
18.768,-0.11287,0.014663,1.0098,0.86475,2.3021
18.776,-0.11663,0.034702,1.0249,0.85986,2.2884
18.784,-0.12039,0.064516,1.0449,0.8501,2.2757
18.792,-0.12491,0.089932,1.0547,0.83984,2.2649
18.8,-0.12942,0.099707,1.0601,0.83008,2.2551
18.808,-0.13394,0.10948,1.0649,0.81982,2.2454
18.816,-0.13845,0.07478,1.0449,0.83984,2.2366
18.824,-0.14296,0.054741,1.02,0.85498,2.2278
18.832,-0.14748,0.024438,1.0049,0.87012,2.219
18.84,-0.15199,-0.00048876,0.98486,0.88477,2.2082
18.848,-0.15651,-0.035191,0.95996,0.8999,2.1945
18.856,-0.16102,-0.050342,0.94971,0.90967,2.1789
18.864,-0.16554,-0.05523,0.94971,0.91504,2.1613
18.872,-0.1693,-0.05523,0.94971,0.91504,2.1427
18.88,-0.17306,-0.05523,0.94482,0.91992,2.1232
18.888,-0.17758,-0.065494,0.93994,0.91992,2.1046
18.896,-0.18134,-0.065494,0.93994,0.91504,2.087
18.904,-0.18585,-0.070381,0.94971,0.91992,2.0694
18.912,-0.19037,-0.095308,1.0049,0.93506,2.0518
18.92,-0.19413,-0.00048876,1.02,0.87988,2.0313
18.928,-0.19789,0.35484,0.89014,0.66992,2.0078
18.936,-0.20166,0.91007,0.73975,0.37988,1.9834
18.944,-0.20542,1.0806,0.7002,0.29492,1.9589
18.952,-0.20918,-0.1002,0.88477,0.96973,1.9365
18.96,-0.21219,-0.50049,0.90479,1.2446,1.914
18.968,-0.2152,-0.50049,0.70996,1.27,1.8915
18.976,-0.21821,-0.50049,0.68994,1.1948,1.8719
18.984,-0.22122,-0.4609,0.73486,1.1348,1.8543
18.992,-0.22348,-0.34066,0.77979,1.0547,1.8387
19,-0.22573,-0.25073,0.84473,1.0049,1.8221
19.008,-0.22724,-0.15543,0.90479,0.96484,1.8084
19.016,-0.22874,-0.085533,0.94971,0.92969,1.7957
19.024,-0.23025,-0.05523,0.96973,0.91504,1.781
19.032,-0.23175,-0.040567,0.9751,0.8999,1.7644
19.04,-0.23326,-0.025415,0.9751,0.8999,1.7478
19.048,-0.23476,-0.020528,0.9751,0.89014,1.7302
19.056,-0.23627,-0.010264,0.97998,0.89014,1.7126
19.064,-0.23853,-0.015152,0.97998,0.89014,1.696
19.072,-0.24003,-0.010264,0.98486,0.89014,1.6804
19.08,-0.24229,-0.010264,0.98486,0.89014,1.6657
19.088,-0.24454,-0.010264,0.98975,0.89014,1.654
19.096,-0.2468,-0.0053763,0.98486,0.89014,1.6432
19.104,-0.24906,-0.0053763,0.98486,0.88477,1.6344
19.112,-0.25132,-0.0053763,0.98975,0.89014,1.6276
19.12,-0.25357,-0.00048876,0.98975,0.88477,1.6197
19.128,-0.25583,-0.00048876,0.98975,0.88477,1.6119
19.136,-0.25809,0.0043988,0.99512,0.87988,1.6031
19.144,-0.2611,0.0043988,0.99512,0.875,1.5943
19.152,-0.26411,0.0043988,1,0.875,1.5846
19.16,-0.26712,0.0097752,1,0.875,1.5748
19.168,-0.27013,0.01955,1,0.86475,1.564
19.176,-0.27314,0.024438,1,0.86475,1.5523
19.184,-0.2754,0.039589,1.0049,0.85986,1.5406
19.192,-0.2769,0.044477,1.0049,0.85498,1.5298
19.2,-0.2784,0.054741,1.0098,0.83984,1.52
19.208,-0.27991,0.064516,1.0146,0.83984,1.5152
19.216,-0.28141,0.069892,1.02,0.83008,1.5122
19.224,-0.28367,0.084555,1.02,0.83008,1.5064
19.232,-0.28518,0.089932,1.02,0.81982,1.4985
19.24,-0.28668,0.094819,1.0249,0.81494,1.4888
19.248,-0.28819,0.099707,1.0347,0.81982,1.477
19.256,-0.28894,0.10948,1.04,0.81494,1.4653
19.264,-0.28969,0.10459,1.0449,0.81494,1.4536
19.272,-0.2912,0.089932,1.0449,0.81982,1.4448
19.28,-0.29195,0.079668,1.0498,0.83008,1.4379
19.288,-0.29345,0.064516,1.0449,0.83984,1.434
19.296,-0.29496,0.044477,1.0449,0.85498,1.4321
19.304,-0.29571,0.039589,1.04,0.86475,1.4311
19.312,-0.29646,0.01955,1.0249,0.87012,1.4291
19.32,-0.29722,0.014663,1.02,0.875,1.4262
19.328,-0.29797,-0.00048876,1.0098,0.88477,1.4223
19.336,-0.29872,-0.010264,1,0.89014,1.4164
19.344,-0.29947,-0.025415,1,0.89502,1.4106
19.352,-0.30023,-0.025415,1,0.8999,1.4057
19.36,-0.30098,-0.035191,1,0.90967,1.4008
19.368,-0.30248,-0.040567,1,0.91504,1.3959
19.376,-0.30399,-0.050342,0.98486,0.91504,1.392
19.384,-0.30549,-0.05523,1,0.91504,1.3871
19.392,-0.307,-0.060606,1,0.91992,1.3822
19.4,-0.30775,-0.065494,1,0.91992,1.3754
19.408,-0.3085,-0.060606,1,0.91992,1.3705
19.416,-0.30926,-0.070381,1,0.9248,1.3666
19.424,-0.30926,-0.065494,1,0.9248,1.3607
19.432,-0.30926,-0.060606,1,0.91992,1.3529
19.44,-0.3085,-0.05523,1,0.91992,1.3451
19.448,-0.30775,-0.05523,1,0.91504,1.3363
19.456,-0.307,-0.050342,1,0.91504,1.3294
19.464,-0.30549,-0.050342,0.99512,0.90967,1.3245
19.472,-0.30399,-0.050342,0.98486,0.90967,1.3226
19.48,-0.30248,-0.040567,0.98975,0.90479,1.3226
19.488,-0.30098,-0.035191,1,0.90479,1.3265
19.496,-0.29947,-0.030303,0.98975,0.90479,1.3372
19.504,-0.29797,-0.025415,0.98975,0.8999,1.3548
19.512,-0.29646,-0.025415,0.98486,0.90479,1.3812
19.52,-0.29496,-0.025415,0.98975,0.8999,1.4213
19.528,-0.29421,-0.025415,0.98975,0.8999,1.479
19.536,-0.29345,-0.025415,0.98975,0.8999,1.5552
19.544,-0.2927,-0.030303,0.98486,0.90479,1.652
19.552,-0.29195,-0.025415,0.98975,0.90479,1.7644
19.56,-0.2912,-0.030303,0.98975,0.90479,1.8886
19.568,-0.29044,-0.035191,0.98486,0.90479,2.0205
19.576,-0.28969,-0.040567,0.97998,0.90479,2.1544
19.584,-0.28894,-0.035191,0.98975,0.90479,2.2845
19.592,-0.28819,-0.040567,0.98975,0.91504,2.4047
19.6,-0.28743,-0.040567,0.98975,0.91504,2.5122
19.608,-0.28743,-0.045455,0.98975,0.91504,2.5934
19.616,-0.28668,-0.050342,0.98486,0.91504,2.6569
19.624,-0.28743,-0.045455,0.97998,0.91504,2.7155
19.632,-0.28819,-0.045455,0.98486,0.90967,2.7644
19.64,-0.28969,-0.045455,0.98486,0.90967,2.8045
19.648,-0.2912,-0.045455,0.98486,0.90967,2.8358
19.656,-0.2927,-0.045455,0.98486,0.90967,2.8573
19.664,-0.29345,-0.045455,0.97998,0.90967,2.8719
19.672,-0.29421,-0.050342,0.9751,0.90967,2.8807
19.68,-0.29496,-0.050342,0.98486,0.91504,2.8856
19.688,-0.29646,-0.045455,0.98975,0.91504,2.8856
19.696,-0.29797,-0.040567,0.98486,0.91504,2.8856
19.704,-0.30023,-0.045455,0.98486,0.91504,2.8827
19.712,-0.30248,-0.045455,0.98975,0.90967,2.8778
19.72,-0.30474,-0.045455,0.98486,0.90479,2.8778
19.728,-0.307,-0.045455,0.98486,0.90967,2.8798
19.736,-0.31001,-0.040567,0.98486,0.90479,2.8847
19.744,-0.31302,-0.045455,0.98486,0.90967,2.8935
19.752,-0.31527,-0.040567,0.98975,0.90479,2.9032
19.76,-0.31753,-0.045455,0.97998,0.90967,2.913
19.768,-0.31979,-0.040567,0.98486,0.90967,2.9208
19.776,-0.32205,-0.040567,0.97998,0.90967,2.9267
19.784,-0.3243,-0.040567,0.9751,0.90967,2.9296
19.792,-0.32656,-0.040567,0.98975,0.90967,2.9296
19.8,-0.32957,-0.035191,0.98975,0.90967,2.9257
19.808,-0.33183,-0.045455,0.98975,0.90479,2.9169
19.816,-0.33409,-0.035191,0.98975,0.90967,2.9022
19.824,-0.33559,-0.030303,0.98486,0.90479,2.8837
19.832,-0.3371,-0.030303,0.98975,0.90967,2.8592
19.84,-0.33785,-0.030303,0.98486,0.90967,2.8289
19.848,-0.33935,-0.030303,0.98975,0.90479,2.7928
19.856,-0.34011,-0.030303,0.98975,0.90967,2.7507
19.864,-0.34161,-0.035191,0.98975,0.90967,2.7048
19.872,-0.34236,-0.035191,0.97998,0.90967,2.6579
19.88,-0.34312,-0.035191,0.98975,0.90967,2.61
19.888,-0.34387,-0.030303,0.98486,0.90967,2.563
19.896,-0.34537,-0.035191,0.98486,0.90967,2.5181
19.904,-0.34612,-0.035191,0.98486,0.90479,2.477
19.912,-0.34688,-0.040567,0.98486,0.90967,2.4389
19.92,-0.34763,-0.035191,0.98486,0.90967,2.4018
19.928,-0.34763,-0.035191,0.98486,0.90967,2.3685
19.936,-0.34763,-0.030303,0.98975,0.90479,2.3372
19.944,-0.34763,-0.030303,0.98486,0.90967,2.3099
19.952,-0.34763,-0.030303,0.98975,0.90479,2.2854
19.96,-0.34688,-0.030303,0.98486,0.90967,2.2483
19.968,-0.34612,-0.030303,0.98486,0.90479,2.2082
19.976,-0.34537,-0.0053763,1,0.89014,2.1828
19.984,-0.34462,0.01955,1.0146,0.87012,2.1652
19.992,-0.34387,0.039589,1.0347,0.86475,2.1505
20,-0.34312,0.059629,1.0498,0.8501,2.1378
20.008,-0.34236,0.084555,1.0698,0.83984,2.1251
20.016,-0.34161,0.089932,1.0698,0.83008,2.1114
20.024,-0.34086,0.099707,1.0747,0.82471,2.0948
20.032,-0.34011,0.07478,1.0649,0.83984,2.0762
20.04,-0.33935,0.059629,1.0449,0.84473,2.0567
20.048,-0.3386,0.039589,1.0298,0.85986,2.0362
20.056,-0.33785,0.0097752,1.0098,0.87988,2.0147
20.064,-0.3371,-0.025415,0.98486,0.8999,1.9902
20.072,-0.33634,-0.040567,0.9751,0.90479,1.9638
20.08,-0.33559,-0.050342,0.96973,0.90967,1.9335
20.088,-0.33484,-0.050342,0.96484,0.91504,1.9013
20.096,-0.33409,-0.05523,0.95996,0.91504,1.87
20.104,-0.33333,-0.065494,0.94971,0.91504,1.8426
20.112,-0.33183,-0.075269,0.94482,0.9248,1.8172
20.12,-0.33108,-0.080645,0.94971,0.92969,1.7879
20.128,-0.33032,-0.095308,1,0.93994,1.7576
20.136,-0.32957,-0.040567,1.0249,0.8999,1.7283
20.144,-0.32882,0.26491,0.9248,0.7251,1.7009
20.152,-0.32807,0.79521,0.77002,0.43018,1.6745
20.16,-0.32731,1.0205,0.72998,0.31982,1.6481
20.168,-0.32656,0.029814,0.8999,0.90479,1.6217
20.176,-0.32581,-0.50049,0.94482,1.23,1.5953
20.184,-0.32506,-0.50049,0.75977,1.2646,1.5689
20.192,-0.3243,-0.50049,0.71484,1.2046,1.5445
20.2,-0.32355,-0.47556,0.75,1.1499,1.5249
20.208,-0.3228,-0.36559,0.78516,1.0747,1.5093
20.216,-0.32205,-0.26051,0.83984,1.0146,1.4907
20.224,-0.32129,-0.18035,0.89014,0.9751,1.4712
20.232,-0.32054,-0.095308,0.94971,0.92969,1.4506
20.24,-0.31979,-0.060606,0.9751,0.91504,1.4301
20.248,-0.31904,-0.045455,0.97998,0.90479,1.4106
20.256,-0.31828,-0.035191,0.98975,0.8999,1.392
20.264,-0.31753,-0.025415,0.98975,0.89502,1.3734
20.272,-0.31678,-0.025415,0.98975,0.89502,1.3568
20.28,-0.31603,-0.025415,0.98975,0.89014,1.3421
20.288,-0.31527,-0.020528,0.99512,0.89014,1.3275
20.296,-0.31452,-0.020528,0.98975,0.89014,1.3148
20.304,-0.31377,-0.020528,0.98975,0.89014,1.3069
20.312,-0.31302,-0.020528,0.98975,0.89014,1.3001
20.32,-0.31226,-0.015152,0.99512,0.89014,1.2913
20.328,-0.31302,-0.010264,0.98975,0.88477,1.2825
20.336,-0.31302,-0.010264,0.99512,0.89014,1.2717
20.344,-0.31377,-0.010264,0.99512,0.88477,1.2581
20.352,-0.31452,-0.0053763,0.99512,0.88477,1.2444
20.36,-0.31527,-0.00048876,1,0.87988,1.2317
20.368,-0.31603,0.0043988,1,0.875,1.218
20.376,-0.31678,0.0097752,1,0.875,1.2063
20.384,-0.31678,0.0043988,1.0049,0.87012,1.1965
20.392,-0.31753,0.014663,1.0049,0.86475,1.1887
20.4,-0.31828,0.024438,1.0049,0.85986,1.1848
20.408,-0.31904,0.029814,1.0098,0.85986,1.1828
20.416,-0.31979,0.039589,1.0049,0.85498,1.1789
20.424,-0.31979,0.044477,1.0146,0.84473,1.173
20.432,-0.31979,0.059629,1.02,0.83496,1.1662
20.44,-0.31904,0.069892,1.02,0.83008,1.1593
20.448,-0.31828,0.07478,1.0298,0.82471,1.1505
20.456,-0.31753,0.079668,1.0347,0.82471,1.1427
20.464,-0.31678,0.084555,1.04,0.81982,1.1359
20.472,-0.31603,0.089932,1.0449,0.81982,1.1281
20.48,-0.31527,0.079668,1.0498,0.81982,1.1222
20.488,-0.31452,0.07478,1.0547,0.83008,1.1193
20.496,-0.31377,0.069892,1.0601,0.83984,1.1144
20.504,-0.31302,0.054741,1.0547,0.84473,1.1124
20.512,-0.31226,0.034702,1.0498,0.85498,1.1114
20.52,-0.31151,0.01955,1.0449,0.87012,1.1056
20.528,-0.31076,0.0043988,1.0347,0.87988,1.0978
20.536,-0.31001,-0.00048876,1.0298,0.88477,1.088
20.544,-0.30926,-0.0053763,1.02,0.89014,1.0782
20.552,-0.3085,-0.015152,1.0098,0.89014,1.0684
20.56,-0.30775,-0.015152,1.0049,0.89502,1.0577
20.568,-0.307,-0.025415,1.0049,0.8999,1.0489
20.576,-0.30625,-0.020528,0.99512,0.90479,1.042
