Time [s], PLETH, RESP, II, V, AVR, CVP
0,2.0362,0.14488,0.49512,0.24487,0.47021,4.181
0.008,2.0811,0.14977,0.49512,0.41496,0.47998,4.4936
0.016,2.1202,0.15465,0.3999,0.64027,0.46484,4.562
0.024,2.1525,0.16003,0.33008,0.68524,0.41016,4.562
0.032,2.1818,0.16565,0.55518,0.3651,0.31494,4.7476
0.04,2.2053,0.17176,0.73486,0.11975,0.25,5.1188
0.048,2.2209,0.17786,0.75,0.034702,0.34521,5.4314
0.056,2.2336,0.18373,0.69482,0.38514,0.56494,5.3728
0.064,2.2424,0.18959,0.41016,0.71017,0.83008,4.8746
0.072,2.2444,0.19546,0.10986,0.81036,1.04,4.181
0.08,2.2405,0.20132,-0.064941,0.88514,1.125,3.7512
0.088,2.2346,0.20718,0.1499,0.65005,0.84473,3.6828
0.096,2.2248,0.21329,0.4502,0.37977,0.56494,3.8684
0.104,2.2121,0.2194,0.58008,0.29472,0.44482,4.1224
0.112,2.1945,0.22575,0.62012,0.21457,0.37988,4.181
0.12,2.173,0.23113,0.59521,0.12952,0.33496,4.0638
0.128,2.1496,0.2365,0.62012,0.099707,0.29004,3.7512
0.136,2.1222,0.24139,0.66016,0.10948,0.26025,3.5558
0.144,2.089,0.24627,0.66016,0.12463,0.26514,3.5558
0.152,2.0528,0.2514,0.64014,0.12463,0.30029,3.8098
0.16,2.0176,0.25678,0.63477,0.1349,0.31494,3.9368
0.168,1.9873,0.2624,0.64502,0.14956,0.30029,3.8684
0.176,1.9638,0.26826,0.64014,0.17498,0.33008,3.4972
0.184,1.9433,0.27437,0.62012,0.1696,0.35498,3.126
0.192,1.9247,0.28048,0.625,0.17986,0.34521,2.872
0.2,1.9022,0.28659,0.62012,0.1696,0.35986,2.9306
0.208,1.8778,0.29294,0.68506,0.18475,0.28516,2.872
0.216,1.8524,0.29783,0.62988,0.18964,0.3501,2.3054
0.224,1.827,0.30271,0.62012,0.13978,0.31982,1.309
0.232,1.8055,0.30638,0.62988,0.094819,0.28027,0.49821
0.24,1.7889,0.31029,0.61475,0.079668,0.2749,0.3126
0.248,1.7761,0.31346,0.61475,0.07478,0.26025,0.6252
0.256,1.7654,0.31688,0.625,0.099707,0.27002,0.86942
0.264,1.7556,0.31981,0.64014,0.10948,0.25,0.68381
0.272,1.7488,0.32299,0.63477,0.10948,0.23486,0.058613
0.28,1.7429,0.32568,0.70508,0.11975,0.16992,-0.69358
0.288,1.7361,0.32861,0.73486,0.11975,0.14014,-1.1918
0.296,1.7263,0.3313,0.63477,0.1349,0.22998,-1.3188
0.304,1.7146,0.33398,0.62012,0.12952,0.24512,-1.0062
0.312,1.7028,0.33643,0.62012,0.1696,0.24023,-0.43959
0.32,1.6882,0.33912,0.6001,0.19501,0.28516,0.11723
0.328,1.6745,0.34156,0.62012,0.25464,0.30029,0.49821
0.336,1.6628,0.34425,0.63477,0.26979,0.31494,0.68381
0.344,1.651,0.34718,0.7002,0.29472,0.25,0.81081
0.352,1.6383,0.35035,0.72998,0.31476,0.21484,0.9378
0.36,1.6256,0.35353,0.58984,0.24976,0.38525,1.055
0.368,1.608,0.35695,0.54004,0.23998,0.45508,1.182
0.376,1.5934,0.35988,0.50977,0.26002,0.50488,1.3676
0.384,1.5816,0.36306,0.54004,0.30499,0.51514,1.4946
0.392,1.567,0.36575,0.58008,0.30987,0.43018,1.6216
0.4,1.5513,0.36868,0.60986,0.26002,0.35498,1.8072
0.408,1.5367,0.37063,0.6001,0.21457,0.33496,1.9928
0.416,1.523,0.37283,0.6499,0.24976,0.31006,2.3054
0.424,1.5093,0.3743,0.72998,0.28983,0.24023,2.618
0.432,1.5005,0.37576,0.68506,0.27468,0.28516,3.126
0.44,1.4936,0.37625,0.5752,0.2346,0.41016,3.6828
0.448,1.4858,0.37699,0.5249,0.19501,0.45508,4.308
0.456,1.48,0.37674,0.51514,0.16471,0.44482,4.6206
0.464,1.477,0.3765,0.5498,0.18964,0.41992,4.562
0.472,1.478,0.37552,0.58984,0.1999,0.36523,4.308
0.48,1.478,0.37479,0.60986,0.18964,0.33496,4.2494
0.488,1.4761,0.37332,0.60498,0.20479,0.33496,4.689
0.496,1.4751,0.3721,0.61475,0.24976,0.39014,5.3728
0.504,1.4702,0.3699,0.6499,0.28495,0.40479,5.998
0.512,1.4643,0.36795,0.66992,0.28495,0.3252,6.3692
0.52,1.4565,0.36526,0.64014,0.26491,0.31982,6.4376
0.528,1.4487,0.36257,0.61475,0.24487,0.34521,6.3106
0.536,1.4448,0.36013,0.62012,0.26491,0.33984,6.125
0.544,1.4428,0.35793,0.6001,0.25464,0.33496,6.0566
0.552,1.4457,0.35597,0.59521,0.24976,0.37988,6.0566
0.56,1.4585,0.35426,0.64502,0.23998,0.33984,6.1836
0.568,1.48,0.3528,0.62988,0.23998,0.35498,6.3692
0.576,1.5054,0.35158,0.625,0.22483,0.3501,6.6818
0.584,1.5376,0.35035,0.62012,0.23998,0.36523,6.9358
0.592,1.5816,0.34938,0.63477,0.24976,0.35986,6.9944
0.6,1.6344,0.3484,0.59521,0.26002,0.3999,6.9358
0.608,1.6901,0.34742,0.58496,0.26491,0.41992,6.8674
0.616,1.7498,0.34669,0.58984,0.22972,0.39014,7.18
0.624,1.8143,0.3462,0.5752,0.23998,0.37988,7.8736
0.632,1.8817,0.34669,0.58008,0.22483,0.375,8.6844
0.64,1.9472,0.34718,0.5752,0.21457,0.36523,9.5636
0.648,2.0078,0.3484,0.56494,0.22972,0.38525,10.306
0.656,2.0626,0.34987,0.56982,0.21457,0.40479,10.873
0.664,2.1114,0.35158,0.56494,0.29472,0.4502,11.312
0.672,2.1505,0.35329,0.50977,0.40469,0.47998,11.556
0.68,2.1857,0.355,0.33496,0.58993,0.5498,11.683
0.688,2.2199,0.35695,0.26025,0.6652,0.47021,11.625
0.696,2.2502,0.35891,0.45996,0.42473,0.31494,11.683
0.704,2.2766,0.36086,0.64502,0.15982,0.30029,11.81
0.712,2.2942,0.36281,0.73975,0.0097752,0.25488,11.996
0.72,2.303,0.36501,0.75977,0.28495,0.43994,12.064
0.728,2.3069,0.36746,0.47021,0.66031,0.71973,11.937
0.736,2.3069,0.37014,0.16992,0.83529,1,11.81
0.744,2.3021,0.37308,-0.034668,0.96041,1.165,11.752
0.752,2.2952,0.37601,0.16504,0.77028,0.92969,11.752
0.76,2.2874,0.3787,0.44482,0.41496,0.56982,11.625
0.768,2.2776,0.38163,0.62012,0.2346,0.31982,11.244
0.776,2.2639,0.38431,0.65479,0.1696,0.27002,10.814
0.784,2.2463,0.387,0.62988,0.14956,0.30029,10.374
0.792,2.2229,0.38993,0.66992,0.16471,0.26514,9.9935
0.8,2.1916,0.39311,0.66504,0.17498,0.28516,9.8762
0.808,2.1544,0.39653,0.63477,0.16471,0.33984,9.9348
0.816,2.1183,0.39995,0.60498,0.20479,0.41016,10.062
0.824,2.087,0.40313,0.61475,0.22483,0.43018,10.12
0.832,2.0606,0.4063,0.63477,0.22972,0.35986,10.062
0.84,2.0303,0.40924,0.66504,0.15494,0.25,9.8078
0.848,2.002,0.41217,0.6748,0.11486,0.21484,9.8078
0.856,1.9834,0.41534,0.66016,0.13978,0.25,10.247
0.864,1.9638,0.41876,0.66504,0.16471,0.26025,11
0.872,1.9453,0.42218,0.66504,0.1696,0.26514,11.498
0.88,1.9296,0.42585,0.66016,0.15494,0.26514,11.185
0.888,1.913,0.42951,0.69482,0.1696,0.23486,10.062
0.896,1.8964,0.43342,0.6748,0.19501,0.28027,8.87
0.904,1.8788,0.43733,0.6499,0.21457,0.33496,8.4305
0.912,1.8622,0.44124,0.68506,0.21457,0.29492,8.997
0.92,1.8446,0.44466,0.68018,0.18475,0.25,9.9348
0.928,1.827,0.44833,0.68994,0.12952,0.18994,10.501
0.936,1.8074,0.45126,0.7002,0.10948,0.16016,10.189
0.944,1.7898,0.45443,0.70508,0.12463,0.15527,9.3683
0.952,1.7771,0.45712,0.68994,0.11975,0.16992,8.7431
0.96,1.7644,0.46005,0.72998,0.1696,0.125,8.6258
0.968,1.7507,0.4625,0.70996,0.20479,0.1499,9.0557
0.976,1.74,0.46518,0.71484,0.21994,0.19531,9.5636
0.984,1.7302,0.46689,0.63477,0.22972,0.28027,9.8078
0.992,1.7214,0.46885,0.62012,0.24487,0.31006,9.6809
1,1.7107,0.47007,0.63477,0.28495,0.31494,9.3683
1.008,1.6979,0.47154,0.65479,0.28983,0.31006,9.3096
1.016,1.6872,0.47227,0.66504,0.29472,0.29492,9.5636
1.024,1.6784,0.47325,0.6748,0.27468,0.29004,10.062
1.032,1.6696,0.47374,0.64014,0.26002,0.33496,10.687
1.04,1.6608,0.47447,0.66992,0.27468,0.30518,11.127
1.048,1.652,0.47471,0.68018,0.28983,0.29004,11.439
1.056,1.6432,0.4752,0.72998,0.30499,0.23486,11.683
1.064,1.6344,0.4752,0.6001,0.26002,0.36523,11.869
1.072,1.6276,0.47545,0.56494,0.24976,0.41504,11.937
1.08,1.6227,0.47545,0.56982,0.24487,0.4248,11.869
1.088,1.6158,0.47545,0.56982,0.26491,0.41992,11.752
1.096,1.608,0.47545,0.6001,0.26979,0.39502,11.625
1.104,1.5992,0.47569,0.63477,0.28006,0.36523,11.625
1.112,1.5904,0.47667,0.64014,0.26979,0.3501,11.869
1.12,1.5816,0.47764,0.64014,0.27468,0.33984,12.309
1.128,1.5738,0.47935,0.64502,0.24487,0.31494,12.875
1.136,1.5679,0.48107,0.63477,0.23998,0.29492,13.119
1.144,1.565,0.48326,0.68018,0.23998,0.26514,13.002
1.152,1.5611,0.48571,0.66504,0.25464,0.2749,12.563
1.16,1.5543,0.48839,0.68994,0.26979,0.26025,12.182
1.168,1.5494,0.49108,0.64502,0.26002,0.31982,12.182
1.176,1.5445,0.49377,0.59521,0.24487,0.375,12.377
1.184,1.5376,0.49646,0.58008,0.29472,0.40479,12.69
1.192,1.5455,0.4989,0.64502,0.32991,0.35986,12.807
1.2,1.5601,0.50159,0.66504,0.34995,0.36523,12.563
1.208,1.565,0.50501,0.66504,0.32502,0.3501,12.182
1.216,1.5699,0.50843,0.66992,0.30499,0.31006,11.869
1.224,1.5806,0.51258,0.68506,0.26002,0.28516,11.752
1.232,1.6041,0.51674,0.68994,0.23998,0.2749,11.937
1.24,1.6422,0.5204,0.625,0.22483,0.33496,12.182
1.248,1.6931,0.52431,0.61475,0.23998,0.34521,12.436
1.256,1.7537,0.52773,0.58984,0.2346,0.37012,12.494
1.264,1.8221,0.53115,0.6001,0.24487,0.375,12.377
1.272,1.8895,0.53457,0.625,0.24976,0.33008,12.309
1.28,1.9541,0.53799,0.6001,0.26491,0.375,12.309
1.288,2.0254,0.54141,0.58984,0.26979,0.39502,12.436
1.296,2.0958,0.54508,0.6001,0.27468,0.38525,12.748
1.304,2.1613,0.54776,0.58496,0.25464,0.37012,13.246
1.312,2.2248,0.55045,0.58496,0.23998,0.38525,13.813
1.32,2.2845,0.55216,0.59521,0.25464,0.37988,14.37
1.328,2.3363,0.55412,0.5498,0.3651,0.4248,14.809
1.336,2.3793,0.55534,0.41504,0.56012,0.49512,15.063
1.344,2.4184,0.5568,0.29492,0.73509,0.50488,15.122
1.352,2.4526,0.55754,0.39502,0.55523,0.34521,15.122
1.36,2.4829,0.55851,0.6001,0.32502,0.31982,15.063
1.368,2.5054,0.559,0.68506,0.11486,0.33984,14.995
1.376,2.523,0.55949,0.7251,0.26491,0.4502,14.809
1.384,2.5425,0.55974,0.51514,0.6349,0.65479,14.438
1.392,2.5611,0.55998,0.18994,0.90029,0.96484,13.872
1.4,2.5748,0.56047,-0.064941,0.98045,1.145,13.305
1.408,2.5816,0.5612,0.16504,0.70528,0.85986,13.002
1.416,2.5806,0.56194,0.4751,0.38514,0.5249,12.934
1.424,2.5709,0.56267,0.61475,0.2346,0.34521,12.934
1.432,2.5582,0.56316,0.68994,0.21457,0.28027,12.934
1.44,2.5425,0.56389,0.70996,0.17498,0.24512,12.69
1.448,2.522,0.56413,0.70508,0.17986,0.25488,12.309
1.456,2.4936,0.56438,0.70996,0.18964,0.26025,12.123
1.464,2.4604,0.56487,0.7251,0.18964,0.22998,12.064
1.472,2.4242,0.5656,0.68018,0.1696,0.29492,12.182
1.48,2.3861,0.56633,0.66504,0.1999,0.33008,12.25
1.488,2.346,0.56731,0.68994,0.20968,0.27002,12.123
1.496,2.306,0.56829,0.68018,0.16471,0.25488,11.869
1.504,2.2708,0.56951,0.71973,0.1999,0.26025,11.683
1.512,2.2395,0.57073,0.73486,0.21457,0.21484,11.752
1.52,2.2111,0.57195,0.68994,0.18475,0.26514,11.996
1.528,2.1838,0.57269,0.6748,0.16471,0.2749,12.436
1.536,2.1574,0.57366,0.72998,0.23998,0.24512,12.436
1.544,2.1329,0.57391,0.66016,0.19501,0.30518,11.937
1.552,2.1124,0.5744,0.70996,0.17986,0.23486,11.185
1.56,2.0938,0.5744,0.75488,0.1999,0.18506,10.687
1.568,2.0772,0.57464,0.66992,0.1696,0.27002,10.746
1.576,2.0626,0.57464,0.65479,0.14467,0.28516,11.312
1.584,2.0469,0.57464,0.66504,0.11486,0.22998,11.869
1.592,2.0303,0.5744,0.69482,0.12952,0.18506,12.064
1.6,2.0137,0.5744,0.70996,0.14467,0.16992,11.683
1.608,1.9961,0.57415,0.73486,0.16471,0.1499,10.931
1.616,1.9785,0.57391,0.75488,0.20479,0.1499,10.306
1.624,1.9609,0.57342,0.75977,0.24487,0.2002,10.247
1.632,1.9433,0.57317,0.73486,0.26002,0.18994,10.619
1.64,1.9267,0.57269,0.72998,0.21994,0.16504,11.185
1.648,1.9091,0.5722,0.72998,0.21994,0.14502,11.498
1.656,1.8915,0.57171,0.70996,0.23998,0.19531,11.498
1.664,1.8759,0.57122,0.71484,0.26979,0.2251,11.244
1.672,1.8641,0.57049,0.66504,0.26491,0.29004,11.058
1.68,1.8514,0.56975,0.66992,0.26002,0.28027,11.185
1.688,1.8397,0.56804,0.68506,0.28495,0.30029,11.498
1.696,1.8289,0.56633,0.64014,0.28983,0.35986,11.937
1.704,1.8192,0.56389,0.63477,0.24976,0.35986,12.25
1.712,1.8104,0.56145,0.61475,0.23998,0.37012,12.377
1.72,1.8016,0.55925,0.60498,0.26491,0.38525,12.436
1.728,1.7928,0.55729,0.63477,0.27468,0.35986,12.494
1.736,1.782,0.55534,0.62012,0.26002,0.37012,12.69
1.744,1.7674,0.55363,0.66016,0.25464,0.31006,13.002
1.752,1.7498,0.55216,0.64014,0.25464,0.33008,13.305
1.76,1.7322,0.5507,0.62012,0.24487,0.33984,13.618
1.768,1.7214,0.54947,0.625,0.26979,0.3501,13.745
1.776,1.7136,0.54825,0.66504,0.27468,0.30029,13.745
1.784,1.7048,0.54825,0.64502,0.26491,0.31494,13.745
1.792,1.696,0.54825,0.65479,0.28495,0.31006,13.686
1.8,1.6901,0.54899,0.64502,0.30987,0.36523,13.618
1.808,1.6843,0.54996,0.62012,0.31476,0.39502,13.432
1.816,1.6774,0.55045,0.64502,0.29472,0.3501,13.188
1.824,1.6696,0.55118,0.66504,0.28983,0.3252,12.934
1.832,1.6618,0.55192,0.65479,0.28983,0.31006,12.807
1.84,1.653,0.55265,0.75488,0.32502,0.20996,12.875
1.848,1.6442,0.55509,0.79492,0.3651,0.18018,13.061
1.856,1.6403,0.55754,0.63477,0.28006,0.35986,13.373
1.864,1.6442,0.5612,0.61475,0.22483,0.35498,13.559
1.872,1.651,0.56511,0.63477,0.21994,0.33008,13.559
1.88,1.6628,0.56902,0.6499,0.26979,0.34521,13.5
1.888,1.6882,0.57317,0.64014,0.28495,0.37012,13.373
1.896,1.7273,0.57757,0.62012,0.26491,0.38525,13.246
1.904,1.7771,0.58197,0.62988,0.25464,0.33984,13.188
1.912,1.8368,0.58759,0.66016,0.2346,0.28027,13.119
1.92,1.9071,0.59345,0.68506,0.2346,0.25,13.188
1.928,1.9824,0.60054,0.64014,0.23998,0.29492,13.373
1.936,2.0567,0.60762,0.58008,0.20968,0.37012,13.686
1.944,2.129,0.6152,0.55518,0.24487,0.41992,13.999
1.952,2.1955,0.62301,0.5498,0.23998,0.43018,14.497
1.96,2.259,0.63059,0.56982,0.26979,0.4248,14.936
1.968,2.3109,0.63841,0.59521,0.29472,0.41016,15.376
1.976,2.3519,0.64476,0.56982,0.32502,0.40479,15.62
1.984,2.3939,0.65136,0.45996,0.45015,0.41992,15.747
1.992,2.437,0.65649,0.33984,0.64516,0.41504,15.874
2,2.478,0.66186,0.31006,0.67009,0.30518,15.933
2.008,2.5152,0.66577,0.60498,0.39492,0.2749,16.001
2.016,2.5513,0.66968,0.68018,0.13978,0.33008,16.001
2.024,2.5826,0.67237,0.73975,0.094819,0.39014,15.933
2.032,2.607,0.67505,0.58008,0.54008,0.60986,15.747
2.04,2.6256,0.67701,0.25488,0.87537,0.92969,15.376
2.048,2.6393,0.67896,-0.034668,1.0205,1.165,14.936
2.056,2.6461,0.67994,-0.044922,0.86022,1.0098,14.555
2.064,2.6452,0.68116,0.41504,0.46481,0.62988,14.184
2.072,2.6403,0.68141,0.6001,0.25464,0.37988,13.999
2.08,2.6315,0.68165,0.66016,0.17986,0.28516,13.745
2.088,2.6188,0.68116,0.6748,0.1349,0.26025,13.432
2.096,2.6031,0.68067,0.68994,0.1349,0.23486,13.119
2.104,2.5846,0.68043,0.70996,0.14956,0.24023,12.934
2.112,2.5601,0.68043,0.6748,0.14467,0.27002,12.934
2.12,2.5308,0.68067,0.66016,0.14467,0.29004,13.061
2.128,2.4985,0.68092,0.68018,0.18475,0.28516,13.188
2.136,2.4624,0.68092,0.66992,0.18964,0.30518,13.188
2.144,2.4252,0.68092,0.6748,0.19501,0.31006,13.002
2.152,2.3871,0.68092,0.68994,0.18475,0.28516,12.875
2.16,2.348,0.68092,0.69482,0.19501,0.27002,12.875
2.168,2.3157,0.68214,0.66504,0.15982,0.29004,13.188
2.176,2.2845,0.68361,0.6748,0.14467,0.23486,13.745
2.184,2.2493,0.68581,0.68994,0.1696,0.24512,14.243
2.192,2.2141,0.68825,0.69482,0.18964,0.26514,14.243
2.2,2.1789,0.6902,0.68018,0.19501,0.24512,13.745
2.208,2.1466,0.6924,0.7251,0.1999,0.20996,13.061
2.216,2.1173,0.69436,0.66992,0.17986,0.28516,12.748
2.224,2.0919,0.69631,0.70508,0.1999,0.24023,12.934
2.232,2.0704,0.699,0.71484,0.13978,0.18018,13.432
2.24,2.0508,0.70169,0.68506,0.12463,0.2002,13.686
2.248,2.0323,0.70486,0.66504,0.11486,0.20996,13.559
2.256,2.0147,0.70804,0.68994,0.11975,0.16992,12.875
2.264,1.9941,0.71121,0.73486,0.17986,0.14502,12.182
2.272,1.9736,0.71439,0.70996,0.20479,0.18994,11.81
2.28,1.9541,0.71732,0.66992,0.1696,0.22021,11.937
2.288,1.9316,0.7205,0.6748,0.19501,0.22998,12.436
2.296,1.9071,0.72245,0.6748,0.20968,0.2251,12.934
2.304,1.8866,0.72441,0.66992,0.23998,0.24512,13.188
2.312,1.8671,0.72538,0.68994,0.28006,0.25488,13.061
2.32,1.8514,0.72661,0.70996,0.29472,0.24023,12.934
2.328,1.8397,0.72685,0.6499,0.26002,0.30029,12.934
2.336,1.827,0.72734,0.62988,0.2346,0.31982,13.188
2.344,1.8123,0.7271,0.64014,0.21994,0.30518,13.559
2.352,1.7977,0.7271,0.62012,0.26491,0.37012,13.93
2.36,1.7859,0.72636,0.62988,0.28006,0.375,14.057
2.368,1.7781,0.72587,0.65479,0.28983,0.33984,13.872
2.376,1.7722,0.72465,0.68506,0.26491,0.30029,13.618
2.384,1.7674,0.72343,0.64014,0.23998,0.33496,13.305
2.392,1.7625,0.7205,0.62012,0.24976,0.33008,13.119
2.4,1.7556,0.71781,0.60498,0.26491,0.35986,13.119
2.408,1.7478,0.71341,0.59521,0.24976,0.375,13.188
2.416,1.74,0.70926,0.62012,0.29472,0.36523,13.305
2.424,1.7292,0.70388,0.62012,0.32991,0.39502,13.432
2.432,1.7155,0.69851,0.66016,0.30987,0.31982,13.559
2.44,1.6999,0.6924,0.66504,0.25464,0.29004,13.559
2.448,1.6833,0.68629,0.63477,0.22483,0.29004,13.246
2.456,1.6686,0.68043,0.61475,0.22483,0.3252,12.748
2.464,1.652,0.67481,0.59521,0.25464,0.35498,12.182
2.472,1.6373,0.66919,0.60498,0.29472,0.37012,11.869
2.48,1.6276,0.66382,0.63477,0.31965,0.35986,11.869
2.488,1.6188,0.65771,0.62012,0.34995,0.41016,11.937
2.496,1.61,0.6516,0.61475,0.38514,0.4248,11.996
2.504,1.6012,0.645,0.6748,0.33969,0.31494,11.81
2.512,1.5943,0.63841,0.7251,0.27468,0.20508,11.498
2.52,1.5934,0.6323,0.7002,0.22483,0.19531,11.058
2.528,1.5992,0.62619,0.60986,0.18964,0.33008,10.746
2.536,1.6178,0.62057,0.58496,0.20968,0.37988,10.687
2.544,1.653,0.6152,0.56006,0.21457,0.41016,10.687
2.552,1.7028,0.60982,0.54492,0.21994,0.40479,10.687
2.56,1.7625,0.60469,0.56494,0.26002,0.40479,10.56
2.568,1.8201,0.5998,0.60498,0.26979,0.35986,10.374
2.576,1.8798,0.59492,0.68506,0.30987,0.30029,10.12
2.584,1.9492,0.58979,0.64502,0.31476,0.34521,10.062
2.592,2.0186,0.58466,0.58984,0.27468,0.41504,10.247
2.6,2.0831,0.57928,0.56982,0.24487,0.41992,10.746
2.608,2.1466,0.57415,0.55518,0.22972,0.3999,11.498
2.616,2.2063,0.56926,0.56006,0.22483,0.39014,12.377
2.624,2.26,0.56438,0.56982,0.25464,0.38525,12.934
2.632,2.3069,0.55974,0.5498,0.34995,0.39502,12.934
2.64,2.347,0.55509,0.41992,0.54497,0.44482,12.377
2.648,2.3803,0.55021,0.30029,0.65005,0.46484,11.371
2.656,2.4057,0.54532,0.43018,0.435,0.33496,10.687
2.664,2.4272,0.54019,0.58984,0.21994,0.35498,10.687
2.672,2.4428,0.53506,0.6748,0.064516,0.33008,11.439
2.68,2.4545,0.52968,0.7002,0.32991,0.48486,12.182
2.688,2.4692,0.52431,0.50977,0.70528,0.71973,12.309
2.696,2.4829,0.51869,0.24023,0.93011,0.98486,11.683
2.704,2.4917,0.51332,0.010254,1.0303,1.1348,10.687
2.712,2.4936,0.50721,-0.0048828,0.78006,0.94482,9.8078
2.72,2.4888,0.5011,0.39014,0.40469,0.60986,9.4366
2.728,2.477,0.49426,0.51514,0.2346,0.4502,9.4366
2.736,2.4604,0.48742,0.58008,0.17498,0.35986,9.6809
2.744,2.437,0.47911,0.63477,0.13978,0.29492,9.5636
2.752,2.4106,0.47105,0.65479,0.1349,0.2749,8.9384
2.76,2.3842,0.46176,0.64014,0.18475,0.34521,7.9322
2.768,2.3597,0.45272,0.6499,0.21994,0.35986,6.9944
2.776,2.3363,0.44368,0.66992,0.1999,0.28516,6.3106
2.784,2.3079,0.43489,0.62988,0.15494,0.30029,5.9296
2.792,2.2717,0.4256,0.60498,0.11486,0.29492,5.6854
2.8,2.2317,0.41656,0.59521,0.11975,0.33008,5.3728
2.808,2.1896,0.40508,0.63477,0.11975,0.28027,5.0016
2.816,2.1515,0.39384,0.6499,0.12952,0.26514,4.7476
2.824,2.1222,0.38065,0.64502,0.1349,0.27002,4.8746
2.832,2.0958,0.3677,0.6499,0.14956,0.2749,5.1872
2.84,2.0723,0.355,0.68994,0.17498,0.26514,5.1872
2.848,2.0469,0.34254,0.69482,0.21457,0.30029,4.689
2.856,2.0215,0.33008,0.625,0.18475,0.35986,3.9954
2.864,2,0.31786,0.58008,0.14956,0.34521,3.3116
2.872,1.9804,0.30418,0.62012,0.12463,0.28027,2.5594
2.88,1.9599,0.29074,0.64014,0.099707,0.25488,1.8072
2.888,1.9326,0.27633,0.62988,0.089932,0.26025,1.1234
2.896,1.9081,0.26191,0.66016,0.084555,0.19531,0.81081
2.904,1.8915,0.24823,0.6748,0.099707,0.18506,0.99641
2.912,1.8719,0.23455,0.68018,0.12952,0.19531,1.3676
2.92,1.8514,0.22184,0.62012,0.12952,0.24023,1.563
2.928,1.8348,0.20914,0.62012,0.15982,0.25,1.182
2.936,1.8201,0.19863,0.6001,0.15494,0.26025,0.37121
2.944,1.8045,0.18813,0.59521,0.18475,0.2749,-0.38098
2.952,1.7898,0.17933,0.68018,0.24976,0.24512,-0.69358
2.96,1.7761,0.17054,0.6499,0.26979,0.2749,-0.43959
2.968,1.7644,0.16223,0.59521,0.23998,0.31982,0.18561
2.976,1.7527,0.15392,0.60498,0.21457,0.31006,0.9378
2.984,1.738,0.14586,0.55518,0.19501,0.375,1.4946
2.992,1.7243,0.13804,0.5752,0.20968,0.36523,1.8072
3,1.7087,0.1312,0.58984,0.24487,0.35986,1.8756
3.008,1.6921,0.1246,0.60498,0.29472,0.375,1.8072
3.016,1.6745,0.11874,0.60986,0.30987,0.43506,1.8756
3.024,1.6598,0.11312,0.5752,0.31476,0.45508,2.0612
3.032,1.6481,0.10774,0.54492,0.24487,0.43018,2.3054
3.04,1.6373,0.10261,0.56494,0.22972,0.40479,2.5594
3.048,1.6276,0.097484,0.58984,0.23998,0.35986,2.6864
3.056,1.6168,0.092597,0.59521,0.1999,0.3501,2.8134
3.064,1.607,0.087711,0.58008,0.19501,0.38525,3.0576
3.072,1.5953,0.083069,0.59521,0.2346,0.375,3.4972
3.08,1.5806,0.078427,0.60498,0.28006,0.39502,4.0638
3.088,1.567,0.074029,0.6001,0.28495,0.38525,4.308
3.096,1.5562,0.070608,0.58984,0.24487,0.39014,4.1224
3.104,1.5503,0.067188,0.61475,0.20479,0.33008,3.8098
3.112,1.5455,0.064989,0.66016,0.21457,0.2749,3.4386
3.12,1.5406,0.06279,0.64014,0.22972,0.31494,3.3116
3.128,1.5357,0.061569,0.625,0.26979,0.3501,3.2432
3.136,1.5318,0.060591,0.5752,0.28495,0.43018,3.3116
3.144,1.5269,0.060591,0.56006,0.30987,0.45508,3.3116
3.152,1.523,0.060591,0.56494,0.3001,0.41992,3.3702
3.16,1.521,0.06108,0.5752,0.28006,0.37012,3.3702
3.168,1.522,0.061813,0.65479,0.25464,0.30029,3.4386
3.176,1.5249,0.063034,0.68506,0.24487,0.27002,3.4972
3.184,1.5308,0.064256,0.65479,0.23998,0.31494,3.4386
3.192,1.5415,0.066211,0.6001,0.23998,0.37988,3.3116
3.2,1.5582,0.068409,0.55518,0.24976,0.45508,3.1846
3.208,1.5836,0.071341,0.54492,0.28495,0.5,3.0576
3.216,1.6188,0.074273,0.56982,0.28983,0.4502,2.872
3.224,1.6618,0.077938,0.5752,0.24487,0.36523,2.6864
3.232,1.7165,0.081847,0.59521,0.18475,0.30518,2.5008
3.24,1.7634,0.086245,0.56982,0.17498,0.33984,2.3054
3.248,1.8035,0.090887,0.5752,0.20479,0.35986,2.2468
3.256,1.8543,0.095285,0.58984,0.21457,0.34521,2.5008
3.264,1.9003,0.099682,0.55518,0.22483,0.3999,2.999
3.272,1.9404,0.10408,0.52002,0.2346,0.44482,3.7512
3.28,1.9814,0.10872,0.5,0.26491,0.49023,4.3764
3.288,2.0196,0.11361,0.48486,0.41007,0.58008,4.689
3.296,2.0518,0.11874,0.41504,0.57527,0.5752,4.6206
3.304,2.0792,0.12387,0.25488,0.67498,0.5249,4.435
3.312,2.1046,0.129,0.375,0.43988,0.30518,4.562
3.32,2.129,0.13389,0.66016,0.17986,0.22998,5.0602
3.328,2.1525,0.13877,0.75488,-0.020528,0.18506,5.6854
3.336,2.174,0.14342,0.77002,0.12463,0.33984,6.125
3.344,2.1906,0.1483,0.56982,0.52004,0.59521,6.125
3.352,2.1984,0.15368,0.33008,0.81525,0.85498,5.744
3.36,2.1984,0.15905,0.064941,0.9653,1.0898,5.0602
3.368,2.1945,0.16492,-0.02002,1.0005,1.1348,4.3764
3.376,2.1877,0.17102,0.3501,0.6002,0.77002,3.9368
3.384,2.174,0.17689,0.46484,0.33969,0.56494,3.6828
3.392,2.1564,0.18275,0.5498,0.1999,0.38525,3.6242
3.4,2.1359,0.18837,0.59521,0.12463,0.30518,3.5558
3.408,2.1144,0.19423,0.6001,0.099707,0.28027,3.3116
3.416,2.0919,0.19912,0.59521,0.10459,0.30518,3.0576
3.424,2.0694,0.20425,0.60986,0.11975,0.33496,2.999
3.432,2.0459,0.20865,0.6001,0.14467,0.33008,3.0576
3.44,2.0254,0.21329,0.5752,0.17986,0.38525,3.1846
3.448,2.0029,0.21769,0.60498,0.1999,0.39014,3.2432
3.456,1.9765,0.22209,0.63477,0.22483,0.3501,3.126
3.464,1.9521,0.22673,0.6748,0.20968,0.28516,2.9306
3.472,1.9286,0.23137,0.68018,0.15982,0.26514,2.6864
3.48,1.9013,0.23601,0.625,0.094819,0.2749,2.5008
3.488,1.8719,0.24065,0.58008,0.07478,0.30518,2.3054
3.496,1.8446,0.24505,0.56982,0.10948,0.3252,1.8072
3.504,1.8192,0.24969,0.6001,0.1349,0.31494,0.86942
3.512,1.7986,0.2536,0.59521,0.14467,0.33496,-0.3126
3.52,1.7849,0.25776,0.62012,0.1696,0.33496,-1.0648
3.528,1.7752,0.26142,0.62988,0.20968,0.36523,-1.3188
3.536,1.7703,0.26533,0.66016,0.21994,0.31494,-1.1918
3.544,1.7713,0.26924,0.6499,0.10948,0.22998,-1.2504
3.552,1.7732,0.27315,0.64014,0.044477,0.18018,-1.6314
3.56,1.7722,0.2773,0.66016,0.029814,0.15527,-2.3152
3.568,1.7703,0.28146,0.66504,0.064516,0.14502,-2.9404
3.576,1.7674,0.28512,0.66992,0.11486,0.1499,-2.999
3.584,1.7586,0.28903,0.60498,0.11975,0.23486,-2.999
3.592,1.7419,0.29245,0.59521,0.14956,0.26025,-2.999
3.6,1.7224,0.29612,0.63477,0.20968,0.24512,-2.8818
3.608,1.7019,0.30027,0.61475,0.25464,0.3501,-2.3152
3.616,1.6774,0.30442,0.62012,0.28006,0.35986,-1.817
3.624,1.652,0.30906,0.65479,0.27468,0.29492,-1.5044
3.632,1.6276,0.31395,0.63477,0.24976,0.29004,-1.3188
3.64,1.6041,0.31762,0.63477,0.23998,0.31006,-1.2504
3.648,1.5806,0.32128,0.64014,0.2346,0.3252,-1.0648
3.656,1.5621,0.32397,0.58496,0.25464,0.38525,-0.87919
3.664,1.5503,0.3269,0.56982,0.24487,0.40479,-0.6252
3.672,1.5445,0.32959,0.58496,0.23998,0.40479,-0.38098
3.68,1.5376,0.33227,0.56982,0.24976,0.39502,-0.19538
3.688,1.5269,0.33472,0.61475,0.26979,0.375,0
3.696,1.5122,0.33741,0.58984,0.31965,0.45508,0.18561
3.704,1.4888,0.33912,0.5752,0.29472,0.4751,0.37121
3.712,1.4545,0.34107,0.6748,0.27468,0.29004,0.6252
3.72,1.4086,0.34229,0.62012,0.22483,0.3252,0.99641
3.728,1.3568,0.34376,0.58984,0.18964,0.36523,1.563
3.736,1.3069,0.34473,0.56494,0.1999,0.37988,2.0612
3.744,1.259,0.34596,0.58984,0.18475,0.3501,2.3054
3.752,1.2121,0.34645,0.56982,0.19501,0.38525,2.2468
3.76,1.1632,0.34718,0.5498,0.21994,0.43506,2.2468
3.768,1.1222,0.34718,0.5752,0.24487,0.44482,2.5594
3.776,1.0841,0.34718,0.58008,0.21457,0.3999,3.0576
3.784,1.0362,0.34645,0.61475,0.1999,0.3501,3.4972
3.792,0.98045,0.34596,0.65479,0.19501,0.29004,3.6242
3.8,0.91789,0.34547,0.72998,0.26002,0.20996,3.3702
3.808,0.85239,0.34498,0.58008,0.24487,0.38525,3.0576
3.816,0.78495,0.34449,0.54492,0.26491,0.4248,2.9306
3.824,0.71652,0.344,0.5752,0.29472,0.40479,3.126
3.832,0.65396,0.34302,0.59521,0.28006,0.41016,3.5558
3.84,0.60117,0.34205,0.6001,0.3001,0.43018,4.0638
3.848,0.56012,0.34083,0.61475,0.26979,0.3999,4.308
3.856,0.53177,0.3396,0.62012,0.22483,0.36523,4.2494
3.864,0.52199,0.33838,0.625,0.20479,0.3252,3.9368
3.872,0.5259,0.33741,0.62012,0.1999,0.30518,3.5558
3.88,0.53959,0.33643,0.61475,0.19501,0.31006,3.3702
3.888,0.56207,0.3357,0.69482,0.28495,0.25488,3.4972
3.896,0.59042,0.33496,0.56006,0.22483,0.40479,4.0638
3.904,0.62366,0.33423,0.45508,0.18475,0.5,4.7476
3.912,0.67058,0.3335,0.4502,0.20968,0.49512,5.3728
3.92,0.71554,0.33301,0.52002,0.26002,0.4751,5.8124
3.928,0.75073,0.33301,0.54492,0.28983,0.45508,6.3106
3.936,0.79765,0.33325,0.56494,0.26491,0.41504,6.8674
3.944,0.85337,0.33374,0.54492,0.26002,0.43506,7.6196
3.952,0.91691,0.33423,0.5249,0.34506,0.4502,8.3132
3.96,0.98925,0.33447,0.43506,0.52981,0.47998,8.87
3.968,1.0596,0.33496,0.36523,0.72532,0.43018,9.1826
3.976,1.1251,0.33521,0.45508,0.56989,0.28516,9.3683
3.984,1.1945,0.3357,0.6001,0.24976,0.28027,9.5636
3.992,1.2639,0.33618,0.63477,-0.010264,0.3252,9.8078
4,1.3284,0.33692,0.68018,0.1349,0.43506,9.9348
4.008,1.392,0.33789,0.53516,0.54497,0.66992,9.9935
4.016,1.4516,0.33912,0.3252,0.79032,0.84473,9.9348
4.024,1.5083,0.34107,0.035156,0.93011,1.0601,9.8762
4.032,1.564,0.34302,-0.040039,0.95552,1.0898,9.7492
4.04,1.6168,0.34547,0.25488,0.48485,0.75977,9.6809
4.048,1.6637,0.34791,0.45996,0.28983,0.5249,9.5636
4.056,1.7067,0.34962,0.5752,0.22972,0.39014,9.4366
4.064,1.741,0.35158,0.59521,0.20968,0.37988,9.3096
4.072,1.7674,0.35304,0.64502,0.19501,0.31982,9.1826
4.08,1.7898,0.35475,0.66992,0.16471,0.26025,9.124
4.088,1.8094,0.35695,0.66504,0.14956,0.24512,8.997
4.096,1.827,0.35915,0.68506,0.14467,0.24023,8.8114
4.104,1.8426,0.36184,0.66992,0.17498,0.28516,8.5574
4.112,1.8583,0.36452,0.66016,0.17986,0.29004,8.1862
4.12,1.8739,0.36697,0.64014,0.1696,0.30518,7.8736
4.128,1.8895,0.36966,0.62012,0.18475,0.35498,7.8052
4.136,1.9052,0.3721,0.64014,0.23998,0.35986,8.1862
4.144,1.9198,0.37479,0.60986,0.20968,0.38525,8.8114
4.152,1.9355,0.37845,0.6001,0.16471,0.3252,9.3096
4.16,1.9511,0.38212,0.62012,0.14467,0.29492,8.87
4.168,1.9629,0.38627,0.65479,0.12952,0.24023,7.4926
4.176,1.9687,0.39042,0.63477,0.12463,0.26025,5.998
4.184,1.9717,0.39409,0.68994,0.14467,0.20996,5.4314
4.192,1.9707,0.398,0.64502,0.16471,0.27002,6.2422
4.2,1.9687,0.40142,0.625,0.15982,0.29492,7.6196
4.208,1.9677,0.40508,0.6499,0.1696,0.28027,8.4305
4.216,1.9668,0.40875,0.625,0.14467,0.31006,8.1862
4.224,1.9668,0.41241,0.64014,0.1349,0.24023,6.9944
4.232,1.9668,0.41632,0.65479,0.1349,0.20996,5.8124
4.24,1.9668,0.42023,0.68994,0.1349,0.14502,5.2458
4.248,1.9668,0.42414,0.66504,0.14956,0.17529,5.5584
4.256,1.9668,0.42829,0.70996,0.20968,0.16016,6.3106
4.264,1.9668,0.43245,0.68018,0.22972,0.2002,7.0628
4.272,1.9668,0.4366,0.625,0.23998,0.28027,7.3754
4.28,1.9668,0.44026,0.5752,0.23998,0.35498,7.2484
4.288,1.9668,0.44393,0.56982,0.26979,0.375,7.0628
4.296,1.9668,0.44735,0.60986,0.28006,0.34521,7.1214
4.304,1.9668,0.45077,0.60498,0.25464,0.35986,7.4926
4.312,1.9668,0.45419,0.61475,0.28983,0.37012,8.1179
4.32,1.9668,0.45785,0.64502,0.26979,0.31982,8.6258
4.328,1.9668,0.46152,0.625,0.27468,0.3501,8.9384
4.336,1.9668,0.46518,0.61475,0.26491,0.375,9.0557
4.344,1.9668,0.46909,0.59521,0.28006,0.3999,9.251
4.352,1.9668,0.473,0.58984,0.28983,0.39502,9.5636
4.36,1.9629,0.47691,0.56006,0.26002,0.4248,9.9935
4.368,1.957,0.48082,0.5752,0.26491,0.41016,10.306
4.376,1.9521,0.48424,0.59521,0.26979,0.39014,10.56
4.384,1.9453,0.48791,0.61475,0.26979,0.37012,10.619
4.392,1.9384,0.49108,0.59521,0.25464,0.375,10.619
4.4,1.9316,0.49426,0.62012,0.23998,0.33496,10.619
4.408,1.9257,0.49768,0.60986,0.24976,0.35986,10.814
4.416,1.9228,0.5011,0.6001,0.23998,0.36523,11.185
4.424,1.9238,0.50452,0.61475,0.21994,0.33984,11.556
4.432,1.9277,0.50818,0.62012,0.21457,0.3252,11.683
4.44,1.9335,0.51136,0.60498,0.24976,0.36523,11.625
4.448,1.9384,0.51454,0.60986,0.27468,0.37988,11.625
4.456,1.9384,0.51747,0.62012,0.25464,0.35986,11.752
4.464,1.9355,0.5204,0.62988,0.26491,0.33008,11.996
4.472,1.9277,0.52309,0.65479,0.3001,0.31494,12.25
4.48,1.9159,0.52578,0.66504,0.31965,0.33008,12.309
4.488,1.9032,0.52822,0.64014,0.30987,0.34521,12.182
4.496,1.8925,0.53066,0.63477,0.28495,0.3501,11.996
4.504,1.8915,0.53335,0.66992,0.30499,0.31982,11.937
4.512,1.9003,0.53628,0.64502,0.28006,0.31006,11.937
4.52,1.9218,0.53946,0.63477,0.24976,0.3501,12.064
4.528,1.955,0.54263,0.64014,0.2346,0.31982,12.064
4.536,1.9971,0.54605,0.6001,0.24487,0.375,11.996
4.544,2.0469,0.54947,0.63477,0.28495,0.34521,11.869
4.552,2.1036,0.55314,0.6001,0.28983,0.38525,11.869
4.56,2.1642,0.55705,0.5752,0.26002,0.39502,11.996
4.568,2.216,0.56145,0.59521,0.23998,0.3501,12.309
4.576,2.263,0.56584,0.5752,0.22483,0.33984,12.748
4.584,2.3128,0.57073,0.52979,0.23998,0.4248,13.246
4.592,2.3607,0.57562,0.55518,0.26491,0.43506,13.813
4.6,2.4076,0.58026,0.62012,0.28006,0.3501,14.311
4.608,2.4526,0.58515,0.63477,0.26979,0.31006,14.624
4.616,2.4936,0.58954,0.52979,0.37488,0.3999,14.751
4.624,2.5298,0.59419,0.31982,0.565,0.52979,14.751
4.632,2.5591,0.59809,0.24512,0.69501,0.53516,14.682
4.64,2.5836,0.602,0.4248,0.5,0.375,14.555
4.648,2.6012,0.60518,0.60986,0.26491,0.38525,14.624
4.656,2.6139,0.6086,0.72998,0.084555,0.29492,14.682
4.664,2.6207,0.61104,0.66992,0.30499,0.46484,14.555
4.672,2.6237,0.61349,0.4502,0.72532,0.73486,14.243
4.68,2.6276,0.61495,0.125,0.92522,1.0249,13.618
4.688,2.6276,0.61666,-0.049805,1.0152,1.145,13.002
4.696,2.6237,0.61764,0.25,0.68035,0.79004,12.563
4.704,2.6178,0.61886,0.49023,0.3348,0.4751,12.25
4.712,2.609,0.61935,0.58008,0.21994,0.37012,12.123
4.72,2.5953,0.61984,0.62012,0.17498,0.31982,11.869
4.728,2.5767,0.61886,0.65479,0.17498,0.28027,11.498
4.736,2.5523,0.61813,0.66504,0.17986,0.29004,11.127
4.744,2.523,0.61617,0.66016,0.18964,0.29004,10.873
4.752,2.4927,0.61446,0.69482,0.20968,0.26025,11
4.76,2.4643,0.61275,0.70996,0.21457,0.25,11.312
4.768,2.437,0.61104,0.68506,0.1999,0.2749,11.625
4.776,2.4076,0.60958,0.70996,0.18964,0.24023,11.81
4.784,2.3793,0.60836,0.68506,0.19501,0.26514,11.81
4.792,2.3519,0.60762,0.66016,0.17986,0.29492,11.81
4.8,2.3236,0.60689,0.64502,0.1999,0.30518,11.996
4.808,2.2933,0.60689,0.68994,0.18964,0.24512,12.377
4.816,2.2649,0.60689,0.70996,0.20479,0.2251,12.621
4.824,2.2414,0.60762,0.68506,0.21994,0.28027,12.377
4.832,2.2199,0.6086,0.6748,0.22972,0.30029,11.625
4.84,2.2004,0.61007,0.68506,0.19501,0.28027,10.619
4.848,2.1808,0.61178,0.66504,0.1696,0.29004,10.12
4.856,2.1593,0.61349,0.68506,0.14467,0.2251,10.374
4.864,2.1408,0.6152,0.70508,0.16471,0.2002,11.127
4.872,2.1241,0.61691,0.73975,0.15982,0.15527,11.937
4.88,2.1046,0.61886,0.73486,0.14467,0.1499,12.123
4.888,2.085,0.62155,0.73975,0.16471,0.14502,11.683
4.896,2.0655,0.62424,0.72998,0.1696,0.15527,10.873
4.904,2.044,0.62766,0.73975,0.20968,0.17529,10.306
4.912,2.0244,0.63132,0.68994,0.2346,0.2251,10.306
4.92,2.0068,0.6345,0.70508,0.21457,0.20508,10.687
4.928,1.9922,0.63767,0.68018,0.2346,0.23486,11.127
4.936,1.9795,0.64061,0.6499,0.1999,0.25488,11.312
4.944,1.9687,0.64354,0.62988,0.18964,0.27002,11.244
4.952,1.9638,0.64647,0.6499,0.22483,0.28027,11
4.96,1.9609,0.64965,0.65479,0.26002,0.30029,10.814
4.968,1.958,0.65282,0.6499,0.26491,0.31494,11
4.976,1.9521,0.65624,0.66504,0.28983,0.3252,11.371
4.984,1.9433,0.65869,0.625,0.26491,0.35498,11.752
4.992,1.9316,0.66113,0.63477,0.26002,0.35986,11.996
5,1.9179,0.66259,0.64502,0.30499,0.35498,11.937
5.008,1.9042,0.66406,0.64014,0.31476,0.39014,11.81
5.016,1.8876,0.66455,0.62012,0.28983,0.40479,11.752
5.024,1.869,0.66504,0.65479,0.26979,0.31494,11.81
5.032,1.8524,0.66455,0.64014,0.24487,0.31006,12.123
5.04,1.8368,0.6643,0.65479,0.25464,0.30029,12.563
5.048,1.8211,0.66382,0.63477,0.23998,0.29492,13.002
5.056,1.8055,0.66333,0.64014,0.24976,0.31006,13.305
5.064,1.7918,0.66259,0.62988,0.26491,0.33496,13.5
5.072,1.782,0.66186,0.64014,0.28495,0.3252,13.618
5.08,1.7732,0.66113,0.65479,0.29472,0.31006,13.618
5.088,1.7654,0.6604,0.64014,0.28495,0.33984,13.432
5.096,1.7576,0.65966,0.62988,0.3001,0.375,13.061
5.104,1.7498,0.65893,0.62012,0.30987,0.38525,12.69
5.112,1.7419,0.65746,0.64502,0.31476,0.33984,12.436
5.12,1.7341,0.65624,0.66016,0.30987,0.30518,12.494
5.128,1.7283,0.65453,0.65479,0.3001,0.30518,12.69
5.136,1.7253,0.65282,0.68506,0.31476,0.29004,12.875
5.144,1.7263,0.65062,0.71484,0.31965,0.25488,13.002
5.152,1.7302,0.64867,0.73975,0.3001,0.22998,13.002
5.16,1.738,0.64647,0.7002,0.28495,0.28027,12.807
5.168,1.7507,0.64427,0.64014,0.26002,0.34521,12.69
5.176,1.7722,0.64207,0.59521,0.23998,0.38525,12.563
5.184,1.8045,0.64012,0.58496,0.26491,0.40479,12.436
5.192,1.8465,0.63841,0.60986,0.27468,0.38525,12.309
5.2,1.9022,0.6367,0.625,0.28495,0.35498,12.25
5.208,1.9668,0.63523,0.60986,0.25464,0.34521,12.182
5.216,2.0332,0.63376,0.60986,0.26002,0.35498,12.309
5.224,2.0968,0.6323,0.625,0.24976,0.31494,12.69
5.232,2.1554,0.63083,0.60986,0.26002,0.33496,13.246
5.24,2.2092,0.62888,0.59521,0.23998,0.3501,13.999
5.248,2.259,0.62717,0.58984,0.21994,0.35986,14.751
5.256,2.3069,0.62497,0.59521,0.23998,0.3501,15.376
5.264,2.347,0.62301,0.56006,0.3348,0.39502,15.689
5.272,2.3822,0.62057,0.43018,0.52493,0.4751,15.747
5.28,2.4203,0.61837,0.29004,0.73509,0.51514,15.747
5.288,2.4409,0.61593,0.3999,0.60508,0.33008,15.62
5.296,2.4428,0.61349,0.60986,0.39003,0.31006,15.493
5.304,2.4467,0.6108,0.7002,0.15982,0.34521,15.376
5.312,2.4526,0.60811,0.73975,0.14467,0.4248,15.308
5.32,2.4555,0.60542,0.56982,0.62023,0.60986,15.063
5.328,2.4575,0.60274,0.20508,0.90518,0.96484,14.682
5.336,2.4575,0.5998,-0.060059,1.0205,1.1548,14.243
5.344,2.4565,0.59687,0.16016,0.78006,0.89014,13.999
5.352,2.4536,0.59394,0.47021,0.3998,0.53516,13.813
5.36,2.4497,0.59125,0.60986,0.25464,0.37012,13.686
5.368,2.4448,0.58881,0.66504,0.20968,0.30518,13.432
5.376,2.4379,0.58661,0.68506,0.1696,0.26514,12.934
5.384,2.4291,0.58441,0.70996,0.16471,0.24023,12.494
5.392,2.4184,0.58246,0.68506,0.1696,0.26514,12.182
5.4,2.4057,0.58075,0.68994,0.18475,0.28516,12.123
5.408,2.39,0.57904,0.69482,0.17498,0.26514,12.309
5.416,2.3734,0.57757,0.69482,0.17986,0.26514,12.494
5.424,2.3578,0.57635,0.68018,0.17498,0.28516,12.563
5.432,2.3431,0.57562,0.66504,0.19501,0.30029,12.494
5.44,2.3294,0.57488,0.71973,0.19501,0.23486,12.377
5.448,2.3167,0.57464,0.68506,0.1696,0.25,12.436
5.456,2.3069,0.57464,0.6748,0.15982,0.26514,12.748
5.464,2.2981,0.57488,0.70996,0.19501,0.24512,13.246
5.472,2.2893,0.57537,0.73486,0.20968,0.20996,13.432
5.48,2.2805,0.57586,0.73975,0.21457,0.2002,13.119
5.488,2.2708,0.57635,0.69482,0.18964,0.26025,12.377
5.496,2.261,0.57659,0.66504,0.17498,0.2749,11.752
5.504,2.2502,0.57708,0.68994,0.16471,0.24512,11.683
5.512,2.2385,0.57708,0.70508,0.19501,0.23486,12.25
5.52,2.2268,0.57733,0.71973,0.16471,0.18994,13.002
5.528,2.2151,0.57733,0.73486,0.15494,0.1499,13.432
5.536,2.2053,0.57733,0.75488,0.16471,0.125,13.188
5.544,2.1965,0.57708,0.71973,0.1696,0.15527,12.494
5.552,2.1896,0.57684,0.69482,0.15494,0.16992,11.81
5.56,2.1838,0.57635,0.68994,0.17498,0.18018,11.498
5.568,2.1769,0.57586,0.69482,0.20479,0.2002,11.683
5.576,2.1711,0.57513,0.70508,0.2346,0.22021,12.123
5.584,2.1672,0.5744,0.68994,0.27468,0.25488,12.436
5.592,2.1632,0.57293,0.66504,0.26002,0.2749,12.436
5.6,2.1584,0.57171,0.71484,0.28006,0.22998,12.25
5.608,2.1535,0.56975,0.74512,0.32502,0.20996,11.996
5.616,2.1476,0.56804,0.69482,0.26979,0.28516,11.996
5.624,2.1408,0.5656,0.60986,0.25464,0.35498,12.25
5.632,2.1339,0.5634,0.59521,0.23998,0.37012,12.621
5.64,2.1271,0.56071,0.60498,0.22483,0.33008,13.061
5.648,2.1202,0.55827,0.63477,0.2346,0.31494,13.305
5.656,2.1144,0.55583,0.6748,0.26002,0.29004,13.305
5.664,2.1085,0.55363,0.68994,0.26979,0.2749,13.246
5.672,2.1026,0.55143,0.65479,0.27468,0.33496,13.119
5.68,2.0987,0.54923,0.5752,0.26491,0.41504,13.061
5.688,2.0948,0.54679,0.58496,0.26002,0.39502,13.119
5.696,2.0909,0.54459,0.59521,0.26491,0.36523,13.188
5.704,2.087,0.5419,0.625,0.30499,0.34521,13.305
5.712,2.0831,0.53946,0.66504,0.30499,0.28516,13.432
5.72,2.0792,0.53701,0.6748,0.30987,0.27002,13.5
5.728,2.0772,0.53482,0.63477,0.28006,0.33008,13.5
5.736,2.0762,0.53262,0.625,0.28983,0.33496,13.188
5.744,2.0743,0.53066,0.62012,0.28006,0.33008,12.563
5.752,2.0723,0.52822,0.60498,0.26491,0.35986,11.752
5.76,2.0704,0.52602,0.62012,0.30987,0.37012,11.127
5.768,2.0674,0.52358,0.64502,0.33969,0.375,10.814
5.776,2.0645,0.52113,0.68506,0.34995,0.30029,10.814
5.784,2.0616,0.51869,0.70508,0.35484,0.27002,10.873
5.792,2.0596,0.51649,0.70996,0.31476,0.26025,10.873
5.8,2.0606,0.51454,0.65479,0.26979,0.31494,10.687
5.808,2.0645,0.51258,0.62988,0.25464,0.33984,10.433
5.816,2.0743,0.51014,0.64014,0.22972,0.33008,10.306
5.824,2.088,0.50794,0.61475,0.22972,0.35498,10.374
5.832,2.1065,0.5055,0.59521,0.24976,0.37988,10.56
5.84,2.129,0.50305,0.61475,0.28495,0.37012,10.619
5.848,2.1564,0.50086,0.6001,0.3001,0.41504,10.501
5.856,2.1828,0.49866,0.59521,0.28983,0.41992,10.189
5.864,2.216,0.4967,0.62012,0.26979,0.3501,9.7492
5.872,2.2493,0.49475,0.66504,0.23998,0.27002,9.4952
5.88,2.2717,0.49304,0.63477,0.23998,0.29492,9.4952
5.888,2.2942,0.49133,0.61475,0.2346,0.3252,9.8762
5.896,2.3167,0.48962,0.625,0.23998,0.31006,10.433
5.904,2.3382,0.48791,0.58008,0.26002,0.37012,10.814
5.912,2.3627,0.48473,0.52002,0.25464,0.43506,10.873
5.92,2.3832,0.4818,0.43994,0.39003,0.49512,10.56
5.928,2.3969,0.4774,0.31006,0.62512,0.56006,10.247
5.936,2.4106,0.473,0.2749,0.69501,0.41016,10.501
5.944,2.4223,0.46714,0.56982,0.45503,0.31494,11.185
5.952,2.4282,0.46152,0.69482,0.24976,0.36523,11.81
5.96,2.4301,0.45468,0.71973,0.14467,0.38525,11.869
5.968,2.4311,0.44784,0.66016,0.37488,0.5,11.371
5.976,2.4321,0.44075,0.37988,0.69501,0.76514,10.687
5.984,2.4321,0.43367,0.125,0.87048,1.0249,10.189
5.992,2.4321,0.42609,-0.040039,0.98534,1.1499,9.9348
6,2.4321,0.41852,0.19531,0.69013,0.85498,9.6809
6.008,2.4311,0.40924,0.43506,0.35484,0.55518,9.3683
6.016,2.4282,0.4002,0.58984,0.21994,0.3501,8.8114
6.024,2.4233,0.38969,0.66504,0.18964,0.27002,8.0592
6.032,2.4154,0.37943,0.68506,0.1999,0.29004,7.307
6.04,2.4008,0.36892,0.64014,0.23998,0.39014,6.7502
6.048,2.3861,0.35842,0.62012,0.26491,0.43018,6.4376
6.056,2.3695,0.34767,0.58496,0.18475,0.37988,6.3692
6.064,2.3529,0.33716,0.56982,0.12952,0.3252,6.3106
6.072,2.3353,0.32519,0.63477,0.099707,0.26025,6.1836
6.08,2.3138,0.31322,0.66016,0.094819,0.24023,5.871
6.088,2.2962,0.30002,0.66504,0.12952,0.25,5.4998
6.096,2.2835,0.28708,0.66016,0.14467,0.26025,5.2458
6.104,2.2717,0.27437,0.7002,0.17986,0.22998,5.3044
6.112,2.2581,0.26167,0.73975,0.20968,0.2002,5.6854
6.12,2.2483,0.24945,0.66992,0.1999,0.29004,5.744
6.128,2.2375,0.23748,0.60498,0.15982,0.3501,4.9332
6.136,2.2229,0.22673,0.58008,0.13978,0.375,3.4972
6.144,2.2121,0.21598,0.62012,0.14467,0.30518,1.9928
6.152,2.2053,0.20621,0.625,0.12463,0.29492,1.182
6.16,2.1984,0.19668,0.64014,0.1349,0.30518,1.055
6.168,2.1896,0.18715,0.66016,0.15494,0.24512,1.309
6.176,2.1808,0.17762,0.62988,0.12463,0.28516,1.563
6.184,2.172,0.16809,0.65479,0.1696,0.29004,1.6216
6.192,2.1623,0.15856,0.68994,0.14467,0.22021,1.436
6.2,2.1505,0.1505,0.62988,0.069892,0.19531,1.055
6.208,2.1408,0.14268,0.59521,0.064516,0.2251,0.42983
6.216,2.131,0.13584,0.62012,0.11486,0.21484,-0.38098
6.224,2.1173,0.12925,0.63477,0.19501,0.23486,-1.0648
6.232,2.1075,0.12265,0.64502,0.25464,0.26514,-1.3774
6.24,2.1007,0.11605,0.63477,0.2346,0.29004,-1.3774
6.248,2.0968,0.10946,0.62012,0.21994,0.31494,-1.1332
6.256,2.0938,0.10286,0.625,0.21994,0.30518,-0.6252
6.264,2.0909,0.096751,0.68018,0.25464,0.25,-0.12699
6.272,2.0899,0.090887,0.62012,0.23998,0.3252,0.37121
6.28,2.088,0.085512,0.58496,0.26002,0.39502,0.81081
6.288,2.086,0.080137,0.56982,0.25464,0.40479,1.182
6.296,2.0831,0.075983,0.60986,0.28983,0.38525,1.4946
6.304,2.0792,0.072074,0.625,0.32991,0.3999,1.8072
6.312,2.0762,0.069142,0.56006,0.29472,0.4502,1.9928
6.32,2.0714,0.066211,0.56982,0.24487,0.41504,2.1198
6.328,2.0655,0.064012,0.54492,0.23998,0.41016,2.1198
6.336,2.0577,0.062057,0.51514,0.24976,0.47021,2.0612
6.344,2.0518,0.060836,0.55518,0.21457,0.40479,2.0612
6.352,2.0469,0.059614,0.58496,0.1999,0.3501,2.1882
6.36,2.0411,0.05937,0.62012,0.21457,0.3252,2.5594
6.368,2.0352,0.059125,0.58984,0.22972,0.37988,3.0576
6.376,2.0303,0.059614,0.56982,0.26491,0.41504,3.3116
6.384,2.0264,0.060103,0.62988,0.26979,0.375,3.2432
6.392,2.0225,0.06108,0.68506,0.27468,0.31006,3.126
6.4,2.0186,0.062301,0.68994,0.30987,0.34521,3.0576
6.408,2.0156,0.063767,0.61475,0.25464,0.37012,2.999
6.416,2.0127,0.065233,0.60986,0.21457,0.33008,2.9306
6.424,2.0088,0.066944,0.56982,0.23998,0.37988,2.8134
6.432,2.0049,0.068898,0.6001,0.2346,0.34521,2.6864
6.44,2.001,0.070853,0.61475,0.29472,0.34521,2.5594
6.448,1.999,0.073052,0.64014,0.3001,0.33496,2.3738
6.456,2.001,0.075739,0.60986,0.28983,0.39014,2.3054
6.464,2.0059,0.078427,0.625,0.26491,0.375,2.1882
6.472,2.0156,0.081603,0.66016,0.24976,0.33008,2.1198
6.48,2.0313,0.084779,0.7002,0.26491,0.29492,1.9928
6.488,2.0518,0.088199,0.5752,0.2346,0.41016,1.8072
6.496,2.0733,0.091864,0.50488,0.21457,0.4502,1.6802
6.504,2.0968,0.095529,0.49512,0.18964,0.4751,1.563
6.512,2.1232,0.099194,0.49023,0.21457,0.47021,1.4946
6.52,2.1505,0.10237,0.53516,0.24976,0.4502,1.4946
6.528,2.176,0.10579,0.58496,0.26491,0.39502,1.6216
6.536,2.1984,0.10897,0.6001,0.26002,0.38525,1.8756
6.544,2.217,0.11214,0.54492,0.27468,0.46484,2.3054
6.552,2.2326,0.11581,0.56494,0.24976,0.38525,2.872
6.56,2.2571,0.11972,0.5249,0.19501,0.41016,3.4972
6.568,2.2747,0.12411,0.5249,0.21994,0.41992,3.9368
6.576,2.2913,0.12851,0.47021,0.35973,0.44482,4.0638
6.584,2.3118,0.13267,0.39014,0.62512,0.52002,3.8684
6.592,2.3206,0.13706,0.3252,0.71994,0.4502,3.7512
6.6,2.3265,0.14122,0.47998,0.40469,0.375,3.9368
6.608,2.3294,0.14537,0.65479,0.079668,0.29492,4.4936
6.616,2.3304,0.14928,0.71484,-0.015152,0.26514,5.1872
6.624,2.3314,0.15319,0.66504,0.28983,0.46484,5.617
6.632,2.3294,0.1571,0.49023,0.68524,0.6748,5.617
6.64,2.3265,0.16101,0.2251,0.84018,0.94482,5.3044
6.648,2.3226,0.16467,0.0048828,0.98045,1.1147,4.8062
6.656,2.3177,0.16834,0.12988,0.73509,0.9248,4.3764
6.664,2.3109,0.172,0.39014,0.43011,0.66504,4.0638
6.672,2.3021,0.17567,0.51514,0.28006,0.5,3.8098
6.68,2.2913,0.17909,0.56006,0.17986,0.40479,3.5558
6.688,2.2796,0.18251,0.58008,0.12463,0.36523,3.1846
6.696,2.2669,0.18593,0.6001,0.099707,0.31006,2.745
6.704,2.2542,0.18959,0.63477,0.12463,0.28027,2.4324
6.712,2.2405,0.19326,0.7002,0.16471,0.23486,2.3054
6.72,2.2278,0.19717,0.71973,0.17498,0.22998,2.3738
6.728,2.217,0.20132,0.62988,0.15982,0.31982,2.4324
6.736,2.2092,0.20547,0.58984,0.14956,0.36523,2.3054
6.744,2.2023,0.20987,0.58496,0.18475,0.39014,2.0612
6.752,2.1955,0.21427,0.59521,0.19501,0.40479,1.8756
6.76,2.1887,0.21867,0.56982,0.17986,0.3999,1.9342
6.768,2.1808,0.22306,0.64014,0.17498,0.3252,2.2468
6.776,2.174,0.22697,0.64502,0.12952,0.2749,2.3738
6.784,2.1662,0.23113,0.66504,0.10948,0.22998,1.7486
6.792,2.1574,0.23479,0.71484,0.14956,0.17529,0.49821
6.8,2.1476,0.23846,0.77002,0.1696,0.13525,-0.7522
6.808,2.1378,0.24212,0.69482,0.1349,0.2251,-1.4458
6.816,2.1271,0.24603,0.54492,0.07478,0.39014,-1.4458
6.824,2.1163,0.24994,0.5249,0.094819,0.3999,-1.1918
6.832,2.1085,0.25409,0.56494,0.10948,0.34521,-1.1918
6.84,2.1026,0.25776,0.62012,0.099707,0.27002,-1.563
6.848,2.0978,0.26142,0.64014,0.10948,0.24023,-2.071
6.856,2.0919,0.26484,0.62988,0.12463,0.23486,-2.5692
6.864,2.088,0.26826,0.66016,0.13978,0.2002,-2.8134
6.872,2.0831,0.27193,0.68018,0.17498,0.17529,-2.6962
6.88,2.0782,0.27584,0.6748,0.21457,0.21484,-2.3152
6.888,2.0714,0.27975,0.63477,0.23998,0.27002,-1.817
6.896,2.0645,0.28366,0.66016,0.25464,0.26514,-1.3774
6.904,2.0587,0.28781,0.63477,0.26491,0.30518,-1.0062
6.912,2.0518,0.29196,0.5752,0.2346,0.35986,-0.82058
6.92,2.0459,0.29612,0.56006,0.20968,0.36523,-0.69358
6.928,2.0391,0.30051,0.61475,0.23998,0.34521,-0.69358
6.936,2.0332,0.30418,0.63477,0.26979,0.33984,-0.69358
6.944,2.0283,0.30809,0.625,0.28983,0.35986,-0.69358
6.952,2.0225,0.31151,0.625,0.3001,0.37012,-0.56659
6.96,2.0156,0.31493,0.64014,0.31476,0.35498,-0.3126
6.968,2.0098,0.31762,0.58008,0.29472,0.43506,0.058613
6.976,2.0049,0.3203,0.5249,0.21457,0.45996,0.49821
6.984,2.001,0.32226,0.56494,0.23998,0.41016,1.055
6.992,1.9971,0.32421,0.61475,0.26979,0.36523,1.563
7,1.9941,0.32568,0.62988,0.28495,0.35986,2.0612
7.008,1.9922,0.32714,0.56494,0.23998,0.4248,2.4324
7.016,1.9902,0.32812,0.56006,0.22972,0.37988,2.745
7.024,1.9892,0.3291,0.58984,0.22483,0.35986,2.872
7.032,1.9892,0.32934,0.61475,0.18964,0.31982,2.6864
7.04,1.9892,0.32959,0.63477,0.18475,0.31006,2.3738
7.048,1.9892,0.3291,0.61475,0.21457,0.36523,2.2468
7.056,1.9892,0.32885,0.56982,0.22972,0.41016,2.5594
7.064,1.9892,0.32788,0.55518,0.21457,0.4502,3.126
7.072,1.9892,0.3269,0.59521,0.22483,0.3999,3.6828
7.08,1.9892,0.32543,0.58984,0.21457,0.35986,3.9954
7.088,1.9892,0.32421,0.59521,0.25464,0.3501,4.0638
7.096,1.9892,0.3225,0.62012,0.28983,0.36523,4.0638
7.104,1.9912,0.32104,0.6499,0.28983,0.31494,4.1224
7.112,1.9951,0.31908,0.7002,0.28983,0.26514,4.308
7.12,2.001,0.31713,0.71973,0.3001,0.25,4.6206
7.128,2.0117,0.31517,0.64014,0.28006,0.39014,4.8746
7.136,2.0244,0.31322,0.58984,0.23998,0.4248,5.0602
7.144,2.0391,0.31102,0.54492,0.21457,0.43506,5.1188
7.152,2.0577,0.30882,0.54004,0.20479,0.41016,4.8746
7.16,2.0802,0.30662,0.56494,0.20968,0.375,4.562
7.168,2.1056,0.30442,0.56006,0.21457,0.38525,4.2494
7.176,2.1329,0.30198,0.56982,0.21994,0.375,4.2494
7.184,2.1603,0.29978,0.58496,0.22972,0.37988,4.6206
7.192,2.1984,0.29783,0.59521,0.26491,0.375,5.2458
7.2,2.2199,0.29612,0.62012,0.31965,0.3999,5.998
7.208,2.2405,0.29465,0.61475,0.31476,0.39014,6.6818
7.216,2.2688,0.29343,0.63477,0.32502,0.35986,7.3754
7.224,2.2845,0.29221,0.52002,0.2346,0.44482,8.0006
7.232,2.2962,0.29123,0.47021,0.18475,0.47021,8.6258
7.24,2.3069,0.29025,0.44482,0.33969,0.45508,9.251
7.248,2.3157,0.28952,0.31006,0.58016,0.53516,9.6809
7.256,2.3216,0.28879,0.23486,0.6652,0.54492,9.9348
7.264,2.3245,0.28805,0.50977,0.43011,0.3252,10.062
7.272,2.3255,0.28732,0.76514,0.21994,0.25488,10.12
7.28,2.3245,0.28683,0.7749,0.089932,0.33496,10.189
7.288,2.3216,0.28683,0.60986,0.30499,0.56494,10.062
7.296,2.3187,0.28708,0.39502,0.64516,0.75977,9.9348
7.304,2.2815,0.28756,0.10986,0.82014,1.02,9.7492
7.312,2.2239,0.2883,-0.064941,0.94037,1.145,9.7492
7.32,2.1857,0.28927,0.18018,0.71017,0.85986,9.8078
7.328,2.1574,0.29025,0.50488,0.41007,0.5,9.8762
7.336,2.1339,0.29147,0.59521,0.28006,0.40479,9.8078
7.344,2.1105,0.29294,0.58008,0.21457,0.41992,9.6222
7.352,2.088,0.29441,0.60498,0.16471,0.3501,9.3096
7.36,2.0645,0.29612,0.6001,0.13978,0.33496,8.997
7.368,2.0401,0.29783,0.59521,0.1349,0.34521,8.8114
7.376,2.0127,0.29978,0.64502,0.15494,0.29004,8.6844
7.384,1.9873,0.30271,0.68506,0.17498,0.24023,8.6258
7.392,1.9648,0.30564,0.72998,0.1999,0.22021,8.6258
7.4,1.9423,0.30955,0.73975,0.22483,0.25488,8.5574
7.408,1.9218,0.31371,0.625,0.20968,0.39014,8.5574
7.416,1.9022,0.31786,0.56982,0.17498,0.41504,8.7431
7.424,1.8847,0.32201,0.56982,0.15494,0.35986,9.3096
7.432,1.87,0.32641,0.62012,0.12463,0.28027,9.9348
7.44,1.8553,0.33081,0.63477,0.12463,0.26514,10.062
7.448,1.8407,0.33618,0.6499,0.13978,0.25488,9.3683
7.456,1.826,0.3418,0.68018,0.16471,0.24512,7.9322
7.464,1.8104,0.34816,0.70996,0.17498,0.2251,6.8088
7.472,1.7957,0.35451,0.78516,0.21994,0.15527,6.8088
7.48,1.7801,0.35988,0.68018,0.22972,0.27002,7.8052
7.488,1.7654,0.3655,0.6001,0.13978,0.3501,8.8114
7.496,1.7517,0.37039,0.58984,0.14467,0.35498,9.124
7.504,1.738,0.37527,0.62988,0.12463,0.26514,8.4988
7.512,1.7195,0.38041,0.64014,0.11975,0.22021,7.4926
7.52,1.7028,0.38578,0.64502,0.11975,0.20508,6.8088
7.528,1.6911,0.3914,0.66504,0.14467,0.17529,6.8088
7.536,1.6813,0.39702,0.68018,0.17498,0.18506,7.434
7.544,1.6725,0.40239,0.69482,0.19501,0.16016,8.1179
7.552,1.6647,0.40777,0.68994,0.24487,0.20508,8.4305
7.56,1.6569,0.41266,0.7002,0.26002,0.22021,8.3718
7.568,1.6491,0.41779,0.68506,0.26491,0.25,8.1179
7.576,1.6413,0.42218,0.6499,0.28006,0.30518,8.0006
7.584,1.6334,0.42683,0.625,0.28983,0.35986,8.2448
7.592,1.6276,0.43049,0.60986,0.28495,0.39502,8.8114
7.6,1.6246,0.4344,0.58496,0.28983,0.43994,9.4366
7.608,1.6217,0.43782,0.5752,0.26002,0.41016,9.9348
7.616,1.6158,0.44149,0.60986,0.24976,0.37012,10.189
7.624,1.6119,0.44442,0.61475,0.26002,0.36523,10.189
7.632,1.608,0.44759,0.625,0.26491,0.3501,10.247
7.64,1.6022,0.45028,0.64014,0.28495,0.33496,10.433
7.648,1.5953,0.45321,0.625,0.26491,0.36523,10.746
7.656,1.5855,0.4559,0.59521,0.24487,0.375,11.127
7.664,1.5758,0.45859,0.60986,0.22483,0.33984,11.371
7.672,1.563,0.46152,0.61475,0.21457,0.3252,11.556
7.68,1.5494,0.4647,0.6001,0.20968,0.34521,11.625
7.688,1.5367,0.46812,0.56982,0.2346,0.3999,11.869
7.696,1.5249,0.47178,0.60498,0.24487,0.375,12.25
7.704,1.5152,0.47642,0.63477,0.26491,0.35498,12.563
7.712,1.5083,0.48131,0.62012,0.23998,0.35986,12.563
7.72,1.5044,0.48693,0.62012,0.21994,0.35498,12.25
7.728,1.5024,0.49255,0.59521,0.2346,0.37012,11.81
7.736,1.5015,0.49743,0.62988,0.25464,0.33496,11.683
7.744,1.5015,0.50232,0.64014,0.27468,0.3252,11.996
7.752,1.5034,0.50672,0.66016,0.28495,0.30518,12.436
7.76,1.5093,0.51112,0.70508,0.32991,0.29004,12.748
7.768,1.522,0.51576,0.66016,0.34995,0.35986,12.621
7.776,1.5435,0.52065,0.60986,0.3001,0.39502,12.182
7.784,1.5767,0.52578,0.64502,0.28983,0.35498,11.683
7.792,1.6237,0.53091,0.64014,0.28495,0.37012,11.498
7.8,1.6794,0.5353,0.63477,0.24487,0.33984,11.498
7.808,1.738,0.5397,0.64014,0.19501,0.31006,11.625
7.816,1.7977,0.54337,0.60498,0.20479,0.33008,11.81
7.824,1.8495,0.54728,0.59521,0.21994,0.35498,11.869
7.832,1.8964,0.55045,0.63477,0.2346,0.31006,11.869
7.84,1.9462,0.55387,0.64014,0.24976,0.30518,11.996
7.848,1.998,0.5568,0.58008,0.23998,0.39502,12.182
7.856,2.0508,0.55974,0.5752,0.26979,0.43018,12.563
7.864,2.1036,0.5612,0.5498,0.28006,0.44482,13.061
7.872,2.1505,0.56291,0.56494,0.23998,0.40479,13.618
7.88,2.1887,0.5634,0.6001,0.23998,0.3501,14.243
7.888,2.2199,0.56413,0.63477,0.26491,0.31982,14.751
7.896,2.2424,0.56413,0.58496,0.35484,0.37012,14.995
7.904,2.262,0.56438,0.40479,0.54497,0.52002,14.995
7.912,2.2786,0.56438,0.2251,0.73021,0.60986,14.868
7.92,2.2933,0.56438,0.20508,0.60508,0.4502,14.751
7.928,2.2952,0.56413,0.5498,0.35484,0.35986,14.682
7.936,2.2962,0.56413,0.66504,0.079668,0.31006,14.682
7.944,2.2962,0.56389,0.73486,0.059629,0.29004,14.555
7.952,2.2923,0.56365,0.66016,0.59531,0.48486,14.057
7.96,2.2825,0.56316,0.31494,0.90518,0.83496,13.373
7.968,2.2708,0.56291,-0.084961,0.9653,1.1997,12.69
7.976,2.2571,0.56242,-0.12988,0.77028,1.23,12.25
7.984,2.2385,0.56218,0.34521,0.41496,0.68994,12.182
7.992,2.216,0.56267,0.52979,0.25464,0.46484,12.309
8,2.1935,0.5634,0.61475,0.21457,0.36523,12.377
8.008,2.1711,0.56487,0.65479,0.18964,0.31006,12.123
8.016,2.1505,0.56633,0.68506,0.1696,0.25488,11.752
8.024,2.13,0.56902,0.70508,0.17498,0.24023,11.556
8.032,2.1065,0.57171,0.70508,0.18475,0.25,11.556
8.04,2.0821,0.57513,0.68994,0.18475,0.26025,11.81
8.048,2.0587,0.57879,0.69482,0.18964,0.26514,11.996
8.056,2.0352,0.58197,0.70508,0.18475,0.24023,11.869
8.064,2.0117,0.58539,0.68994,0.1999,0.27002,11.498
8.072,1.9912,0.58832,0.66992,0.16471,0.26025,11.127
8.08,1.9726,0.59125,0.66504,0.15982,0.29492,11.058
8.088,1.956,0.59443,0.66016,0.19501,0.29004,11.312
8.096,1.9404,0.59761,0.63477,0.20968,0.35498,11.81
8.104,1.9247,0.60078,0.65479,0.21994,0.31982,11.869
8.112,1.9091,0.6042,0.6499,0.1696,0.28027,11.439
8.12,1.8964,0.60713,0.68506,0.17498,0.24023,10.619
8.128,1.8837,0.61007,0.6748,0.1696,0.25488,10.062
8.136,1.87,0.61275,0.68994,0.17498,0.23486,10.306
8.144,1.8573,0.61544,0.71484,0.18964,0.20996,11.127
8.152,1.8475,0.61788,0.73975,0.18964,0.18018,12.064
8.16,1.8368,0.62033,0.69482,0.1696,0.23486,12.436
8.168,1.824,0.62253,0.66016,0.17498,0.28027,11.937
8.176,1.8094,0.62473,0.66504,0.17986,0.25,10.873
8.184,1.7908,0.62668,0.68506,0.14467,0.18506,9.9935
8.192,1.7683,0.62888,0.68994,0.13978,0.15527,9.7492
8.2,1.7458,0.63083,0.70996,0.16471,0.14502,10.189
8.208,1.7273,0.63279,0.68506,0.1999,0.18994,10.873
8.216,1.7165,0.63474,0.66016,0.22483,0.25488,11.439
8.224,1.7087,0.6367,0.66504,0.27468,0.29004,11.498
8.232,1.7019,0.63841,0.66504,0.28983,0.29492,11.244
8.24,1.694,0.64036,0.65479,0.28006,0.29004,11.058
8.248,1.6862,0.64158,0.66992,0.25464,0.27002,11.127
8.256,1.6784,0.6428,0.64502,0.26979,0.31982,11.498
8.264,1.6716,0.64354,0.6001,0.28495,0.39014,11.869
8.272,1.6637,0.64427,0.58984,0.26491,0.3999,12.25
8.28,1.6559,0.64452,0.60498,0.25464,0.38525,12.377
8.288,1.6481,0.645,0.62012,0.27468,0.39014,12.309
8.296,1.6413,0.645,0.61475,0.31476,0.41016,12.182
8.304,1.6334,0.64525,0.66016,0.27468,0.31494,12.182
8.312,1.6276,0.64452,0.625,0.22972,0.3252,12.25
8.32,1.6227,0.64403,0.63477,0.22483,0.31494,12.436
8.328,1.6168,0.64256,0.64502,0.26491,0.31006,12.621
8.336,1.61,0.64134,0.66016,0.27468,0.30518,12.69
8.344,1.5992,0.63963,0.60498,0.26491,0.375,12.748
8.352,1.5826,0.63792,0.625,0.25464,0.33008,12.875
8.36,1.566,0.63572,0.64014,0.26979,0.31006,13.119
8.368,1.5523,0.63376,0.62012,0.31476,0.39502,13.246
8.376,1.5396,0.63132,0.64014,0.27468,0.33008,13.246
8.384,1.5298,0.62912,0.64502,0.25464,0.30029,13.061
8.392,1.523,0.62644,0.625,0.26491,0.31494,12.875
8.4,1.521,0.62399,0.62012,0.28006,0.3252,12.875
8.408,1.5279,0.6213,0.62988,0.29472,0.33496,13.061
8.416,1.5425,0.61862,0.68506,0.32502,0.29004,13.305
8.424,1.567,0.61593,0.66992,0.31476,0.3252,13.5
8.432,1.6041,0.61324,0.6499,0.31965,0.35986,13.5
8.44,1.653,0.6108,0.66504,0.32502,0.35498,13.305
8.448,1.7097,0.6086,0.62012,0.28495,0.40479,13.061
8.456,1.7683,0.60665,0.60498,0.24487,0.375,12.807
8.464,1.8309,0.60469,0.58984,0.19501,0.33496,12.621
8.472,1.8944,0.60298,0.62012,0.20968,0.30518,12.563
8.48,1.957,0.60151,0.63477,0.22972,0.29004,12.494
8.488,2.0205,0.60005,0.63477,0.24976,0.31006,12.563
8.496,2.0821,0.59858,0.625,0.24487,0.31494,12.69
8.504,2.1398,0.59736,0.65479,0.27468,0.31006,12.875
8.512,2.1838,0.59614,0.63477,0.28983,0.34521,13.188
8.52,2.2209,0.59492,0.56982,0.26491,0.4248,13.559
8.528,2.26,0.59394,0.54004,0.24487,0.44482,14.126
8.536,2.2972,0.59345,0.54492,0.23998,0.4248,14.624
8.544,2.3265,0.59321,0.52002,0.28006,0.45508,15.122
8.552,2.349,0.59321,0.44482,0.44477,0.49512,15.435
8.56,2.3666,0.59321,0.29004,0.67009,0.55518,15.689
8.568,2.3803,0.59296,0.25,0.71505,0.3999,15.806
8.576,2.391,0.59296,0.56982,0.43988,0.29492,15.874
8.584,2.3969,0.59272,0.7002,0.19501,0.28027,15.806
8.592,2.3998,0.59247,0.78516,0.11975,0.2749,15.689
8.6,2.4008,0.59247,0.68506,0.52004,0.5,15.376
8.608,2.3978,0.59272,0.37012,0.85533,0.77979,14.868
8.616,2.3891,0.59321,-0.064941,0.95552,1.1797,14.243
8.624,2.3763,0.59394,-0.13477,0.97019,1.2246,13.745
8.632,2.3627,0.59467,0.31494,0.48485,0.72998,13.432
8.64,2.3441,0.59565,0.52979,0.28495,0.4751,13.305
8.648,2.3196,0.59663,0.64014,0.22483,0.34521,13.188
8.656,2.2923,0.59785,0.68018,0.16471,0.26514,13.002
8.664,2.2639,0.59956,0.6748,0.1349,0.24512,12.748
8.672,2.2366,0.60127,0.7002,0.14956,0.22998,12.563
8.68,2.2111,0.60347,0.68506,0.15494,0.26025,12.69
8.688,2.1848,0.60567,0.68018,0.1696,0.2749,13.002
8.696,2.1554,0.60713,0.68994,0.15494,0.26514,13.305
8.704,2.1212,0.60884,0.69482,0.1999,0.28027,13.373
8.712,2.0909,0.60982,0.70508,0.20968,0.26025,13.119
8.72,2.0645,0.61104,0.71973,0.1696,0.2251,12.69
8.728,2.0381,0.61153,0.66504,0.15982,0.27002,12.309
8.736,2.0117,0.61226,0.66504,0.15494,0.2749,12.377
8.744,1.9873,0.61251,0.66992,0.15982,0.26514,12.748
8.752,1.9629,0.613,0.68994,0.17498,0.25,13.119
8.76,1.9355,0.613,0.69482,0.1696,0.24512,13.119
8.768,1.9091,0.613,0.71973,0.20968,0.24023,12.621
8.776,1.8847,0.613,0.70508,0.21457,0.25,12.064
8.784,1.8631,0.613,0.7002,0.19501,0.23486,11.869
8.792,1.8446,0.61324,0.72998,0.20479,0.22021,12.182
8.8,1.828,0.61373,0.68506,0.1349,0.2251,12.875
8.808,1.8113,0.61422,0.69482,0.12463,0.18506,13.373
8.816,1.7977,0.61471,0.68994,0.12463,0.18994,13.373
8.824,1.7849,0.61495,0.70508,0.14467,0.16504,12.807
8.832,1.7713,0.61544,0.75977,0.19501,0.12012,12.064
8.84,1.7566,0.61544,0.73486,0.22972,0.18018,11.498
8.848,1.7439,0.61544,0.68506,0.23998,0.24512,11.439
8.856,1.7341,0.6152,0.65479,0.1999,0.25488,11.81
8.864,1.7253,0.61495,0.66016,0.21457,0.24023,12.25
8.872,1.7175,0.61422,0.65479,0.21994,0.25,12.436
8.88,1.7097,0.61373,0.6748,0.24487,0.25488,12.436
8.888,1.6999,0.613,0.7002,0.26979,0.24023,12.309
8.896,1.6891,0.61226,0.66504,0.28006,0.30518,12.309
8.904,1.6804,0.61129,0.62988,0.27468,0.37988,12.494
8.912,1.6745,0.61031,0.6001,0.28983,0.41016,12.875
8.92,1.6696,0.60933,0.58496,0.27468,0.43018,13.246
8.928,1.6628,0.60836,0.61475,0.24487,0.37012,13.432
8.936,1.654,0.60713,0.6499,0.2346,0.29004,13.5
8.944,1.6442,0.60591,0.64502,0.22483,0.27002,13.305
8.952,1.6334,0.60396,0.66992,0.26002,0.30029,13.188
8.96,1.6217,0.60225,0.71484,0.28495,0.24512,13.119
8.968,1.6129,0.5998,0.6499,0.26002,0.3252,13.188
8.976,1.6041,0.59761,0.6001,0.24976,0.38525,13.373
8.984,1.5963,0.59443,0.6001,0.26491,0.38525,13.686
8.992,1.5885,0.59125,0.59521,0.24487,0.38525,13.999
9,1.5787,0.58734,0.61475,0.26491,0.35986,14.311
9.008,1.5679,0.58368,0.62988,0.29472,0.35986,14.438
9.016,1.5591,0.57977,0.64502,0.30987,0.36523,14.438
9.024,1.5513,0.57586,0.68018,0.3348,0.3252,14.184
9.032,1.5435,0.57195,0.68994,0.33969,0.31006,13.93
9.04,1.5357,0.56829,0.66016,0.27468,0.30518,13.745
9.048,1.5318,0.56389,0.62988,0.26491,0.33008,13.745
9.056,1.5337,0.55974,0.62012,0.26979,0.31982,13.872
9.064,1.5415,0.55509,0.64502,0.26491,0.33008,13.999
9.072,1.5611,0.5507,0.65479,0.28983,0.33984,13.999
9.08,1.5934,0.54679,0.64502,0.3001,0.3501,13.872
9.088,1.6383,0.54288,0.73486,0.32502,0.26025,13.686
9.096,1.6901,0.53946,0.62988,0.24976,0.34521,13.559
9.104,1.7507,0.53628,0.59521,0.22483,0.37012,13.559
9.112,1.8074,0.53359,0.5752,0.21457,0.38525,13.686
9.12,1.8622,0.53091,0.58496,0.22972,0.36523,13.745
9.128,1.9218,0.52846,0.6001,0.1999,0.33496,13.813
9.136,1.9785,0.52626,0.60498,0.21457,0.3501,13.813
9.144,2.0332,0.5248,0.59521,0.23998,0.36523,13.872
9.152,2.087,0.52333,0.69482,0.26979,0.2749,13.999
9.16,2.1369,0.52236,0.64014,0.30499,0.35498,14.184
9.168,2.1779,0.52162,0.6001,0.28495,0.39502,14.438
9.176,2.2141,0.52065,0.54492,0.25464,0.44482,14.682
9.184,2.2454,0.51991,0.5498,0.24487,0.41992,14.995
9.192,2.2708,0.51893,0.56494,0.25464,0.38525,15.249
9.2,2.2913,0.5182,0.47021,0.31476,0.44482,15.493
9.208,2.3089,0.51771,0.34521,0.52493,0.50488,15.689
9.216,2.3216,0.51747,0.29004,0.67498,0.43018,15.933
9.224,2.3314,0.51747,0.48486,0.49511,0.29004,16.06
9.232,2.3402,0.51747,0.68018,0.30499,0.30518,16.118
9.24,2.3451,0.51722,0.79004,0.13978,0.26025,16.06
9.248,2.3451,0.51698,0.80469,0.38514,0.5,16.001
9.256,2.3392,0.51649,0.40479,0.77028,0.83008,15.747
9.264,2.3294,0.516,0.060059,0.94037,1.0898,15.308
9.272,2.3148,0.51527,-0.10498,0.98045,1.1699,14.868
9.28,2.2942,0.51478,0.19531,0.58993,0.81006,14.497
9.288,2.2688,0.51405,0.47998,0.30499,0.48486,14.243
9.296,2.2424,0.51332,0.58984,0.17986,0.35498,14.057
9.304,2.218,0.51258,0.66504,0.15982,0.28516,13.813
9.312,2.1945,0.51185,0.68994,0.16471,0.26514,13.432
9.32,2.1711,0.51087,0.6748,0.15494,0.28027,13.061
9.328,2.1447,0.51014,0.66992,0.17986,0.29004,12.807
9.336,2.1124,0.50916,0.7251,0.19501,0.24023,12.621
9.344,2.0909,0.50818,0.68506,0.17498,0.29492,12.494
9.352,2.0792,0.50721,0.64502,0.18964,0.33984,12.436
9.36,2.0587,0.50623,0.64502,0.17986,0.31982,12.25
9.368,2.0352,0.50525,0.66504,0.1696,0.2749,12.064
9.376,2.0156,0.50428,0.68018,0.14467,0.25488,11.937
9.384,1.9971,0.5033,0.66504,0.16471,0.26514,11.937
9.392,1.9775,0.50232,0.68018,0.18475,0.2749,12.064
9.4,1.955,0.50134,0.63477,0.16471,0.30029,12.25
9.408,1.9335,0.50037,0.625,0.16471,0.29492,12.182
9.416,1.914,0.49939,0.6499,0.19501,0.28516,11.625
9.424,1.8964,0.49841,0.66504,0.1999,0.2749,10.814
9.432,1.8768,0.4967,0.64014,0.17498,0.29492,10.12
9.44,1.8563,0.49524,0.62988,0.14956,0.29004,9.9348
9.448,1.8377,0.49304,0.64502,0.13978,0.25,10.189
9.456,1.8201,0.49108,0.66504,0.12463,0.20508,10.619
9.464,1.8025,0.48815,0.68994,0.13978,0.18018,10.814
9.472,1.7859,0.48546,0.63477,0.14467,0.24512,10.56
9.48,1.7693,0.48204,0.62012,0.12463,0.25488,9.9348
9.488,1.7546,0.47862,0.64014,0.15982,0.24023,9.3096
9.496,1.7429,0.4752,0.62988,0.17498,0.23486,8.9384
9.504,1.7331,0.47178,0.64502,0.1999,0.22021,8.87
9.512,1.7263,0.46812,0.6499,0.22483,0.23486,8.9384
9.52,1.7204,0.46445,0.65479,0.23998,0.25,8.997
9.528,1.7116,0.45883,0.6748,0.25464,0.22021,8.87
9.536,1.7009,0.45321,0.69482,0.27468,0.21484,8.7431
9.544,1.6891,0.44588,0.58496,0.26002,0.375,8.6258
9.552,1.6745,0.4388,0.56982,0.26002,0.41016,8.7431
9.56,1.6608,0.43122,0.5752,0.28006,0.40479,8.9384
9.568,1.65,0.42365,0.59521,0.28495,0.39502,9.251
9.576,1.6403,0.41559,0.56006,0.23998,0.40479,9.4366
9.584,1.6315,0.40777,0.59521,0.21994,0.34521,9.5636
9.592,1.6207,0.39726,0.60498,0.23998,0.33008,9.5636
9.6,1.607,0.38676,0.62012,0.26491,0.34521,9.4952
9.608,1.5934,0.37405,0.65479,0.28983,0.31494,9.4952
9.616,1.5826,0.36159,0.70508,0.3348,0.28516,9.4952
9.624,1.5728,0.34816,0.60498,0.33969,0.41992,9.4952
9.632,1.564,0.33496,0.54492,0.24976,0.45508,9.4952
9.64,1.5552,0.32152,0.54004,0.22972,0.41992,9.4952
9.648,1.5464,0.30809,0.56494,0.22972,0.3999,9.5636
9.656,1.5386,0.29612,0.5752,0.23998,0.37988,9.6222
9.664,1.5279,0.28414,0.56006,0.22972,0.36523,9.6809
9.672,1.5161,0.27315,0.62012,0.24487,0.33008,9.7492
9.68,1.5083,0.2624,0.59521,0.28983,0.39014,9.8078
9.688,1.5044,0.25165,0.58496,0.30987,0.40479,9.7492
9.696,1.5024,0.2409,0.62988,0.31965,0.375,9.5636
9.704,1.5034,0.23039,0.66504,0.3348,0.33496,9.3096
9.712,1.5103,0.21989,0.65479,0.30987,0.30518,8.997
9.72,1.5269,0.21085,0.66016,0.29472,0.29492,8.6844
9.728,1.5533,0.20205,0.64502,0.26979,0.30518,8.3718
9.736,1.5924,0.19423,0.66992,0.26491,0.28027,8.1862
9.744,1.6432,0.18666,0.58008,0.22483,0.38525,8.1179
9.752,1.7019,0.17835,0.54492,0.20968,0.44482,8.1179
9.76,1.7644,0.17029,0.5498,0.25464,0.45508,8.0006
9.768,1.8299,0.16174,0.58008,0.28006,0.43018,7.8052
9.776,1.8964,0.15343,0.62988,0.31965,0.39502,7.561
9.784,1.9609,0.14464,0.60986,0.26979,0.38525,7.307
9.792,2.0225,0.13609,0.52979,0.18964,0.40479,7.18
9.8,2.0811,0.12729,0.5,0.15494,0.4248,7.2484
9.808,2.1329,0.11849,0.5249,0.17986,0.3999,7.3754
9.816,2.174,0.11019,0.54004,0.21457,0.38525,7.561
9.824,2.2092,0.10213,0.54492,0.21457,0.39502,7.8736
9.832,2.2434,0.094307,0.5752,0.23998,0.38525,8.3132
9.84,2.2708,0.086489,0.59521,0.26979,0.37988,8.87
9.848,2.2933,0.078427,0.60986,0.35973,0.43018,9.3683
9.856,2.3128,0.070608,0.49023,0.565,0.54492,9.7492
9.864,2.3304,0.062546,0.3501,0.68524,0.5498,9.8762
9.872,2.346,0.054728,0.30518,0.51515,0.375,9.8762
9.88,2.3558,0.047887,0.55518,0.24487,0.31494,9.7492
9.888,2.3607,0.041046,0.69482,0.0043988,0.24512,9.7492
9.896,2.3607,0.034938,0.75977,-0.035191,0.24023,9.8762
9.904,2.3548,0.02883,0.625,0.41007,0.52979,9.9935
9.912,2.3431,0.022477,0.375,0.76002,0.7998,10.062
9.92,2.3255,0.016125,0.125,0.92522,1.0601,9.8762
9.928,2.3021,0.0095285,-0.0097656,1.0103,1.165,9.3096
9.936,2.2776,0.0029318,0.25,0.70039,0.83008,8.6258
9.944,2.2522,0.0012216,0.5,0.39492,0.51514,7.9322
9.952,2.2229,-0.00048864,0.6499,0.24976,0.31006,7.434
9.96,2.1867,-0.00048864,0.6748,0.17498,0.26514,7.1214
9.968,2.1476,-0.00048864,0.6001,0.12952,0.33008,6.8674
9.976,2.1095,-0.00048864,0.5498,0.11975,0.37988,6.7502
9.984,2.0733,-0.00048864,0.58496,0.12952,0.35498,6.6818
9.992,2.0411,-0.00048864,0.5752,0.14467,0.37012,6.6818
10,2.0117,-0.00048864,0.62988,0.14467,0.33008,6.6818
10.008,1.9873,-0.00048864,0.64014,0.17986,0.3252,6.5548
10.016,1.9658,-0.00048864,0.64014,0.2346,0.38525,6.125
10.024,1.9472,-0.00048864,0.6748,0.23998,0.39502,5.5584
10.032,1.9296,-0.00048864,0.68506,0.18475,0.27002,5.1872
10.04,1.912,-0.00048864,0.61475,0.11975,0.25488,5.0602
10.048,1.8954,-0.00048864,0.58496,0.084555,0.31006,5.1872
10.056,1.8778,-0.00048864,0.62012,0.079668,0.26025,5.0016
10.064,1.8612,-0.00048864,0.6001,0.099707,0.28027,4.181
10.072,1.8446,-0.00048864,0.5752,0.10948,0.33496,2.872
10.08,1.828,-0.00048864,0.625,0.15494,0.3252,1.6216
10.088,1.8113,-0.00048864,0.64502,0.20479,0.31982,0.9378
10.096,1.7937,-0.00048864,0.6001,0.1349,0.31006,0.9378
10.104,1.7752,-0.00048864,0.58984,0.089932,0.2749,1.2504
10.112,1.7576,-0.00048864,0.61475,0.054741,0.24023,1.4946
10.12,1.741,-0.00048864,0.62988,0.049853,0.21484,1.309
10.128,1.7234,-0.00048864,0.625,0.064516,0.22021,0.86942
10.136,1.7087,-0.00048864,0.66992,0.10948,0.16016,0.24422
10.144,1.695,-0.00048864,0.6748,0.13978,0.2002,-0.3126
10.152,1.6843,-0.00048864,0.58984,0.16471,0.2749,-0.56659
10.16,1.6745,-0.00048864,0.59521,0.18475,0.29004,-0.43959
10.168,1.6657,-0.00048864,0.59521,0.21457,0.31494,-0.19538
10.176,1.6569,-0.00048864,0.58008,0.26491,0.37988,0.11723
10.184,1.6481,-0.00048864,0.60498,0.28006,0.35986,0.24422
10.192,1.6393,-0.00048864,0.62988,0.26002,0.3252,0.3126
10.2,1.6285,-0.00048864,0.61475,0.23998,0.31982,0.24422
10.208,1.6197,-0.00048864,0.6001,0.26002,0.33496,0.3126
10.216,1.6129,-0.00048864,0.70996,0.28495,0.24023,0.42983
10.224,1.6031,-0.00048864,0.73975,0.28983,0.22021,0.74243
10.232,1.5894,0.0021989,0.55518,0.26491,0.43994,1.055
10.24,1.5748,0.0048864,0.50488,0.26002,0.49512,1.3676
10.248,1.5582,0.0078182,0.5,0.26491,0.5,1.6802
10.256,1.5415,0.01075,0.53516,0.27468,0.4751,2.0612
10.264,1.5269,0.013926,0.54004,0.26979,0.4502,2.3738
10.272,1.5161,0.017102,0.56494,0.25464,0.4248,2.6864
10.28,1.5083,0.020279,0.58496,0.22972,0.39014,2.999
10.288,1.5044,0.023455,0.61475,0.21457,0.36523,3.3116
10.296,1.5024,0.026631,0.62012,0.20968,0.33496,3.4386
10.304,1.5015,0.029807,0.62988,0.2346,0.33008,3.3702
10.312,1.5015,0.032983,0.63477,0.23998,0.34521,3.2432
10.32,1.5015,0.036159,0.60498,0.21457,0.37012,3.3116
10.328,1.5015,0.039335,0.59521,0.1999,0.37988,3.4972
10.336,1.5015,0.042512,0.6499,0.19501,0.31006,3.5558
10.344,1.5015,0.045688,0.61475,0.23998,0.3501,3.3116
10.352,1.5015,0.048864,0.6001,0.22483,0.375,2.9306
10.36,1.5015,0.051796,0.60986,0.23998,0.36523,2.745
10.368,1.5015,0.054728,0.5752,0.28006,0.40479,2.9306
10.376,1.5034,0.057659,0.62012,0.32991,0.38525,3.2432
10.384,1.5122,0.060591,0.62988,0.31476,0.39502,3.4972
10.392,1.5337,0.063523,0.64502,0.30987,0.375,3.4386
10.4,1.5699,0.066455,0.62012,0.2346,0.33984,3.126
10.408,1.6109,0.069142,0.58984,0.20479,0.33496,2.745
10.416,1.6588,0.072074,0.56494,0.1999,0.40479,2.618
10.424,1.7185,0.074273,0.52979,0.1999,0.43506,2.618
10.432,1.7771,0.076716,0.56006,0.2346,0.39502,2.8134
10.44,1.8358,0.078427,0.62012,0.26491,0.35986,2.9306
10.448,1.8944,0.080381,0.58496,0.28006,0.43994,2.745
10.456,1.9472,0.082336,0.52979,0.28983,0.49512,2.4324
10.464,1.9941,0.08429,0.55518,0.24487,0.41504,2.1198
10.472,2.0391,0.086,0.56006,0.1999,0.375,1.9928
10.48,2.0821,0.087955,0.53516,0.20479,0.39014,2.2468
10.488,2.1232,0.088932,0.54492,0.19501,0.3999,2.9306
10.496,2.1584,0.08991,0.56494,0.21994,0.37988,3.7512
10.504,2.1848,0.090398,0.58984,0.31476,0.43506,4.4936
10.512,2.1994,0.090887,0.60498,0.50978,0.47021,4.8746
10.52,2.2092,0.09162,0.3999,0.60508,0.51514,4.9332
10.528,2.216,0.092597,0.26025,0.62023,0.43506,4.8062
10.536,2.2219,0.093574,0.44482,0.35973,0.31982,4.8746
10.544,2.2248,0.094796,0.62988,0.10948,0.33496,5.3728
10.552,2.2219,0.096018,0.72998,-0.030303,0.25488,6.0566
10.56,2.216,0.097484,0.73486,0.22483,0.43994,6.4962
10.568,2.2092,0.099194,0.50977,0.62023,0.6748,6.4962
10.576,2.1975,0.10115,0.26514,0.85533,0.95508,5.998
10.584,2.1789,0.10384,0.02002,1.0352,1.1699,5.4314
10.592,2.1564,0.10677,0.23486,0.87537,0.88477,5.0602
10.6,2.131,0.11043,0.43994,0.44477,0.5752,4.9332
10.608,2.1036,0.1141,0.49023,0.1999,0.4502,5.0016
10.616,2.0753,0.11801,0.55518,0.1349,0.35986,4.9332
10.624,2.0459,0.12192,0.58496,0.12952,0.33496,4.7476
10.632,2.0205,0.12582,0.6001,0.1349,0.34521,4.4936
10.64,1.998,0.12998,0.66016,0.17986,0.29004,4.3764
10.648,1.9756,0.13486,0.71484,0.20479,0.24512,4.4936
10.656,1.956,0.13975,0.66016,0.1696,0.30518,4.8062
10.664,1.9384,0.14537,0.58984,0.1999,0.4248,5.0016
10.672,1.9189,0.15099,0.6001,0.22972,0.43018,4.8746
10.68,1.8983,0.15612,0.63477,0.16471,0.33496,4.435
10.688,1.8798,0.1615,0.66992,0.13978,0.27002,4.0638
10.696,1.8622,0.16614,0.6001,0.10459,0.30029,4.0638
10.704,1.8446,0.17102,0.56006,0.094819,0.3252,4.308
10.712,1.8299,0.17591,0.58984,0.099707,0.30518,4.4936
10.72,1.8162,0.1808,0.65479,0.12952,0.25488,3.9954
10.728,1.8006,0.18568,0.66504,0.15982,0.25,2.8134
10.736,1.7849,0.19057,0.6748,0.1696,0.2749,1.4946
10.744,1.7713,0.19546,0.64502,0.17986,0.31006,0.81081
10.752,1.7595,0.20059,0.6001,0.1696,0.37012,0.9378
10.76,1.7498,0.20547,0.56982,0.14467,0.39014,1.3676
10.768,1.739,0.21036,0.60498,0.1349,0.31006,1.563
10.776,1.7273,0.21427,0.63477,0.10948,0.25,1.3676
10.784,1.7146,0.21818,0.66504,0.069892,0.16504,0.81081
10.792,1.7019,0.22111,0.68506,0.064516,0.12988,0.3126
10.8,1.6911,0.22429,0.69482,0.13978,0.12012,0.11723
10.808,1.6843,0.22697,0.64502,0.15494,0.20508,0.3126
10.816,1.6784,0.2299,0.59521,0.18475,0.29004,0.68381
10.824,1.6716,0.23259,0.58008,0.21457,0.31494,1.055
10.832,1.6637,0.23528,0.62988,0.26491,0.29492,1.309
10.84,1.6559,0.23797,0.66992,0.3348,0.29004,1.4946
10.848,1.6471,0.24065,0.64014,0.34995,0.34521,1.6802
10.856,1.6393,0.2431,0.56006,0.27468,0.41504,1.9928
10.864,1.6305,0.24579,0.54492,0.24976,0.4248,2.3738
10.872,1.6227,0.24774,0.5752,0.23998,0.375,2.8134
10.88,1.6139,0.24969,0.6001,0.2346,0.33008,3.1846
10.888,1.6031,0.25116,0.5752,0.24487,0.36523,3.6242
10.896,1.5914,0.25263,0.56982,0.26491,0.38525,3.9954
10.904,1.5797,0.25312,0.55518,0.26491,0.4248,4.435
10.912,1.567,0.2536,0.56494,0.24976,0.41992,4.8062
10.92,1.5572,0.25336,0.5752,0.32502,0.45996,5.0602
10.928,1.5435,0.25336,0.56006,0.33969,0.49512,5.2458
10.936,1.5279,0.25263,0.55518,0.2346,0.39502,5.4998
10.944,1.5161,0.25214,0.59521,0.1999,0.33496,5.744
10.952,1.5083,0.25092,0.62012,0.18475,0.29492,6.125
10.96,1.5044,0.24994,0.625,0.21994,0.33008,6.4962
10.968,1.5024,0.24798,0.59521,0.21994,0.35498,6.6818
10.976,1.4995,0.24627,0.58008,0.21457,0.36523,6.6232
10.984,1.4936,0.24383,0.6001,0.2346,0.37012,6.6232
10.992,1.4848,0.24139,0.62012,0.24487,0.33496,6.8674
11,1.4712,0.23894,0.56494,0.23998,0.44482,7.434
11.008,1.4604,0.2365,0.55518,0.26491,0.4751,7.9322
11.016,1.4555,0.23406,0.58984,0.21994,0.38525,8.1862
11.024,1.4526,0.23186,0.59521,0.24487,0.36523,8.1862
11.032,1.4555,0.22917,0.5752,0.26002,0.39014,8.1179
11.04,1.4653,0.22673,0.6001,0.28495,0.375,8.1179
11.048,1.4809,0.2238,0.63477,0.3001,0.35498,8.3132
11.056,1.5054,0.22086,0.66504,0.28983,0.31006,8.5574
11.064,1.5386,0.21867,0.73486,0.29472,0.24023,8.8114
11.072,1.5806,0.21647,0.64014,0.26491,0.33984,9.0557
11.08,1.6315,0.215,0.58496,0.21457,0.38525,9.124
11.088,1.6882,0.21354,0.55518,0.21994,0.41016,9.1826
11.096,1.7498,0.21256,0.54004,0.1999,0.43018,9.0557
11.104,1.8143,0.21183,0.5249,0.22972,0.44482,8.9384
11.112,1.869,0.21134,0.54004,0.26491,0.45508,8.87
11.12,1.9159,0.21085,0.58008,0.26979,0.40479,9.124
11.128,1.9619,0.21158,0.58984,0.24487,0.38525,9.6222
11.136,2.0059,0.21256,0.55518,0.22483,0.3999,10.189
11.144,2.0489,0.21427,0.5752,0.21994,0.35986,10.746
11.152,2.0899,0.21622,0.56494,0.21457,0.37012,11.371
11.16,2.1251,0.21818,0.52979,0.22483,0.41992,12.064
11.168,2.1554,0.22013,0.53516,0.26979,0.44482,12.748
11.176,2.1828,0.22233,0.46484,0.38514,0.52002,13.246
11.184,2.2072,0.22477,0.35498,0.58993,0.5498,13.5
11.192,2.2258,0.22819,0.29004,0.71505,0.4751,13.5
11.2,2.2395,0.23161,0.4751,0.52981,0.30029,13.432
11.208,2.2463,0.23577,0.61475,0.26979,0.33008,13.373
11.216,2.2454,0.23992,0.66504,0.044477,0.3501,13.246
11.224,2.2405,0.24481,0.64502,0.21994,0.47021,13.002
11.232,2.2336,0.24994,0.49023,0.6002,0.65479,12.621
11.24,2.2239,0.25531,0.15527,0.82502,1.0146,12.25
11.248,2.2111,0.26069,-0.094727,0.97019,1.2197,12.064
11.256,2.1935,0.26606,0.060059,0.78006,1,11.996
11.264,2.173,0.27144,0.40479,0.435,0.60986,11.937
11.272,2.1496,0.27657,0.58008,0.3001,0.41992,11.752
11.28,2.1232,0.28194,0.63477,0.20479,0.31494,11.371
11.288,2.0948,0.28805,0.66504,0.17498,0.29004,10.931
11.296,2.0665,0.29441,0.7002,0.19501,0.25488,10.433
11.304,2.0371,0.30125,0.70996,0.19501,0.24023,10.189
11.312,2.0147,0.30809,0.65479,0.1696,0.2749,10.189
11.32,1.9971,0.31395,0.62988,0.15494,0.31006,10.433
11.328,1.9795,0.31981,0.64502,0.16471,0.30518,10.746
11.336,1.9599,0.32519,0.66992,0.18475,0.28516,10.814
11.344,1.9404,0.33056,0.69482,0.19501,0.26514,10.619
11.352,1.9179,0.33716,0.72998,0.21994,0.2251,10.501
11.36,1.8895,0.344,0.70508,0.19501,0.26025,10.619
11.368,1.8583,0.35182,0.60498,0.17498,0.34521,11.058
11.376,1.826,0.35964,0.53516,0.14467,0.43506,11.371
11.384,1.7957,0.36795,0.52979,0.18475,0.4502,11.244
11.392,1.7869,0.37625,0.6499,0.23998,0.34521,10.306
11.4,1.7928,0.3848,0.66504,0.20968,0.3252,9.3096
11.408,1.7918,0.39335,0.625,0.1349,0.2749,8.87
11.416,1.7859,0.40142,0.64014,0.084555,0.2251,9.3683
11.424,1.7791,0.40972,0.68018,0.10459,0.19531,10.374
11.432,1.7703,0.41779,0.69482,0.11975,0.18994,11.127
11.44,1.7615,0.42609,0.69482,0.12463,0.19531,11
11.448,1.7527,0.43489,0.68994,0.13978,0.18506,10.12
11.456,1.739,0.44368,0.68506,0.15494,0.20996,9.124
11.464,1.7234,0.45297,0.68018,0.1696,0.22021,8.6258
11.472,1.7058,0.4625,0.6748,0.19501,0.21484,8.8114
11.48,1.6833,0.4708,0.7002,0.21457,0.17529,9.4366
11.488,1.6588,0.47911,0.7251,0.22972,0.16016,10.062
11.496,1.6325,0.48668,0.73486,0.27468,0.20508,10.374
11.504,1.6031,0.49426,0.625,0.23998,0.30029,10.374
11.512,1.5767,0.50208,0.6001,0.22483,0.33984,10.374
11.52,1.5523,0.51014,0.58984,0.23998,0.35986,10.56
11.528,1.522,0.5182,0.59521,0.22483,0.3501,10.931
11.536,1.4888,0.52626,0.59521,0.24487,0.36523,11.371
11.544,1.4536,0.53408,0.60498,0.25464,0.35986,11.556
11.552,1.4174,0.5419,0.62988,0.30987,0.3999,11.439
11.56,1.3812,0.54923,0.64014,0.32991,0.41016,11.185
11.568,1.3441,0.55656,0.65479,0.31476,0.33496,11
11.576,1.3099,0.56218,0.62012,0.25464,0.34521,11
11.584,1.2786,0.5678,0.56494,0.21994,0.37988,11.312
11.592,1.2493,0.57195,0.56982,0.22972,0.39014,11.81
11.6,1.2209,0.57611,0.58984,0.23998,0.38525,12.25
11.608,1.2004,0.57904,0.58496,0.24487,0.39014,12.563
11.616,1.1828,0.58197,0.62012,0.25464,0.35986,12.621
11.624,1.1603,0.58417,0.61475,0.26491,0.36523,12.494
11.632,1.1359,0.58637,0.60986,0.26002,0.375,12.309
11.64,1.1095,0.58734,0.64014,0.26491,0.3501,12.309
11.648,1.0821,0.58832,0.6499,0.26979,0.33984,12.377
11.656,1.0547,0.58832,0.63477,0.28006,0.35986,12.309
11.664,1.0323,0.58832,0.6499,0.24487,0.3252,12.064
11.672,1.0166,0.58759,0.62988,0.22972,0.31982,11.996
11.68,1.0088,0.58686,0.64014,0.26491,0.34521,12.182
11.688,1.0088,0.58563,0.62012,0.30499,0.37012,12.563
11.696,1.0205,0.58441,0.64502,0.30987,0.33496,12.934
11.704,1.0469,0.58319,0.63477,0.29472,0.34521,13.002
11.712,1.0831,0.58197,0.64502,0.28495,0.35498,12.748
11.72,1.131,0.58099,0.66504,0.26491,0.3252,12.309
11.728,1.1916,0.58001,0.66504,0.24487,0.31982,11.937
11.736,1.259,0.57953,0.63477,0.24976,0.33984,11.869
11.744,1.3294,0.57928,0.625,0.23998,0.35498,11.996
11.752,1.4008,0.57928,0.62988,0.24976,0.3501,12.182
11.76,1.4712,0.57953,0.60986,0.24487,0.36523,12.377
11.768,1.5367,0.58001,0.59521,0.24976,0.375,12.494
11.776,1.5943,0.5805,0.5752,0.23998,0.38525,12.621
11.784,1.6461,0.58124,0.59521,0.24976,0.37012,12.748
11.792,1.695,0.58197,0.58984,0.24487,0.37988,13.061
11.8,1.738,0.58295,0.58496,0.26002,0.35986,13.5
11.808,1.7713,0.58392,0.62012,0.26979,0.3501,13.999
11.816,1.7947,0.58515,0.58496,0.25464,0.39502,14.497
11.824,1.8104,0.58637,0.56982,0.28006,0.3999,14.936
11.832,1.8211,0.58759,0.5752,0.41007,0.39502,15.181
11.84,1.824,0.58881,0.37988,0.60508,0.50488,15.249
11.848,1.8211,0.59028,0.25,0.71017,0.5249,15.249
11.856,1.8143,0.59174,0.43506,0.50978,0.33984,15.249
11.864,1.8065,0.5937,0.625,0.28006,0.33496,15.308
11.872,1.7986,0.5959,0.7002,0.084555,0.3252,15.376
11.88,1.7898,0.59834,0.70996,0.30987,0.49512,15.308
11.888,1.781,0.60103,0.4248,0.74536,0.77002,14.995
11.896,1.7713,0.60396,0.10986,0.95015,1.0498,14.438
11.904,1.7625,0.60689,-0.049805,1.0103,1.1396,13.872
11.912,1.7488,0.61007,0.23486,0.66031,0.81494,13.5
11.92,1.7283,0.61324,0.5,0.3348,0.47998,13.305
11.928,1.7038,0.61593,0.62012,0.20968,0.3252,13.119
11.936,1.6784,0.61886,0.66016,0.17498,0.28516,12.807
11.944,1.652,0.6213,0.64014,0.15494,0.31006,12.377
11.952,1.6295,0.62399,0.65479,0.14467,0.30029,11.996
11.96,1.609,0.62619,0.66992,0.15982,0.29004,11.81
11.968,1.5865,0.62863,0.68506,0.18964,0.28027,11.869
11.976,1.5709,0.63059,0.7002,0.19501,0.26025,12.123
11.984,1.563,0.63279,0.73486,0.20968,0.22998,12.309
11.992,1.5591,0.63425,0.71484,0.21994,0.26514,12.309
12,1.5572,0.63596,0.68506,0.20479,0.29492,12.182
12.008,1.5591,0.63694,0.66016,0.18964,0.31982,12.123
12.016,1.564,0.63792,0.64014,0.17986,0.33496,12.309
12.024,1.5709,0.63841,0.68994,0.18475,0.22998,12.69
12.032,1.5797,0.63914,0.69482,0.14467,0.22021,13.002
12.04,1.5885,0.63938,0.6748,0.15494,0.25,12.807
12.048,1.5992,0.63963,0.68994,0.17498,0.23486,12.123
12.056,1.6139,0.63963,0.75488,0.21994,0.18506,11.312
12.064,1.6305,0.63963,0.81006,0.28495,0.15527,10.873
12.072,1.6481,0.63914,0.6499,0.24976,0.3501,11.185
12.08,1.6657,0.6389,0.60986,0.15982,0.35986,11.937
12.088,1.6843,0.63792,0.6499,0.11486,0.24023,12.563
12.096,1.7028,0.63719,0.68506,0.099707,0.18018,12.69
12.104,1.7214,0.63596,0.70508,0.10459,0.16504,12.182
12.112,1.74,0.63474,0.70996,0.14467,0.16016,11.439
12.12,1.7605,0.63401,0.72998,0.1999,0.16992,10.931
12.128,1.7849,0.63328,0.75488,0.22483,0.14502,11
12.136,1.8084,0.63303,0.75,0.24976,0.17529,11.371
12.144,1.8289,0.63279,0.7251,0.28983,0.23486,11.752
12.152,1.8475,0.63254,0.66504,0.23998,0.25488,11.869
12.16,1.8661,0.6323,0.66016,0.22483,0.25,11.683
12.168,1.8847,0.63181,0.66992,0.24487,0.24023,11.439
12.176,1.9032,0.63132,0.64502,0.24976,0.29492,11.439
12.184,1.9218,0.63083,0.62988,0.25464,0.33496,11.683
12.192,1.9404,0.63034,0.62012,0.24976,0.35986,12.182
12.2,1.9541,0.62961,0.6499,0.26491,0.3252,12.748
12.208,1.9609,0.62912,0.65479,0.26491,0.31494,13.061
12.216,1.9687,0.62839,0.66504,0.31476,0.37012,13.061
12.224,1.9795,0.62766,0.625,0.3348,0.41992,12.934
12.232,1.9902,0.62692,0.60986,0.26002,0.3501,12.748
12.24,2.002,0.62619,0.64014,0.2346,0.30029,12.748
12.248,2.0127,0.62473,0.66504,0.22972,0.28516,12.875
12.256,2.0176,0.6235,0.68018,0.28006,0.29004,13.188
12.264,2.0205,0.62179,0.71484,0.30499,0.27002,13.559
12.272,2.0215,0.62033,0.63477,0.26491,0.33008,13.813
12.28,2.0225,0.61886,0.59521,0.27468,0.39502,13.93
12.288,2.0225,0.6174,0.6001,0.3001,0.40479,14.057
12.296,2.0225,0.61593,0.61475,0.28495,0.37012,14.126
12.304,2.0225,0.61471,0.64014,0.26491,0.31982,14.126
12.312,2.0274,0.613,0.68506,0.26491,0.27002,13.93
12.32,2.0371,0.61129,0.7002,0.28983,0.25488,13.686
12.328,2.0489,0.60933,0.71973,0.32991,0.27002,13.373
12.336,2.0655,0.60738,0.64502,0.32502,0.35986,13.305
12.344,2.088,0.60542,0.60986,0.3348,0.41016,13.432
12.352,2.1153,0.60371,0.63477,0.33969,0.37988,13.745
12.36,2.1496,0.60225,0.66016,0.31965,0.3501,13.999
12.368,2.1945,0.60103,0.66992,0.26002,0.31006,14.126
12.376,2.2512,0.60005,0.65479,0.2346,0.31006,14.126
12.384,2.3157,0.59932,0.6499,0.21457,0.30029,13.93
12.392,2.3851,0.59907,0.64014,0.22972,0.31494,13.745
12.4,2.4545,0.59907,0.64502,0.25464,0.3252,13.618
12.408,2.5122,0.5998,0.64014,0.26979,0.33008,13.5
12.416,2.566,0.60054,0.66504,0.28983,0.31494,13.5
12.424,2.6256,0.602,0.63477,0.24487,0.3252,13.5
12.432,2.6823,0.60371,0.60986,0.22972,0.33984,13.618
12.44,2.7361,0.60542,0.62012,0.25464,0.3501,13.813
12.448,2.7859,0.60713,0.58008,0.26491,0.39014,14.126
12.456,2.8338,0.60884,0.56494,0.25464,0.40479,14.682
12.464,2.8807,0.61055,0.62988,0.28495,0.3501,15.308
12.472,2.9228,0.61275,0.64014,0.3001,0.33496,15.933
12.48,2.955,0.6152,0.52002,0.34995,0.43506,16.431
12.488,2.9804,0.61764,0.37988,0.54008,0.47998,16.685
12.496,3.002,0.62033,0.26514,0.68035,0.49023,16.685
12.504,3.0127,0.62326,0.45508,0.52493,0.30518,16.558
12.512,3.0137,0.62644,0.68018,0.31965,0.26514,16.372
12.52,3.0147,0.62937,0.73486,0.094819,0.24512,16.187
12.528,3.0127,0.63254,0.6748,0.32991,0.52979,16.001
12.536,3.0049,0.63474,0.4502,0.77028,0.7998,15.747
12.544,2.9912,0.63719,0.095215,0.95552,1.0801,15.376
12.552,2.9736,0.6389,-0.089844,0.9956,1.1597,14.936
12.56,2.9511,0.64061,0.22021,0.62023,0.78516,14.555
12.568,2.9257,0.64207,0.51514,0.32991,0.46484,14.243
12.576,2.8993,0.64378,0.6748,0.23998,0.30029,13.999
12.584,2.8719,0.64525,0.7002,0.21994,0.2749,13.745
12.592,2.8426,0.64696,0.69482,0.17986,0.25488,13.5
12.6,2.8074,0.64794,0.66992,0.15494,0.29492,13.246
12.608,2.7693,0.64916,0.66016,0.19501,0.33008,13.188
12.616,2.7312,0.64965,0.69482,0.1999,0.28027,13.305
12.624,2.6891,0.65038,0.70996,0.12952,0.21484,13.432
12.632,2.6432,0.65111,0.70508,0.11486,0.2002,13.5
12.64,2.5973,0.65184,0.68018,0.14956,0.26514,13.432
12.648,2.5533,0.65282,0.75,0.18964,0.2002,13.305
12.656,2.5132,0.6538,0.81494,0.2346,0.12988,13.246
12.664,2.4751,0.65478,0.7002,0.23998,0.30029,13.432
12.672,2.4399,0.656,0.625,0.17498,0.35986,13.813
12.68,2.4086,0.65722,0.63477,0.15982,0.3252,14.243
12.688,2.3793,0.65844,0.62012,0.14956,0.31494,14.311
12.696,2.348,0.65966,0.66016,0.15982,0.2749,13.813
12.704,2.3187,0.66113,0.66504,0.1696,0.26514,13.061
12.712,2.2903,0.66259,0.69482,0.15494,0.20996,12.494
12.72,2.26,0.66406,0.7251,0.15982,0.18994,12.494
12.728,2.2307,0.66602,0.73975,0.1696,0.16992,13.061
12.736,2.2023,0.66821,0.78516,0.17498,0.12012,13.618
12.744,2.175,0.67066,0.76514,0.17986,0.14502,13.872
12.752,2.1515,0.6731,0.68994,0.15982,0.24512,13.5
12.76,2.1359,0.6753,0.66504,0.15982,0.27002,12.621
12.768,2.1212,0.6775,0.66504,0.13978,0.20508,11.869
12.776,2.1046,0.6797,0.66504,0.14467,0.19531,11.625
12.784,2.089,0.6819,0.68506,0.18475,0.18506,11.937
12.792,2.0743,0.68434,0.68994,0.21457,0.20996,12.563
12.8,2.0606,0.68703,0.6748,0.2346,0.24023,13.061
12.808,2.0489,0.68971,0.66016,0.24487,0.2749,13.246
12.816,2.0381,0.6924,0.66016,0.26491,0.29492,13.119
12.824,2.0264,0.69436,0.6748,0.26002,0.2749,12.875
12.832,2.0108,0.69631,0.66992,0.26491,0.28516,12.807
12.84,1.9941,0.69753,0.68506,0.26002,0.30029,13.061
12.848,1.9765,0.69875,0.62988,0.23998,0.3501,13.5
12.856,1.958,0.699,0.60498,0.2346,0.37988,13.93
12.864,1.9374,0.69924,0.63477,0.23998,0.35498,14.184
12.872,1.9159,0.69851,0.63477,0.24976,0.33984,14.243
12.88,1.8964,0.69802,0.66504,0.26491,0.31006,14.184
12.888,1.8768,0.6968,0.64014,0.26002,0.33008,14.057
12.896,1.8602,0.69558,0.61475,0.23998,0.36523,13.93
12.904,1.8504,0.69387,0.61475,0.26491,0.375,13.93
12.912,1.8426,0.69216,0.60986,0.26491,0.37988,13.93
12.92,1.8348,0.69069,0.64014,0.28495,0.34521,13.999
12.928,1.826,0.68923,0.66504,0.28983,0.31494,14.184
12.936,1.8172,0.68752,0.68018,0.29472,0.29004,14.37
12.944,1.8084,0.68605,0.64014,0.26491,0.33496,14.438
12.952,1.7996,0.68361,0.62012,0.26002,0.34521,14.311
12.96,1.7898,0.68116,0.625,0.25464,0.33984,13.93
12.968,1.783,0.67799,0.58984,0.28006,0.37988,13.686
12.976,1.782,0.67505,0.58496,0.29472,0.3999,13.559
12.984,1.7859,0.67188,0.62988,0.3001,0.3501,13.559
12.992,1.7947,0.6687,0.64502,0.32991,0.33496,13.559
13,1.8123,0.66553,0.68506,0.3348,0.30029,13.373
13.008,1.8348,0.66235,0.68018,0.28983,0.29004,13.002
13.016,1.8651,0.65966,0.69482,0.26979,0.26514,12.563
13.024,1.912,0.65722,0.68506,0.25464,0.28027,12.182
13.032,1.9717,0.65478,0.62988,0.24487,0.35498,11.937
13.04,2.0411,0.65258,0.58008,0.26002,0.41016,11.869
13.048,2.1173,0.65013,0.56494,0.22483,0.40479,11.81
13.056,2.1945,0.64769,0.5752,0.1999,0.35986,11.752
13.064,2.2698,0.645,0.6001,0.20479,0.33008,11.498
13.072,2.3392,0.64232,0.61475,0.22483,0.33496,11.244
13.08,2.4018,0.63963,0.64014,0.23998,0.31982,11
13.088,2.4575,0.63694,0.62012,0.26979,0.33984,11
13.096,2.5064,0.63376,0.58496,0.26491,0.39014,11.244
13.104,2.5425,0.63059,0.55518,0.26002,0.43506,11.81
13.112,2.5718,0.62595,0.5249,0.27468,0.48486,12.494
13.12,2.6031,0.6213,0.51514,0.30499,0.51514,13.188
13.128,2.6295,0.61495,0.52979,0.32502,0.45508,13.618
13.136,2.652,0.6086,0.4751,0.45503,0.39014,13.745
13.144,2.6706,0.59932,0.33496,0.6349,0.4248,13.5
13.152,2.6843,0.59003,0.30029,0.66031,0.34521,13.061
13.16,2.694,0.5783,0.52979,0.34995,0.3252,12.621
13.168,2.696,0.56658,0.58496,0.14956,0.4248,12.621
13.176,2.695,0.55485,0.68018,0.11975,0.41504,13.002
13.184,2.694,0.54337,0.56982,0.54008,0.61475,13.432
13.192,2.6911,0.53164,0.29004,0.82502,0.8501,13.188
13.2,2.6833,0.51991,0.044922,0.9653,1.0801,12.182
13.208,2.6696,0.50574,-0.024902,1.0152,1.1196,10.873
13.216,2.6491,0.49182,0.2749,0.55523,0.75488,9.9935
13.224,2.6207,0.47618,0.47998,0.30499,0.5249,9.8762
13.232,2.5885,0.46054,0.5498,0.24487,0.45996,10.247
13.24,2.5533,0.44588,0.6001,0.20479,0.39502,10.501
13.248,2.5181,0.43122,0.64502,0.16471,0.30029,10.306
13.256,2.4819,0.4173,0.66504,0.1696,0.26514,9.6222
13.264,2.4477,0.40362,0.64014,0.12463,0.27002,8.87
13.272,2.4164,0.38969,0.70996,0.14956,0.18994,8.3132
13.28,2.3871,0.37576,0.72998,0.1696,0.18018,8.0006
13.288,2.3587,0.36159,0.66016,0.14467,0.30029,7.8736
13.296,2.3314,0.34742,0.62988,0.21994,0.39502,7.688
13.304,2.306,0.3335,0.6001,0.24976,0.43994,7.3754
13.312,2.2815,0.31981,0.625,0.1696,0.3252,7.0628
13.32,2.2532,0.30662,0.64014,0.10459,0.24512,6.8674
13.328,2.2209,0.29367,0.64014,0.10948,0.23486,6.9358
13.336,2.1867,0.28243,0.64014,0.12952,0.25488,7.0628
13.344,2.1535,0.27119,0.66504,0.14467,0.26514,7.0628
13.352,2.1232,0.26167,0.68506,0.15494,0.24512,6.8088
13.36,2.0958,0.25214,0.75488,0.1999,0.17529,6.6232
13.368,2.0733,0.24334,0.76514,0.16471,0.16992,6.2422
13.376,2.0528,0.23479,0.58008,0.12952,0.375,5.5584
13.384,2.0332,0.22673,0.56982,0.13978,0.37988,4.6206
13.392,2.0147,0.21867,0.56982,0.15494,0.38525,3.6828
13.4,1.9961,0.21158,0.625,0.10948,0.25488,3.2432
13.408,1.9795,0.20474,0.6499,0.079668,0.16016,3.3702
13.416,1.9648,0.19839,0.66016,0.07478,0.14014,3.6828
13.424,1.9482,0.19228,0.6499,0.10948,0.16504,3.8684
13.432,1.9286,0.18642,0.68018,0.15982,0.18018,3.7512
13.44,1.9208,0.18055,0.68506,0.1999,0.19531,3.3116
13.448,1.9247,0.17469,0.68994,0.21994,0.21484,2.8134
13.456,1.9218,0.16907,0.60498,0.1999,0.30518,2.5594
13.464,1.9179,0.16394,0.58984,0.24976,0.35986,2.6864
13.472,1.913,0.15881,0.56982,0.27468,0.3999,3.1846
13.48,1.9101,0.15417,0.5752,0.28495,0.39502,3.6828
13.488,1.9071,0.14977,0.56494,0.26979,0.41504,4.1224
13.496,1.9032,0.14561,0.62988,0.3001,0.35986,4.435
13.504,1.9003,0.14171,0.65479,0.30987,0.33008,4.6206
13.512,1.8974,0.1378,0.60498,0.28006,0.38525,4.8746
13.52,1.8944,0.13389,0.5752,0.26491,0.3999,5.0602
13.528,1.8905,0.12973,0.52979,0.26002,0.4502,5.1872
13.536,1.8866,0.12582,0.54004,0.26002,0.45508,5.2458
13.544,1.8817,0.12167,0.5498,0.26491,0.43506,5.3728
13.552,1.8768,0.11776,0.54492,0.25464,0.43018,5.4314
13.56,1.87,0.11459,0.59521,0.26491,0.3999,5.4998
13.568,1.8602,0.11141,0.60986,0.22972,0.3501,5.6854
13.576,1.8485,0.10872,0.60986,0.21994,0.33496,5.9296
13.584,1.8377,0.10628,0.62012,0.21457,0.31006,6.0566
13.592,1.8309,0.10286,0.63477,0.21994,0.31006,5.998
13.6,1.825,0.099438,0.625,0.2346,0.33496,5.8124
13.608,1.8211,0.095285,0.58496,0.24487,0.38525,5.744
13.616,1.8192,0.091376,0.58008,0.26491,0.39502,5.9296
13.624,1.8182,0.087711,0.62012,0.25464,0.38525,6.0566
13.632,1.8172,0.08429,0.59521,0.28006,0.39014,6.0566
13.64,1.8182,0.08087,0.6001,0.30987,0.40479,5.744
13.648,1.8211,0.077694,0.625,0.3348,0.37012,5.3728
13.656,1.825,0.074762,0.62012,0.30987,0.37012,4.9332
13.664,1.8338,0.072074,0.64502,0.28006,0.35498,4.4936
13.672,1.8485,0.069631,0.62988,0.24487,0.36523,4.181
13.68,1.87,0.067188,0.63477,0.24976,0.37988,3.8684
13.688,1.8944,0.065478,0.60498,0.25464,0.375,3.4972
13.696,1.9208,0.063767,0.59521,0.26491,0.3999,3.126
13.704,1.9453,0.062546,0.61475,0.24487,0.36523,2.6864
13.712,1.9707,0.061569,0.625,0.25464,0.35498,2.2468
13.72,2,0.061324,0.56982,0.21994,0.38525,1.8756
13.728,2.0293,0.06108,0.5498,0.19501,0.39014,1.6216
13.736,2.0577,0.061569,0.53516,0.20479,0.40479,1.6216
13.744,2.0841,0.062301,0.5249,0.19501,0.41992,1.8072
13.752,2.1085,0.063279,0.55518,0.24487,0.4248,2.1882
13.76,2.132,0.0645,0.58008,0.28006,0.43018,2.6864
13.768,2.1554,0.065966,0.60986,0.25464,0.375,3.2432
13.776,2.176,0.067677,0.56494,0.23998,0.38525,3.7512
13.784,2.1916,0.069387,0.50977,0.32502,0.43994,4.0638
13.792,2.2033,0.071341,0.35498,0.51515,0.55518,4.435
13.8,2.2092,0.073296,0.25488,0.64027,0.56982,4.7476
13.808,2.2111,0.07525,0.45996,0.45992,0.33008,5.0602
13.816,2.2121,0.077449,0.66992,0.22483,0.30518,5.2458
13.824,2.2121,0.079648,0.77002,0.029814,0.25488,5.3044
13.832,2.2111,0.081847,0.80469,0.21457,0.35498,5.3044
13.84,2.2072,0.08429,0.59521,0.53519,0.59521,5.3044
13.848,2.2014,0.086978,0.26514,0.8001,0.90479,5.1872
13.856,2.1955,0.08991,0.015137,0.94037,1.1348,4.8062
13.864,2.1867,0.093086,-0.044922,0.9653,1.1597,4.3764
13.872,2.176,0.096262,0.34521,0.50489,0.68018,3.9368
13.88,2.1613,0.099194,0.52002,0.30499,0.4751,3.6828
13.888,2.1427,0.10213,0.61475,0.26979,0.39014,3.4972
13.896,2.1241,0.10481,0.64014,0.22483,0.34521,3.3702
13.904,2.1085,0.1075,0.60498,0.14467,0.33008,3.126
13.912,2.0938,0.10994,0.62012,0.084555,0.29004,2.8134
13.92,2.0802,0.11263,0.6001,0.099707,0.31006,2.5594
13.928,2.0674,0.11507,0.59521,0.12463,0.33496,2.5594
13.936,2.0567,0.11752,0.6001,0.14467,0.33496,2.618
13.944,2.0469,0.12021,0.625,0.15982,0.31982,2.6864
13.952,2.0371,0.12314,0.68994,0.22483,0.29492,2.745
13.96,2.0274,0.12631,0.6499,0.26002,0.38525,2.6864
13.968,2.0186,0.12949,0.6001,0.15982,0.36523,2.618
13.976,2.0098,0.13267,0.56982,0.094819,0.33496,2.5008
13.984,1.998,0.13609,0.59521,0.089932,0.31006,2.2468
13.992,1.9853,0.13951,0.60986,0.094819,0.28516,1.6802
14,1.9746,0.14317,0.61475,0.10459,0.29004,0.55682
14.008,1.9648,0.14708,0.625,0.12952,0.28027,-0.87919
14.016,1.9541,0.15123,0.68018,0.15982,0.24512,-1.944
14.024,1.9433,0.15563,0.68994,0.20968,0.33984,-2.4422
14.032,1.9335,0.16003,0.58496,0.21457,0.38525,-2.5008
14.04,1.9257,0.16467,0.62988,0.084555,0.24512,-2.4422
14.048,1.9198,0.16956,0.6499,0.039589,0.19531,-2.5692
14.056,1.914,0.17444,0.6001,0.024438,0.21484,-2.8818
14.064,1.9091,0.17957,0.58496,0.044477,0.2251,-2.999
14.072,1.9042,0.18495,0.60498,0.084555,0.22021,-2.999
14.08,1.8983,0.19057,0.64502,0.1349,0.2002,-2.999
14.088,1.8925,0.19668,0.64014,0.17986,0.2251,-2.999
14.096,1.8876,0.20279,0.70996,0.26002,0.23486,-2.999
14.104,1.8837,0.20963,0.68018,0.35484,0.33008,-2.6962
14.112,1.8798,0.21647,0.64502,0.29472,0.35986,-2.4422
14.12,1.8739,0.2238,0.58496,0.21994,0.33984,-2.5008
14.128,1.869,0.23113,0.60498,0.1999,0.30518,-2.6278
14.136,1.8631,0.23772,0.58984,0.20479,0.33984,-2.6278
14.144,1.8553,0.24456,0.58984,0.21457,0.35986,-2.3152
14.152,1.8465,0.25092,0.61475,0.2346,0.35986,-1.817
14.16,1.8368,0.25727,0.64502,0.26979,0.33984,-1.2504
14.168,1.8299,0.26387,0.68506,0.29472,0.30518,-0.9378
14.176,1.824,0.27046,0.70996,0.31476,0.30029,-0.7522
14.184,1.8192,0.27706,0.52979,0.30499,0.52002,-0.7522
14.192,1.8143,0.28366,0.48486,0.30987,0.56494,-0.6252
14.2,1.8123,0.28976,0.50977,0.2346,0.48486,-0.3126
14.208,1.8113,0.29612,0.55518,0.18964,0.37988,0.18561
14.216,1.8084,0.30198,0.58008,0.1696,0.33984,0.86942
14.224,1.8045,0.30809,0.62012,0.18475,0.31494,1.436
14.232,1.8006,0.31371,0.62012,0.22483,0.34521,1.7486
14.24,1.7957,0.31933,0.6499,0.23998,0.31982,1.6216
14.248,1.7918,0.32446,0.66992,0.22483,0.29492,1.4946
14.256,1.7869,0.32983,0.60986,0.21457,0.35986,1.6216
14.264,1.783,0.33447,0.56982,0.21457,0.41504,2.0612
14.272,1.7771,0.33912,0.56006,0.18964,0.41992,2.3738
14.28,1.7722,0.34302,0.55518,0.20479,0.43994,2.4324
14.288,1.7693,0.34718,0.59521,0.21457,0.375,2.2468
14.296,1.7683,0.35011,0.625,0.2346,0.3252,2.0612
14.304,1.7703,0.35329,0.63477,0.23998,0.33984,2.1198
14.312,1.7742,0.35548,0.625,0.27468,0.35986,2.618
14.32,1.781,0.35793,0.63477,0.28983,0.37012,3.3116
14.328,1.7918,0.35939,0.65479,0.31965,0.39014,3.8684
14.336,1.8084,0.3611,0.66016,0.35973,0.41992,4.0638
14.344,1.8319,0.36208,0.64502,0.25464,0.35986,3.6242
14.352,1.8612,0.3633,0.63477,0.18475,0.28027,2.745
14.36,1.8954,0.36355,0.64502,0.18475,0.26025,2.0612
14.368,1.9296,0.36404,0.56006,0.19501,0.3999,1.9928
14.376,1.9648,0.36355,0.56494,0.1999,0.39014,2.618
14.384,2.001,0.3633,0.56982,0.21457,0.37988,3.4386
14.392,2.0342,0.36306,0.5752,0.22972,0.3999,3.9954
14.4,2.0596,0.36281,0.56006,0.25464,0.43506,4.0638
14.408,2.0792,0.36257,0.5752,0.26002,0.43994,3.8684
14.416,2.0978,0.36233,0.58008,0.23998,0.3999,3.9368
14.424,2.1134,0.36208,0.55518,0.26002,0.41992,4.562
14.432,2.1271,0.36184,0.56982,0.26491,0.39502,5.617
14.44,2.1378,0.36159,0.54492,0.22483,0.39014,6.8088
14.448,2.1466,0.36135,0.49023,0.31476,0.43994,7.688
14.456,2.1535,0.3611,0.37012,0.52981,0.51514,8.0592
14.464,2.1593,0.36086,0.26025,0.68524,0.54492,8.0592
14.472,2.1642,0.36062,0.39502,0.47996,0.37012,7.8736
14.48,2.1691,0.36037,0.64014,0.20479,0.30518,7.7466
14.488,2.1711,0.36013,0.73486,0.01955,0.2749,7.8052
14.496,2.1701,0.35988,0.75977,0.21457,0.39502,8.0006
14.504,2.1662,0.35964,0.54004,0.58504,0.6748,8.1862
14.512,2.1593,0.35939,0.24512,0.84018,0.95996,8.1862
14.52,2.1486,0.35915,-0.0097656,0.96041,1.145,8.1179
14.528,2.1369,0.35891,-0.060059,0.82502,1,7.9322
14.536,2.1241,0.35866,0.36523,0.45992,0.63477,7.8052
14.544,2.1095,0.35842,0.52979,0.24976,0.43994,7.8052
14.552,2.0948,0.35866,0.62012,0.21994,0.31982,7.8052
14.56,2.0802,0.35891,0.65479,0.18964,0.29004,7.8052
14.568,2.0674,0.35939,0.62012,0.15494,0.33008,7.561
14.576,2.0567,0.36013,0.6001,0.15494,0.35986,7.18
14.584,2.0469,0.3611,0.59521,0.16471,0.35986,6.8674
14.592,2.0362,0.36233,0.64502,0.19501,0.33496,6.6818
14.6,2.0264,0.36355,0.6499,0.19501,0.33984,6.5548
14.608,2.0176,0.36477,0.65479,0.17498,0.30029,6.4376
14.616,2.0088,0.36575,0.64014,0.16471,0.26025,6.3692
14.624,2,0.36672,0.60986,0.14467,0.30518,6.4962
14.632,1.9912,0.36746,0.58496,0.13978,0.34521,6.9358
14.64,1.9824,0.36819,0.60986,0.15494,0.33008,7.4926
14.648,1.9746,0.36917,0.62988,0.1696,0.31006,7.7466
14.656,1.9668,0.37014,0.64502,0.20968,0.33496,7.1214
14.664,1.9589,0.37137,0.66504,0.21457,0.29492,5.6854
14.672,1.9501,0.37259,0.63477,0.15982,0.28027,4.2494
14.68,1.9413,0.37332,0.70508,0.14956,0.18018,3.6828
14.688,1.9316,0.3743,0.71484,0.15494,0.17529,4.181
14.696,1.9198,0.37479,0.56494,0.11486,0.3501,4.9332
14.704,1.9101,0.37552,0.54492,0.12463,0.37012,5.2458
14.712,1.9022,0.37601,0.5752,0.11486,0.31494,4.8062
14.72,1.8964,0.3765,0.61475,0.10459,0.25488,3.9368
14.728,1.8915,0.37674,0.65479,0.099707,0.17529,3.3116
14.736,1.8866,0.37723,0.68506,0.1349,0.1499,3.1846
14.744,1.8817,0.37845,0.6499,0.14956,0.2002,3.6828
14.752,1.8768,0.37967,0.64502,0.19501,0.22998,4.308
14.76,1.8729,0.38163,0.65479,0.24976,0.25,4.689
14.768,1.868,0.38358,0.66504,0.28983,0.26514,4.8062
14.776,1.8641,0.38554,0.68506,0.30499,0.24023,4.8062
14.784,1.8592,0.38774,0.62988,0.25464,0.31494,4.8746
14.792,1.8534,0.38993,0.58984,0.23998,0.375,5.1872
14.8,1.8485,0.39238,0.63477,0.27468,0.33496,5.744
14.808,1.8426,0.39555,0.64014,0.28006,0.35498,6.2422
14.816,1.8338,0.39873,0.625,0.26491,0.34521,6.6232
14.824,1.825,0.40264,0.58984,0.25464,0.37988,6.8088
14.832,1.8172,0.40679,0.58984,0.26491,0.3999,6.8674
14.84,1.8113,0.41095,0.58496,0.26002,0.40479,6.8674
14.848,1.8065,0.4151,0.68506,0.32991,0.31494,7.0628
14.856,1.8016,0.4195,0.62012,0.29472,0.37012,7.3754
14.864,1.7967,0.42389,0.54492,0.2346,0.43018,7.8052
14.872,1.7918,0.42878,0.54492,0.21457,0.4248,8.1862
14.88,1.7889,0.43391,0.55518,0.22483,0.3999,8.5574
14.888,1.7869,0.43953,0.58984,0.22972,0.36523,8.997
14.896,1.7859,0.44515,0.6001,0.24487,0.35498,9.4952
14.904,1.7859,0.45199,0.58496,0.26491,0.41992,9.9935
14.912,1.7869,0.45883,0.6499,0.26979,0.33496,10.247
14.92,1.7879,0.46665,0.625,0.22972,0.3252,10.062
14.928,1.7889,0.47471,0.58496,0.20968,0.37988,9.6809
14.936,1.7898,0.48253,0.56494,0.21457,0.3999,9.4366
14.944,1.7918,0.49035,0.59521,0.20968,0.35498,9.6809
14.952,1.7937,0.49792,0.59521,0.21457,0.34521,10.374
14.96,1.7977,0.50574,0.66016,0.26979,0.30518,11.127
14.968,1.8025,0.51429,0.66992,0.31476,0.3252,11.498
14.976,1.8104,0.52284,0.64014,0.32991,0.36523,11.371
14.984,1.8221,0.53188,0.64502,0.3348,0.37988,10.931
14.992,1.8387,0.54092,0.65479,0.31476,0.35986,10.619
15,1.8573,0.54899,0.66504,0.28983,0.33496,10.501
15.008,1.8788,0.55705,0.63477,0.23998,0.33496,10.687
15.016,1.9062,0.56438,0.60986,0.1999,0.33008,10.873
15.024,1.9374,0.57171,0.58984,0.20479,0.35986,10.931
15.032,1.9707,0.57928,0.56494,0.1999,0.38525,10.931
15.04,2.0049,0.5871,0.56006,0.21457,0.40479,10.873
15.048,2.0371,0.59492,0.58008,0.2346,0.39502,10.931
15.056,2.0694,0.60298,0.59521,0.24976,0.39014,11.244
15.064,2.1017,0.61104,0.63477,0.28983,0.36523,11.752
15.072,2.131,0.61935,0.61475,0.31476,0.43018,12.182
15.08,2.1564,0.62766,0.58008,0.31965,0.43994,12.621
15.088,2.1799,0.63596,0.54004,0.20968,0.3999,13.119
15.096,2.1994,0.64378,0.54492,0.19501,0.375,13.745
15.104,2.2131,0.65184,0.53516,0.21457,0.39502,14.311
15.112,2.2219,0.65966,0.50977,0.34995,0.41992,14.809
15.12,2.2307,0.66748,0.375,0.56989,0.49023,15.122
15.128,2.2385,0.6753,0.27002,0.69013,0.50977,15.181
15.136,2.2434,0.68336,0.46484,0.50489,0.30029,14.995
15.144,2.2463,0.69118,0.62012,0.26491,0.33984,14.751
15.152,2.2473,0.69924,0.7002,0.069892,0.31494,14.497
15.16,2.2454,0.70584,0.71484,0.28495,0.47021,14.057
15.168,2.2405,0.71244,0.47021,0.69501,0.72998,13.5
15.176,2.2326,0.71806,0.14502,0.90029,1.0498,12.934
15.184,2.2248,0.72367,-0.089844,0.97556,1.1948,12.621
15.192,2.2141,0.72978,0.15527,0.71505,0.88477,12.563
15.2,2.2014,0.73589,0.46484,0.37977,0.52979,12.621
15.208,2.1896,0.74249,0.60498,0.24487,0.35986,12.621
15.216,2.1769,0.74933,0.63477,0.17986,0.31006,12.436
15.224,2.1642,0.75592,0.62988,0.15982,0.31494,11.996
15.232,2.1515,0.76252,0.66016,0.18475,0.31982,11.498
15.24,2.1378,0.76887,0.7002,0.1696,0.25,11.058
15.248,2.1232,0.77547,0.68018,0.18964,0.2749,10.931
15.256,2.1065,0.78085,0.6748,0.19501,0.28516,11.058
15.264,2.0899,0.78622,0.69482,0.1999,0.29492,11.244
15.272,2.0743,0.79062,0.70996,0.20479,0.24023,11.312
15.28,2.0606,0.79526,0.6748,0.17498,0.26514,11.312
15.288,2.0489,0.79941,0.6499,0.1696,0.29004,11.439
15.296,2.0381,0.80357,0.63477,0.17498,0.31006,11.869
15.304,2.0293,0.80748,0.65479,0.18475,0.29004,12.377
15.312,2.0215,0.81163,0.66992,0.17498,0.26025,12.748
15.32,2.0127,0.81456,0.68994,0.18964,0.22998,12.436
15.328,2.0039,0.81749,0.7002,0.17498,0.22998,11.498
15.336,1.9961,0.81945,0.70508,0.18475,0.23486,10.433
15.344,1.9892,0.8214,0.69482,0.20968,0.25,9.9935
15.352,1.9814,0.82262,0.66992,0.25464,0.33984,10.374
15.36,1.9726,0.82385,0.63477,0.21994,0.37988,11.244
15.368,1.9638,0.82433,0.62988,0.12463,0.2749,11.869
15.376,1.955,0.82482,0.6748,0.099707,0.2002,11.752
15.384,1.9462,0.82385,0.70508,0.099707,0.14014,11
15.392,1.9374,0.82311,0.72998,0.11486,0.11523,10.062
15.4,1.9296,0.82116,0.75,0.15982,0.1001,9.6222
15.408,1.9238,0.8192,0.75977,0.19501,0.12988,9.8762
15.416,1.9189,0.81725,0.6748,0.21457,0.22021,10.433
15.424,1.914,0.81554,0.70508,0.25464,0.2251,10.931
15.432,1.9091,0.81358,0.71484,0.28983,0.2749,10.814
15.44,1.9042,0.81187,0.64502,0.29472,0.3252,10.247
15.448,1.8993,0.80919,0.64014,0.28983,0.33984,9.7492
15.456,1.8954,0.8065,0.65479,0.25464,0.31006,9.7492
15.464,1.8905,0.80308,0.64014,0.22483,0.27002,10.306
15.472,1.8866,0.79966,0.66992,0.26491,0.26514,11.127
15.48,1.8817,0.79624,0.625,0.23998,0.34521,11.81
15.488,1.8387,0.79282,0.58984,0.23998,0.37988,12.123
15.496,1.7771,0.78915,0.62012,0.26979,0.35498,11.996
15.504,1.7439,0.78573,0.60986,0.28983,0.39502,11.625
15.512,1.7224,0.78158,0.625,0.28495,0.36523,11.371
15.52,1.7077,0.77767,0.66016,0.28983,0.3252,11.439
15.528,1.695,0.77303,0.63477,0.26002,0.33496,11.683
15.536,1.6843,0.76863,0.60498,0.23998,0.3501,12.064
15.544,1.6745,0.76374,0.60498,0.22972,0.35986,12.309
15.552,1.6647,0.75886,0.62012,0.24976,0.3501,12.377
15.56,1.65,0.75373,0.62012,0.26491,0.35498,12.436
15.568,1.6334,0.74884,0.65479,0.28983,0.33496,12.494
15.576,1.6207,0.74469,0.6748,0.28983,0.30518,12.748
15.584,1.61,0.74053,0.64014,0.26491,0.30029,12.934
15.592,1.5992,0.73711,0.64014,0.25464,0.3252,12.934
15.6,1.5924,0.73369,0.64502,0.24976,0.31006,12.563
15.608,1.5885,0.73076,0.625,0.27468,0.33496,12.064
15.616,1.5885,0.72807,0.6499,0.30987,0.31982,11.81
15.624,1.5963,0.72563,0.66504,0.32991,0.33496,11.81
15.632,1.6139,0.72343,0.70508,0.35484,0.29004,11.869
15.64,1.6461,0.72148,0.7002,0.3348,0.31006,11.996
15.648,1.6921,0.71952,0.66504,0.31476,0.33496,11.996
15.656,1.7507,0.71781,0.66504,0.29472,0.31982,12.064
15.664,1.8211,0.7161,0.62012,0.22483,0.33984,12.123
15.672,1.9032,0.71561,0.58496,0.20479,0.35986,12.25
15.68,1.9844,0.71512,0.60498,0.21994,0.33496,12.377
15.688,2.0577,0.71586,0.62988,0.24487,0.33008,12.563
15.696,2.1173,0.71659,0.66992,0.29472,0.31006,12.621
15.704,2.1711,0.71854,0.625,0.30499,0.38525,12.621
15.712,2.2307,0.7205,0.58008,0.24976,0.3999,12.621
15.72,2.2903,0.72319,0.5498,0.2346,0.41504,12.563
15.728,2.3441,0.72587,0.56982,0.23998,0.37988,12.69
15.736,2.39,0.72807,0.58984,0.24976,0.35498,13.002
15.744,2.4311,0.73027,0.64014,0.23998,0.30518,13.5
15.752,2.4702,0.73174,0.66016,0.27468,0.28516,13.999
15.76,2.5083,0.7332,0.5752,0.30987,0.38525,14.438
15.768,2.5415,0.73442,0.43506,0.47507,0.4751,14.751
15.776,2.5679,0.73589,0.25488,0.67009,0.55518,14.995
15.784,2.5904,0.73711,0.2251,0.70039,0.41504,15.063
15.792,2.609,0.73833,0.54492,0.39492,0.3501,15.063
15.8,2.6207,0.73858,0.66504,0.17498,0.33008,15.063
15.808,2.6285,0.73882,0.73486,0.10948,0.3252,14.995
15.816,2.6344,0.73833,0.62012,0.56989,0.56982,14.809
15.824,2.6373,0.73785,0.34521,0.90518,0.83984,14.37
15.832,2.6393,0.73711,-0.029785,1.0103,1.1499,13.813
15.84,2.6373,0.73638,-0.080078,1.0205,1.165,13.373
15.848,2.6295,0.7354,0.33984,0.44477,0.68018,13.119
15.856,2.6119,0.73467,0.52002,0.24487,0.45996,12.934
15.864,2.5846,0.7332,0.62988,0.17498,0.3252,12.807
15.872,2.5494,0.73198,0.66016,0.15494,0.27002,12.436
15.88,2.5064,0.73027,0.68506,0.15494,0.24512,11.996
15.888,2.4594,0.72856,0.68994,0.1696,0.25488,11.625
15.896,2.4164,0.72685,0.68994,0.18964,0.27002,11.498
15.904,2.3812,0.72538,0.72998,0.20968,0.24512,11.625
15.912,2.35,0.72392,0.74512,0.22483,0.2251,11.869
15.92,2.3196,0.72245,0.66016,0.19501,0.31982,11.996
15.928,2.2903,0.72099,0.61475,0.18475,0.38525,12.064
15.936,2.262,0.71977,0.60498,0.1696,0.31982,11.996
15.944,2.2336,0.71854,0.66992,0.14956,0.25,11.996
15.952,2.2053,0.71757,0.68994,0.14467,0.22021,12.123
15.96,2.1769,0.71683,0.70996,0.16471,0.20996,12.377
15.968,2.1466,0.71634,0.68506,0.17498,0.25,12.494
15.976,2.1153,0.7161,0.70508,0.18964,0.24023,12.182
15.984,2.088,0.7161,0.72998,0.2346,0.24023,11.498
15.992,2.0606,0.71634,0.71484,0.23998,0.26025,10.873
16,2.0323,0.71659,0.64502,0.17498,0.31006,10.746
16.008,2.0068,0.71708,0.62012,0.14467,0.3252,11.244
16.016,1.9795,0.71757,0.65479,0.1349,0.24512,12.064
16.024,1.9521,0.7183,0.70508,0.12463,0.18018,12.621
16.032,1.9247,0.71903,0.72998,0.14467,0.1499,12.563
16.04,1.8993,0.72001,0.71973,0.1349,0.15527,11.937
16.048,1.8768,0.72099,0.7251,0.15982,0.1499,11.185
16.056,1.8563,0.72196,0.70508,0.18475,0.18506,10.746
16.064,1.8368,0.72294,0.68994,0.18475,0.18018,10.873
16.072,1.8201,0.72392,0.6748,0.22972,0.23486,11.244
16.08,1.8074,0.72514,0.70996,0.26979,0.22998,11.625
16.088,1.7967,0.72563,0.7002,0.28006,0.25,11.625
16.096,1.7889,0.72636,0.66504,0.26491,0.29004,11.371
16.104,1.783,0.72636,0.62988,0.21994,0.30029,11.185
16.112,1.7752,0.72661,0.62012,0.23998,0.31006,11.244
16.12,1.7664,0.72587,0.60498,0.2346,0.34521,11.556
16.128,1.7576,0.72538,0.64014,0.24976,0.31494,12.123
16.136,1.7488,0.72416,0.64014,0.23998,0.31982,12.69
16.144,1.737,0.72294,0.66992,0.28983,0.33008,13.119
16.152,1.7195,0.72123,0.66016,0.31965,0.35498,13.246
16.16,1.7009,0.71952,0.60986,0.26979,0.38525,13.188
16.168,1.6823,0.71732,0.6001,0.22972,0.36523,13.061
16.176,1.6637,0.71512,0.62012,0.25464,0.34521,12.934
16.184,1.65,0.71219,0.62988,0.26491,0.33984,13.002
16.192,1.6383,0.70926,0.625,0.24976,0.3252,13.188
16.2,1.6305,0.70559,0.64014,0.23998,0.31494,13.559
16.208,1.6266,0.70217,0.65479,0.26002,0.30029,13.93
16.216,1.6217,0.69827,0.66504,0.26979,0.29004,14.311
16.224,1.6149,0.6946,0.66016,0.29472,0.29492,14.555
16.232,1.607,0.69069,0.68506,0.30987,0.33496,14.624
16.24,1.5982,0.68678,0.61475,0.28983,0.38525,14.37
16.248,1.5894,0.68287,0.60986,0.29472,0.375,13.93
16.256,1.5797,0.67896,0.64014,0.30987,0.38525,13.432
16.264,1.5709,0.67505,0.65479,0.31476,0.35498,13.119
16.272,1.566,0.67139,0.63477,0.28495,0.3252,13.119
16.28,1.5728,0.66797,0.69482,0.30499,0.27002,13.373
16.288,1.5953,0.66479,0.71973,0.31965,0.25,13.618
16.296,1.6276,0.66186,0.7251,0.3001,0.27002,13.686
16.304,1.6696,0.65893,0.65479,0.28006,0.33496,13.686
16.312,1.7253,0.65673,0.60986,0.2346,0.375,13.559
16.32,1.7898,0.65478,0.60498,0.22972,0.37988,13.432
16.328,1.8641,0.65331,0.60986,0.19501,0.33984,13.432
16.336,1.9482,0.65209,0.59521,0.20479,0.35498,13.432
16.344,2.0303,0.65111,0.58496,0.21457,0.37012,13.5
16.352,2.1036,0.65038,0.625,0.2346,0.33496,13.5
16.36,2.173,0.64989,0.62012,0.22972,0.33984,13.432
16.368,2.2405,0.6494,0.6499,0.28495,0.375,13.5
16.376,2.305,0.64867,0.60986,0.28983,0.39502,13.686
16.384,2.3656,0.64794,0.60498,0.26979,0.37012,14.057
16.392,2.4233,0.64696,0.62012,0.22972,0.33008,14.555
16.4,2.4692,0.64623,0.56982,0.18964,0.37012,15.063
16.408,2.5034,0.64623,0.54004,0.22972,0.3999,15.493
16.416,2.5396,0.64623,0.44482,0.39492,0.46484,15.689
16.424,2.5718,0.64696,0.30518,0.62512,0.51514,15.806
16.432,2.5973,0.64769,0.28516,0.68524,0.37988,15.874
16.44,2.6168,0.64794,0.58008,0.47019,0.3252,15.933
16.448,2.6285,0.64842,0.70508,0.25464,0.35986,15.933
16.456,2.6344,0.64818,0.79004,0.16471,0.31494,15.933
16.464,2.6373,0.64818,0.64014,0.47996,0.54004,15.806
16.472,2.6393,0.64818,0.31006,0.78006,0.84473,15.562
16.48,2.6354,0.64818,-0.034668,0.93548,1.1348,15.122
16.488,2.6237,0.64842,-0.089844,0.97556,1.1597,14.751
16.496,2.609,0.64867,0.37012,0.49511,0.64014,14.497
16.504,2.5924,0.64891,0.53516,0.24487,0.43506,14.37
16.512,2.5699,0.6494,0.62012,0.16471,0.33496,14.243
16.52,2.5396,0.64965,0.66504,0.15982,0.30518,13.999
16.528,2.5064,0.65013,0.70996,0.19501,0.26514,13.618
16.536,2.4712,0.65013,0.71484,0.17986,0.27002,13.188
16.544,2.437,0.65013,0.68018,0.15982,0.28027,12.934
16.552,2.4037,0.64989,0.6748,0.14956,0.26514,12.934
16.56,2.3656,0.64965,0.69482,0.17986,0.26025,13.002
16.568,2.3275,0.6494,0.68506,0.18475,0.29004,13.119
16.576,2.2903,0.6494,0.7002,0.1696,0.26025,13.119
16.584,2.2502,0.6494,0.68994,0.18475,0.26514,13.002
16.592,2.2121,0.6494,0.68994,0.1696,0.26025,12.934
16.6,2.1789,0.64891,0.68506,0.18475,0.28027,13.061
16.608,2.1505,0.64867,0.68994,0.1696,0.24512,13.305
16.616,2.1241,0.64818,0.66992,0.17986,0.2749,13.5
16.624,2.1017,0.64769,0.66016,0.1696,0.28516,13.246
16.632,2.0811,0.6472,0.65479,0.16471,0.29004,12.621
16.64,2.0616,0.64696,0.66504,0.15982,0.25,11.752
16.648,2.042,0.64696,0.68994,0.17498,0.22998,11.185
16.656,2.0235,0.64696,0.70996,0.17986,0.22021,11.244
16.664,2.0068,0.64647,0.68994,0.14956,0.22021,11.752
16.672,1.9941,0.64623,0.69482,0.13978,0.19531,12.182
16.68,1.9804,0.64549,0.66504,0.13978,0.22021,12.182
16.688,1.9648,0.645,0.65479,0.14467,0.2251,11.498
16.696,1.9492,0.64403,0.68018,0.15494,0.18994,10.433
16.704,1.9345,0.64329,0.69482,0.1696,0.18018,9.5636
16.712,1.9179,0.64207,0.64502,0.17986,0.22998,9.124
16.72,1.8983,0.64109,0.64014,0.1999,0.23486,9.0557
16.728,1.8739,0.63938,0.6748,0.23998,0.22021,9.1826
16.736,1.8504,0.63767,0.68506,0.27468,0.25,9.1826
16.744,1.8319,0.63523,0.625,0.28983,0.34521,9.0557
16.752,1.8182,0.63303,0.58984,0.28495,0.39014,8.87
16.76,1.8065,0.63034,0.60986,0.25464,0.33984,8.7431
16.768,1.7957,0.6279,0.64014,0.22972,0.30518,8.7431
16.776,1.7859,0.62448,0.65479,0.24487,0.29004,8.9384
16.784,1.7742,0.6213,0.69482,0.28495,0.25,9.3096
16.792,1.7615,0.6152,0.7002,0.26002,0.31982,9.6222
16.8,1.7527,0.60933,0.53516,0.25464,0.45996,9.7492
16.808,1.7458,0.60078,0.51514,0.27468,0.4751,9.7492
16.816,1.738,0.59223,0.55518,0.27468,0.43506,9.5636
16.824,1.7263,0.58075,0.58008,0.25464,0.39014,9.3683
16.832,1.7116,0.56951,0.59521,0.23998,0.36523,9.1826
16.84,1.697,0.55632,0.60986,0.23998,0.34521,9.124
16.848,1.6833,0.54312,0.65479,0.26979,0.29492,9.1826
16.856,1.6667,0.52968,0.66504,0.28983,0.28027,9.251
16.864,1.651,0.51625,0.56982,0.24976,0.41504,9.4366
16.872,1.6393,0.50232,0.54492,0.26491,0.43994,9.4952
16.88,1.6256,0.48864,0.58496,0.28495,0.38525,9.4366
16.888,1.6119,0.47251,0.625,0.28983,0.35498,9.251
16.896,1.6031,0.45663,0.64014,0.28983,0.33496,9.0557
16.904,1.5963,0.4388,0.68506,0.28983,0.2749,8.8114
16.912,1.5904,0.42096,0.62988,0.29472,0.33984,8.5574
16.92,1.5894,0.40386,0.56494,0.28495,0.41504,8.3132
16.928,1.5982,0.387,0.56006,0.32502,0.43018,8.0006
16.936,1.6217,0.37088,0.59521,0.30499,0.39502,7.688
16.944,1.6569,0.355,0.66504,0.32502,0.33984,7.3754
16.952,1.7028,0.33936,0.69482,0.3348,0.31006,7.2484
16.96,1.7605,0.32372,0.64014,0.2346,0.33496,7.1214
16.968,1.826,0.30833,0.6001,0.20479,0.3501,6.9944
16.976,1.9013,0.29318,0.59521,0.1999,0.35986,6.7502
16.984,1.9814,0.27877,0.56494,0.20968,0.39014,6.4962
16.992,2.0587,0.26435,0.56982,0.20479,0.3999,6.2422
17,2.1232,0.25116,0.59521,0.26979,0.39014,6.1836
17.008,2.1779,0.23797,0.6001,0.3001,0.41016,6.2422
17.016,2.2385,0.22746,0.70508,0.30499,0.28027,6.3692
17.024,2.2991,0.21696,0.61475,0.24976,0.33984,6.5548
17.032,2.3529,0.2084,0.54004,0.19501,0.41992,6.7502
17.04,2.3988,0.2001,0.53516,0.18964,0.39502,6.9358
17.048,2.4399,0.19204,0.56006,0.17986,0.37988,7.307
17.056,2.477,0.18397,0.52002,0.20968,0.41992,7.7466
17.064,2.5122,0.17615,0.53516,0.3348,0.45508,8.3132
17.072,2.5435,0.16834,0.35498,0.55523,0.54492,8.6844
17.08,2.5689,0.16198,0.2749,0.65005,0.48486,8.8114
17.088,2.5904,0.15588,0.48486,0.43988,0.33008,8.6258
17.096,2.6061,0.15075,0.69482,0.19501,0.30518,8.4305
17.104,2.6188,0.14586,0.77002,0.029814,0.26514,8.4305
17.112,2.6295,0.14048,0.7998,0.28006,0.41016,8.6258
17.12,2.6305,0.13535,0.56494,0.66031,0.66992,8.9384
17.128,2.6217,0.12949,0.26514,0.87537,0.95996,8.997
17.136,2.6031,0.12387,0.035156,1.0054,1.1196,8.8114
17.144,2.5748,0.11776,0.010254,0.84506,0.95996,8.3718
17.152,2.5425,0.1119,0.39502,0.45992,0.625,7.7466
17.16,2.5073,0.10579,0.53516,0.22972,0.4248,7.2484
17.168,2.4712,0.099927,0.5752,0.17498,0.37988,6.9358
17.176,2.437,0.095285,0.58984,0.14956,0.3501,6.6818
17.184,2.4037,0.090643,0.62012,0.14467,0.31494,6.3692
17.192,2.3705,0.086978,0.6499,0.14956,0.29492,5.9296
17.2,2.3421,0.083557,0.66504,0.16471,0.29004,5.4314
17.208,2.3157,0.080137,0.64502,0.14467,0.31982,5.1188
17.216,2.2884,0.076716,0.65479,0.14467,0.29492,4.8746
17.224,2.261,0.073052,0.60986,0.14467,0.31982,4.7476
17.232,2.2307,0.069631,0.625,0.14467,0.31494,4.7476
17.24,2.1975,0.066944,0.59521,0.15494,0.3501,4.9332
17.248,2.1623,0.064256,0.62988,0.16471,0.3252,5.3044
17.256,2.1281,0.062301,0.6499,0.17498,0.31006,5.744
17.264,2.0968,0.060347,0.66504,0.16471,0.29492,5.744
17.272,2.0674,0.058148,0.62988,0.16471,0.31982,4.8746
17.28,2.0362,0.056194,0.59521,0.13978,0.33496,3.1846
17.288,2.0059,0.05375,0.6001,0.12952,0.33984,1.309
17.296,1.9814,0.051307,0.61475,0.14467,0.31006,0.11723
17.304,1.958,0.048864,0.63477,0.12463,0.27002,-0.12699
17.312,1.9345,0.046665,0.66992,0.10948,0.2251,0.18561
17.32,1.913,0.044466,0.68506,0.10459,0.16992,0.42983
17.328,1.8935,0.042512,0.68994,0.094819,0.16504,0.3126
17.336,1.8739,0.040557,0.62012,0.07478,0.24512,-0.25399
17.344,1.8553,0.038847,0.58984,0.089932,0.26025,-0.9378
17.352,1.8368,0.037137,0.60498,0.094819,0.21484,-1.3188
17.36,1.8182,0.035426,0.62012,0.089932,0.19531,-1.3774
17.368,1.8016,0.03396,0.62012,0.14467,0.2251,-1.0648
17.376,1.7869,0.032495,0.64502,0.21457,0.24512,-0.69358
17.384,1.7722,0.031029,0.7002,0.27468,0.21484,-0.25399
17.392,1.7625,0.029807,0.66016,0.25464,0.28027,0
17.4,1.7527,0.02883,0.6001,0.25464,0.3501,0.18561
17.408,1.739,0.028097,0.56006,0.26491,0.39502,0.3126
17.416,1.7204,0.027608,0.54004,0.26491,0.45508,0.42983
17.424,1.6989,0.027119,0.54492,0.23998,0.4248,0.6252
17.432,1.6794,0.026631,0.58008,0.28006,0.41504,0.74243
17.44,1.6628,0.026142,0.60498,0.30987,0.43018,0.9378
17.448,1.6491,0.025409,0.62012,0.3001,0.375,1.1234
17.456,1.6383,0.024921,0.64014,0.28006,0.33984,1.309
17.464,1.6276,0.024676,0.61475,0.24976,0.35498,1.3676
17.472,1.6178,0.024676,0.58008,0.21994,0.35986,1.4946
17.48,1.6109,0.024676,0.58496,0.21457,0.36523,1.6216
17.488,1.6051,0.024921,0.58008,0.2346,0.39502,1.8756
17.496,1.5992,0.025165,0.58008,0.20968,0.37988,2.2468
17.504,1.5943,0.025654,0.625,0.2346,0.33984,2.6864
17.512,1.5875,0.026142,0.65479,0.24976,0.3252,2.9306
17.52,1.5787,0.026875,0.63477,0.24487,0.33984,2.9306
17.528,1.5699,0.027608,0.6748,0.26491,0.30518,2.872
17.536,1.5455,0.028341,0.61475,0.23998,0.37012,3.0576
17.544,1.5122,0.029074,0.56982,0.20968,0.41504,3.4386
17.552,1.4917,0.030051,0.5249,0.17986,0.43018,3.7512
17.56,1.479,0.031273,0.56494,0.18964,0.38525,3.7512
17.568,1.4731,0.032739,0.58984,0.2346,0.375,3.4972
17.576,1.4702,0.034693,0.58496,0.28006,0.40479,3.3116
17.584,1.4702,0.036648,0.6499,0.31965,0.37012,3.3116
17.592,1.4751,0.039824,0.74512,0.41007,0.29492,3.3702
17.6,1.4858,0.043245,0.77979,0.42473,0.26025,3.3116
17.608,1.5083,0.047398,0.62012,0.21994,0.33496,2.999
17.616,1.5455,0.051796,0.6001,0.1696,0.3252,2.4324
17.624,1.5943,0.056194,0.56494,0.18964,0.37988,1.8756
17.632,1.651,0.060591,0.5498,0.20968,0.38525,1.6216
17.64,1.7136,0.065233,0.56982,0.19501,0.37988,1.8072
17.648,1.7791,0.069875,0.58496,0.21994,0.375,2.2468
17.656,1.8485,0.075006,0.58008,0.25464,0.40479,2.6864
17.664,1.9179,0.080381,0.60498,0.28006,0.3999,2.9306
17.672,1.9834,0.086,0.60498,0.27468,0.39014,2.9306
17.68,2.044,0.09162,0.68018,0.3348,0.33008,2.9306
17.688,2.0978,0.097972,0.70508,0.31965,0.30518,3.126
17.696,2.1398,0.10432,0.55518,0.24976,0.43506,3.6242
17.704,2.176,0.11117,0.49512,0.18964,0.46484,4.435
17.712,2.2131,0.11801,0.50488,0.18475,0.43506,5.2458
17.72,2.2444,0.1246,0.4751,0.27468,0.47021,5.744
17.728,2.2649,0.13144,0.4248,0.47019,0.49512,5.8124
17.736,2.2747,0.13804,0.33496,0.68524,0.50488,5.4314
17.744,2.2776,0.14464,0.4248,0.69501,0.33008,5.0602
17.752,2.2747,0.15148,0.66016,0.34506,0.29004,5.0016
17.76,2.2688,0.15832,0.73975,0.049853,0.26514,5.3044
17.768,2.262,0.1654,0.66992,0.0043988,0.40479,5.871
17.776,2.2542,0.17249,0.5752,0.41984,0.58984,6.2422
17.784,2.2454,0.17982,0.30029,0.74536,0.87012,6.2422
17.792,2.2375,0.18715,0.084961,0.91007,1.0649,5.9296
17.8,2.2287,0.19423,0.0048828,0.98534,1.1299,5.5584
17.808,2.218,0.20156,0.31982,0.62023,0.75,5.3728
17.816,2.2023,0.20816,0.50977,0.3348,0.49023,5.3728
17.824,2.1808,0.215,0.60498,0.1999,0.33984,5.4998
17.832,2.1535,0.22111,0.68018,0.15494,0.24512,5.4314
17.84,2.1183,0.22746,0.68994,0.16471,0.22998,5.0016
17.848,2.0831,0.23284,0.63477,0.15982,0.29492,4.3764
17.856,2.0528,0.23821,0.62012,0.14467,0.33496,3.8098
17.864,2.0264,0.24285,0.60498,0.16471,0.37012,3.6242
17.872,2.0049,0.2475,0.64014,0.20968,0.375,3.6828
17.88,1.9853,0.2514,0.625,0.17498,0.33496,3.9368
17.888,1.9668,0.25556,0.64014,0.11486,0.28027,4.0638
17.896,1.9511,0.25922,0.61475,0.10948,0.29004,4.0638
17.904,1.9374,0.26289,0.64014,0.12952,0.28027,4.0638
17.912,1.9189,0.26558,0.62012,0.16471,0.3252,4.1224
17.92,1.8974,0.26851,0.66016,0.17986,0.29492,4.181
17.928,1.8729,0.27071,0.68994,0.18964,0.26514,3.8684
17.936,1.8504,0.2729,0.66016,0.15982,0.30029,2.872
17.944,1.828,0.2751,0.58984,0.17986,0.40479,1.6216
17.952,1.8045,0.2773,0.5752,0.1999,0.43018,0.68381
17.96,1.782,0.27926,0.63477,0.14956,0.30518,0.55682
17.968,1.7615,0.28146,0.66016,0.10948,0.22998,0.81081
17.976,1.7458,0.28292,0.68506,0.064516,0.16992,0.9378
17.984,1.7331,0.28463,0.6499,0.044477,0.17529,0.74243
17.992,1.7253,0.28585,0.66992,0.084555,0.16992,0.24422
18,1.7185,0.28732,0.6499,0.099707,0.19531,-0.3126
18.008,1.7107,0.28879,0.7002,0.11486,0.1499,-0.69358
18.016,1.7028,0.29025,0.7251,0.15982,0.12988,-0.69358
18.024,1.695,0.29196,0.66992,0.1999,0.22998,-0.43959
18.032,1.6823,0.29367,0.60986,0.28495,0.375,-0.12699
18.04,1.6628,0.29538,0.58008,0.31476,0.4248,0.24422
18.048,1.6442,0.29734,0.62988,0.22972,0.28027,0.6252
18.056,1.6305,0.29929,0.60498,0.19501,0.27002,0.9378
18.064,1.6197,0.30125,0.58496,0.20479,0.33008,1.309
18.072,1.61,0.3032,0.59521,0.2346,0.33496,1.6216
18.08,1.6002,0.30516,0.6001,0.26002,0.35986,1.9928
18.088,1.5914,0.30711,0.62012,0.28495,0.37012,2.1882
18.096,1.5855,0.30906,0.64502,0.30499,0.34521,2.3054
18.104,1.5797,0.31053,0.66504,0.30987,0.33008,2.3054
18.112,1.5728,0.31224,0.62988,0.30499,0.37988,2.3054
18.12,1.565,0.31322,0.64014,0.30987,0.41016,2.4324
18.128,1.5562,0.31444,0.52979,0.28495,0.4751,2.745
18.136,1.5474,0.31468,0.50977,0.25464,0.49512,3.1846
18.144,1.5396,0.31493,0.56982,0.22483,0.39014,3.6828
18.152,1.5288,0.31444,0.5752,0.21994,0.37012,4.181
18.16,1.5171,0.31419,0.5752,0.22483,0.375,4.8062
18.168,1.5044,0.31322,0.6001,0.21457,0.33984,5.4314
18.176,1.4897,0.31248,0.64014,0.22483,0.31006,5.9296
18.184,1.478,0.31102,0.6499,0.24487,0.3252,6.0566
18.192,1.4721,0.3098,0.625,0.23998,0.375,5.8124
18.2,1.4692,0.30809,0.55518,0.22972,0.43506,5.6854
18.208,1.4653,0.30662,0.54492,0.20479,0.41992,5.9296
18.216,1.4614,0.30467,0.54004,0.1999,0.4248,6.4962
18.224,1.4594,0.30296,0.58496,0.2346,0.375,6.9944
18.232,1.4604,0.30027,0.61475,0.25464,0.35986,7.307
18.24,1.4653,0.29783,0.63477,0.26979,0.34521,7.307
18.248,1.4741,0.29465,0.68506,0.31476,0.30029,7.307
18.256,1.4917,0.29172,0.68994,0.3348,0.31006,7.307
18.264,1.52,0.28879,0.68994,0.31476,0.30518,7.3754
18.272,1.5601,0.28585,0.69482,0.3001,0.33496,7.3754
18.28,1.61,0.28292,0.60986,0.30499,0.43506,7.307
18.288,1.6676,0.28023,0.56982,0.24487,0.44482,7.0628
18.296,1.7214,0.27779,0.56006,0.21457,0.41016,6.8674
18.304,1.7742,0.27559,0.55518,0.1696,0.37988,6.8674
18.312,1.8358,0.27364,0.5498,0.18964,0.37012,7.1214
18.32,1.9013,0.27193,0.56982,0.22483,0.375,7.4926
18.328,1.9619,0.27046,0.6001,0.22972,0.33008,7.9322
18.336,2.0156,0.26924,0.62012,0.26002,0.31006,8.2448
18.344,2.0665,0.26826,0.59521,0.28495,0.39014,8.4988
18.352,2.1134,0.26753,0.62012,0.30499,0.36523,8.87
18.36,2.1584,0.26729,0.6001,0.26979,0.35498,9.5636
18.368,2.2023,0.26704,0.56494,0.23998,0.39014,10.619
18.376,2.2414,0.26729,0.5249,0.2346,0.43018,11.683
18.384,2.2717,0.26777,0.52979,0.31965,0.4248,12.436
18.392,2.2913,0.26851,0.35986,0.5,0.54492,12.748
18.4,2.306,0.26948,0.25,0.69501,0.56006,12.69
18.408,2.3196,0.27071,0.3501,0.59531,0.44482,12.494
18.416,2.3284,0.27193,0.5498,0.34506,0.4248,12.436
18.424,2.3324,0.27339,0.6499,0.049853,0.34521,12.436
18.432,2.3324,0.27486,0.69482,0.034702,0.33008,12.377
18.44,2.3265,0.27657,0.58008,0.52004,0.56494,11.996
18.448,2.3118,0.27828,0.31982,0.80499,0.83496,11.556
18.456,2.2923,0.27999,0.035156,0.93548,1.0698,11.185
18.464,2.2688,0.2817,0,0.9653,0.95508,11
18.472,2.2444,0.28366,0.34521,0.48485,0.6748,11
18.48,2.217,0.28585,0.5,0.30499,0.50977,11.058
18.488,2.1887,0.2883,0.58008,0.27468,0.43506,11
18.496,2.1632,0.29098,0.63477,0.2346,0.3501,10.873
18.504,2.1398,0.29392,0.6001,0.14467,0.33496,10.619
18.512,2.1153,0.29685,0.64014,0.12463,0.27002,10.374
18.52,2.0899,0.29978,0.66016,0.13978,0.26025,10.247
18.528,2.0645,0.30271,0.68018,0.17986,0.25,10.374
18.536,2.0391,0.3054,0.68506,0.1999,0.28027,10.56
18.544,2.0156,0.30833,0.65479,0.18475,0.29492,10.619
18.552,1.9951,0.31151,0.64502,0.19501,0.31006,10.433
18.56,1.9765,0.31493,0.625,0.1999,0.3501,10.306
18.568,1.956,0.31835,0.60498,0.19501,0.38525,10.433
18.576,1.9306,0.32201,0.625,0.21994,0.36523,10.814
18.584,1.9052,0.32641,0.64014,0.19501,0.31006,11.244
18.592,1.8837,0.33081,0.65479,0.1349,0.24512,11.185
18.6,1.8641,0.3357,0.64014,0.12463,0.24023,10.247
18.608,1.8456,0.34058,0.66504,0.13978,0.22021,9.0557
18.616,1.828,0.34473,0.70996,0.18475,0.20508,8.4305
18.624,1.8104,0.34913,0.68994,0.18964,0.24023,8.87
18.632,1.7928,0.35304,0.64502,0.15982,0.28027,9.9348
